3596
4000,36533379555
650,420452594757
1
2
2
0,0396999329369255
0,0344729612760401
0,035087807264604
0,0419590205458849
0,0349502357369787
0,0412992905792826
0,0335295826553735
0,040288343596366
0,0313204826258869
0,0403495279112956
0,0362795250101535
0,0446898601608698
0,0348170404296181
0,0368131579161631
0,0286237044855022
0,0369438234687871
0,0373417479966985
0,037118325375697
0,0403894736794358
0,040540308347759
0,0330993389279655
0,0436822297272716
0,0351845684695713
0,0364528560430412
0,0393939995753383
0,0395019648403039
0,0341113409015453
0,0387831265505502
0,0333887179680103
0,0419538540267158
0,0342987621026399
0,0432327261832378
0,0377450571550691
0,0415821664466683
0,039383128763862
0,033626032406829
0,0279980210091848
0,0368312535188736
0,0304953733074943
0,0387064510998171
0,0331077231987154
0,0430266235983987
0,0359778133802743
0,0411623588495456
0,0383392250475894
0,0423191830752428
0,0360924159480825
0,0469938592779571
0,0435966824690727
0,0428097765069353
0,0436461244201182
0,0360617205476793
0,0411805637425825
0,0462551685282731
0,0340785800564645
0,0439329796843653
0,0359823647719547
0,0354646776254433
0,0371484449357974
0,0380256931567177
0,0398980306103644
0,044447801755581
0,0338363347820191
0,0321178425657677
0,0309739754292229
0,0419408538701048
0,0308491023094466
0,0458179855806252
0,0355516945922425
0,0352424221506154
0,0341540383901316
0,0437896271576146
0,0324901662134869
0,0488742825216968
0,0376947699776434
0,0399680052341569
0,0280884172572762
0,0405524476729515
0,0388755625955928
0,0501449829092365
0,0424695629285359
0,0475830043514333
0,0369006378514664
0,0425296084710478
0,0419145286454003
0,0466654095253272
0,0249010110318161
0,0451330028685948
0,0287912956571062
0,0389275257895042
0,028711196373084
0,0392143258031446
0,0324748533927924
0,0490979647648142
0,0367027810217204
0,0336119193421909
0,0382107679069712
0,042348834827064
0,0322881307356341
0,0470961323193097
0,0333723173342215
0,0463757466377844
0,0467903582164995
0,0195531365470912
0,0568243994919505
0,038932926432926
0,0273827541803213
0,0475422700959313
0,0308927659147434
0,0425486962166225
0,0370264288164505
0,040659882969873
0,0357748497300559
0,0537611813809618
0,0305671896994355
0,0580286561813553
0,0385955987106204
0,0401344238465539
0,0282586354955036
0,0442420598107092
0,0203333572512385
0,0555930101403447
0,0462267949958604
0,033385677279929
0,0385728886102166
0,0300157562767336
0,0265432890009368
0,0524782977674735
0,0377599341665836
0,0363000702113852
0,0325349829987677
0,0418663078438779
0,0333052326426841
0,0361112921440045
0,0588229283909509
0,0393158920274743
0,0352254195784923
0,0302904686418101
0,0439781275214663
0,0537067094326644
0,0392080819878436
0,0434956381866518
0,0242754643960672
0,040896435361477
0,0438430005028404
0,0390141431224568
0,0355692229600927
0,0490802009172284
0,0286814525571372
0,0354841027648656
0,0300235416285131
0,0345691445799934
0,0393549814531799
0,0504215207721511
0,0114150903511467
0,0625883440270303
0,0565468493216224
0,0412479448741562
0,0602391946198095
0,0302274954616961
0,0408446513679998
0,0346799369697137
0,0430179419654752
0,0326182042075469
0,0373429993070234
0,0310633798553603
0,0255478232883901
0,0432734215528316
0,0362761908163118
0,0500404419056143
0,0341360700152856
0,03948136473625
0,020034528657044
0,0652093824744455
0,0409293832512579
0,0344847576166125
0,0384308641177069
0,0430404839651427
0,0295784207580745
0,0374936728148645
0,0526207129882763
0,0449154109459375
0,0392059151444878
0,0319881659881721
0,0395741681614817
0,0460185535626073
0,0413734926150702
0,0430345692566095
0,0355360935377399
0,0249453250139545
0,0481604958774331
0,0648830247508785
0,0481748500331368
0,0356320211805921
0,0464171099338451
0,027553238453869
0,0560162195876874
0,0504842281117919
0,0415343068003397
0,047862434017976
0,0409169832767934
0,0353185948640533
0,0392440575256741
0,0382641313743945
0,0362740586319411
0,0324730321925322
0,0668234136057452
0,0402896636089427
0,0414760777502676
0,0395981565953617
0,0406711614856925
0,0354587419754255
0,0572480388133203
0,0543693237152199
0,0415140982233596
0,041712934300063
0,0307142877114651
0,0482166648599374
0,0440669941884279
0,0372358361471015
0,0461610300173197
0,0474036946274881
0,0458163477595412
0,0440461213575618
0,0379016962251408
0,0423907928406938
0,0398586976831602
0,0450312399029597
0,0458076348750482
0,0403138249201385
0,0383909122059754
0,0504902781261443
0,0445005259638952
0,0490032332434717
0,0397046214624247
0,0421250080486468
0,0528845724746962
0,0471719202274611
0,049008692444771
0,0414674392685378
0,0454536419534977
0,0442132244276603
0,0396781421363555
0,0391528564113357
0,0485392677823829
0,0371034474143564
0,0584872141135755
0,0439352573903272
0,0519618024341869
0,0394044993514171
0,0584181524108126
0,0476384535496225
0,0454520333871063
0,0451210580360635
0,0446459201550459
0,0443442715248279
0,0405705122207182
0,0637501138402357
0,0458951426329528
0,0460481452934629
0,0548471338597744
0,0502380326960812
0,0473903269461513
0,0437446164159972
0,026507354754955
0,0811358741765035
0,0512335617167693
0,049063740172822
0,0679082068871887
0,0543613750978528
0,0537499536500688
0,0478498208515278
0,017680022160065
0,0761841208112879
0,0580555576441178
0,0509342357857238
0,0470330463608181
0,0639469530289251
0,0481066437705351
0,0590347695287282
0,0520171292203173
0,0556994312426527
0,0534537410133695
0,0468640651053436
0,0742289044442125
0,0392701604570828
0,0592168269021069
0,0609676396597089
0,059539277162951
0,0639159462923561
0,0595583469880305
0,0578138369344787
0,0554842022793136
0,0623766154263252
0,0565202136150169
0,0624628592320292
0,0526372953685165
0,07219885836316
0,0608709691982182
0,0647537762869198
0,060429873206986
0,0704368320728888
0,0505057559456169
0,0677691351438004
0,06485088098121
0,0694787747033719
0,0647355668382868
0,0708413239912109
0,0879477769651942
0,0763204152897369
0,0624052389400137
0,0753924269254205
0,0736669804205046
0,0753834487966431
0,0668205471839576
0,0825249987011183
0,0712194603055567
0,0834499669160638
0,071106537586738
0,0899792826319509
0,0825068915051051
0,0840679197538305
0,0822669987126951
0,0824450299702775
0,0830462725508323
0,0974690090316169
0,0872264691873037
0,0882778337338735
0,0992897720439174
0,0913361452797903
0,0914183639348362
0,11067670970969
0,0863951602565781
0,122265763596536
0,114006216379802
0,108280581269494
0,110580109604741
0,112042623759263
0,115215228120992
0,11914836035107
0,123766450459662
0,130103709057069
0,124650807830401
0,129902927098887
0,1320899120458
0,13376681093509
0,136220077659963
0,16362679298296
0,162832015391573
0,147244627997982
0,156069680609301
0,153809999802819
0,167753892189223
0,170451971983465
0,156965620011693
0,181803793013459
0,166077592626089
0,180150023639544
0,17417986383737
0,183416091595303
0,178421288953045
0,193628866334978
0,190417478450607
0,205072241546452
0,200152408014375
0,21434243333271
0,212693937002547
0,220054773174846
0,225309554079489
0,225358977214788
0,21970354738986
0,234594735685407
0,222261395661627
0,244405352660743
0,249220625316097
0,261355963357912
0,256213302747986
0,244399540692512
0,27123191513073
0,252859204462841
0,265655643785349
0,26340989926253
0,270053273533798
0,279690600602857
0,281735679651306
0,277887074168044
0,284341899474978
0,289628001296694
0,299593591337544
0,290070934116087
0,304881259588425
0,30490795011537
0,310218356442561
0,30883987231411
0,317321319296548
0,315838638292599
0,33500747138523
0,359714916006221
0,33503712553524
0,318564253196505
0,318604708954387
0,331089892945781
0,329588078776198
0,35066810427973
0,339848186798517
0,357679136359836
0,350862508766564
0,375772935497377
0,379744341508396
0,368174107480105
0,368554235211967
0,362331649937014
0,371200397874848
0,377419487444022
0,371416340599876
0,394978863707075
0,377149763511377
0,387762147278727
0,42117469674747
0,418380104231629
0,387740712068577
0,40696073247643
0,38798501058107
0,399399219437823
0,408449345448709
0,418410320932337
0,430300431327723
0,434786039698342
0,416018240155869
0,426503257915637
0,434243714321442
0,436221660056771
0,434989609390272
0,451059051639714
0,447806446854525
0,429983804480141
0,444921675589664
0,439860759718157
0,452071600404821
0,457735999159883
0,463973285270471
0,484936558981571
0,461515644679373
0,474080251518616
0,461569213836422
0,473496325767901
0,475259714192239
0,49228185770048
0,481058393946207
0,49493987153852
0,488438741458409
0,496804729959521
0,49630620673599
0,504894497364059
0,513950138617642
0,526908859444951
0,52007607552881
0,491453111342546
0,515855251401878
0,532500737333474
0,509876240651719
0,530284839312764
0,579272153729021
0,585790707591217
0,565591449234823
0,550607094474256
0,532053622260702
0,54723245465615
0,552645234464712
0,558006911034365
0,55736303903916
0,583364031581794
0,563128641029012
0,573866618685266
0,574873473930725
0,573989145397833
0,575295707791944
0,602540815827433
0,603221132307149
0,59021460236934
0,60552980416391
0,575088922377167
0,586968035401801
0,629289368255347
0,636221169289
0,633311280249373
0,595122514468826
0,59897544222855
0,624454139382156
0,607747138943754
0,625581698865953
0,653872128380506
0,624135764368824
0,629350576652563
0,6655135943445
0,659497014882498
0,675625470498728
0,654084473833956
0,660706648325441
0,661667555719128
0,673431626384414
0,674168633185574
0,671478431765961
0,725161370235644
0,725803378313769
0,716949560196739
0,726637830821246
0,696384708196571
0,677287602737688
0,692680392635482
0,714818613151536
0,693246312839593
0,711423372878321
0,74516359466755
0,720184188438258
0,732061677703717
0,757015502658733
0,714305599854345
0,742396345761315
0,734534872804331
0,744502234979095
0,755076796507526
0,76993103199187
0,766424558627297
0,791649838295163
0,80133859497655
0,792729238959921
0,740500676157267
0,771128912984364
0,806968670684512
0,796839949674529
0,797795797513761
0,81008540793089
0,779103976844786
0,822157785851932
0,819628683152049
0,791977918449975
0,771241186552398
0,807847394392197
0,820159998814312
0,880432730766415
0,864779820393003
0,829705606032036
0,846734938074888
0,86292247211814
0,833559097981151
0,854185381463568
0,855616926177496
0,86893087695379
0,855239377277221
0,85509801735377
0,861533060147284
0,87535854897908
0,854959202759009
0,871682119330881
0,863660615622505
0,875988287929141
0,86628514913813
0,937305906996765
0,912751160439097
0,901560532786248
0,886151753955104
0,922470816021193
0,902772426340311
0,946996265797873
0,904583924035497
0,927902335237268
0,946835849615831
0,918255352084434
0,945814494754043
0,93680562055734
0,938459644888353
1,01879291254473
0,96198552303885
0,972954112970687
0,95001611765963
1,03079727018782
0,991851982631867
0,973485790671948
0,920529883818449
1,05283412432201
1,0459837825001
1,07147659087313
0,99427750581451
1,02705987938913
0,960057180288366
1,01687863051735
1,01731044635142
1,01225129853035
0,997865972085291
1,03073010033708
1,00297318222803
1,00786465633892
1,01721413519997
1,14209243926462
1,01274023766174
1,02362342437742
1,05047876743597
1,03386325267812
1,0851548332385
1,14977207516375
1,03431292467232
1,12752331601484
1,08790424950263
1,10816867638325
1,08155250994929
1,13653045414416
1,06895042019896
1,12283105152853
1,07225018479705
1,18003516351441
1,11048869089354
1,15101151241995
1,20660472697343
1,19175767804799
1,0909607678462
1,13985329312392
1,08687590014807
1,160483983226
1,15369560800821
1,17966874413594
1,1146022764348
1,19076712723803
1,19305158204024
1,19143092991094
1,17264603449793
1,15531739990449
1,147259029229
1,16881023128222
1,10431344892808
1,23021654239119
1,13497580768425
1,20763753226134
1,20359344898942
1,22619397880803
1,18929616777066
1,2466905331634
1,15643536531005
1,38048012020765
1,18307388579869
1,15415512381726
1,22568762914153
1,19259242363599
1,15231255698458
1,33350796072465
1,22862785752504
1,22505558552006
1,24559929242126
1,26999163681072
1,19569230947587
1,26461690807744
1,27785974904891
1,25730728372573
1,24524386358022
1,41554593446486
1,28729487740924
1,29945483497082
1,29973317533255
1,2682047977417
1,34138519612889
1,43521063088533
1,26258985378061
1,37812261173999
1,20110740253505
1,25213721735436
1,2691957908194
1,32908429864783
1,2191631520848
1,34964544985737
1,4062475363617
1,40996470489801
1,26184311960853
1,2614307839416
1,2953238129662
1,28862323502257
1,2766676253574
1,32952770626851
1,25398014218275
1,31231846535558
1,29747666410395
1,38159833194277
1,32052731288047
1,49693165727034
1,36225710655669
1,22397141688801
1,28122217549388
1,38952184248638
1,35167184573727
1,36512356186881
1,24858377615229
1,45213058250362
1,31210188691723
1,38312866425939
1,33467867953445
1,41676082996074
1,32182611617361
1,47559417338885
1,31867372655704
1,37059704646666
1,3471235905374
1,32141372651121
1,21210527678033
1,31893336973833
1,24663125333037
1,35543893859817
1,31858463869036
1,40626047912737
1,26138491678286
1,31659258592354
1,28730321486485
1,36024490212631
1,37534507274088
1,41567677914363
1,33634492927187
1,38087243585757
1,30422629955373
1,37324167740635
1,29629523511408
1,30281055473981
1,32832854100758
1,32468561225896
1,26809450332372
1,37115813756885
1,35946447689609
1,33330066046982
1,27372997901553
1,30537364476007
1,26446408052792
1,32421093773896
1,33449534019116
1,43197621661591
1,40122785551052
1,57097433346222
1,37062898271283
1,35761137115493
1,26832140499108
1,32737963320882
1,42825704052578
1,33592540168737
1,30148043450962
1,35971901367897
1,37493397772732
1,41645931635877
1,32185547125355
1,40736914691433
1,28403368166709
1,36219186623779
1,27910491116074
1,31835901839978
1,30850627703241
1,2849404820541
1,32593341563222
1,37688250619487
1,23570861439517
1,33857957902883
1,25196072468697
1,36934823977821
1,30807953965907
1,30308987802928
1,26664249134354
1,37543471830497
1,33356565220357
1,48468925845835
1,32091848504463
1,35933785728408
1,32528092222051
1,41263218585316
1,31656567778126
1,35546590624326
1,40643326639232
1,34862054031336
1,31054835175559
1,3186950988548
1,31623347839914
1,3323990781225
1,2893404260458
1,39094948425673
1,22220307621764
1,33434743510033
1,36428703814092
1,34744480390035
1,24176708826724
1,34807358012368
1,33422181966962
1,41516922039522
1,27422360655219
1,34498634980925
1,22465263241671
1,30483442903386
1,35038639017787
1,35450495907064
1,26003492352236
1,32441956954655
1,25733010064043
1,39501776089266
1,38539892354657
1,29856026943329
1,26006177842797
1,375101277373
1,35119016126731
1,39398925609358
1,26954028705635
1,40433330665255
1,37132055900303
1,3089753965041
1,33632647593768
1,36709583824446
1,29537027896728
1,36722892708394
1,33812316213918
1,34912732083593
1,27196083847737
1,30963853815527
1,33507774683502
1,43305390053947
1,29050448229017
1,3783627753189
1,26746810137808
1,32951948338433
1,27095189370677
1,32772583092405
1,27656588436834
1,40039800062784
1,31711835187722
1,39688313058278
1,19153247947284
1,34598442601291
1,32895208676299
1,27458038617647
1,22926068254845
1,36039590007112
1,32401731115933
1,25995476295312
1,26799576609599
1,35955736371688
1,2735970556533
1,23591757717942
1,23301784704626
1,25614284998312
1,25263576819532
1,30869447817814
1,19000425076942
1,26611779904132
1,23439060238306
1,20603703222532
1,24292191425751
1,30529578702541
1,22155867819784
1,25307838677811
1,16888761619572
1,24015953242956
1,16339896900527
1,20877192167654
1,17161709869579
1,20251061550311
1,15257560601176
1,23564071736287
1,16991236113284
1,17768233160805
1,21854868774406
1,19992380053197
1,19223498166994
1,22432231049826
1,16700348202388
1,16744462558038
1,14443367653591
1,17448936431512
1,13525014049977
1,16900090978299
1,12183254609052
1,12833136204981
1,10079748822569
1,12850696674342
1,07051823699729
1,16013899105946
1,06534607953895
1,10051328869763
1,08987746687555
1,13378370618531
1,07267561194964
1,09454290534871
1,08109549084138
1,10863608731571
1,05801956553538
1,06144111064415
1,05548989729859
1,10209932319484
0,997488409455734
1,03921141491317
1,02284830677907
1,05503733121375
1,02431304303481
1,02185374928772
1,04073667817491
1,01008860298286
1,00901428103439
1,03067062832105
1,02066022809334
0,998240684492481
0,971661811776496
1,00013420641597
0,972033855755579
0,972751577720746
0,936650938038769
0,938943541795923
0,95287556871822
0,966559864828249
0,916020992687975
0,940316504003674
0,913697175611366
0,966004781015413
0,921322329156049
0,906643340490529
0,886929876165928
0,925003981474312
0,92411141030891
0,909109876690119
0,893657126094519
0,883014088324617
0,905496841286817
0,894619069656944
0,874416776648274
0,881100295775882
0,846124192619093
0,877538905538792
0,862318004543907
0,872200760944757
0,826131269251133
0,838846723594387
0,861295053908542
0,826011048013162
0,838191559462299
0,81081780270131
0,807316105028142
0,823414439098335
0,79145990443077
0,827335869260659
0,801018941649777
0,779216474089997
0,775531185163465
0,791109311159928
0,773124446344229
0,772069439084504
0,744002287549602
0,75803991565375
0,736983406226637
0,773903757635521
0,734854721832968
0,754692533733857
0,731186116956979
0,748913569565419
0,708456355705396
0,723919830170724
0,710696258048976
0,723662233200071
0,691484056548464
0,715178504719168
0,688263697147264
0,69563588674644
0,694563561644117
0,67838374487517
0,66762726882899
0,6745836738832
0,668472408916513
0,671202654310141
0,658431985273306
0,67146077608086
0,651911708880414
0,65439113289549
0,640774474412508
0,645138260722529
0,625021413250377
0,637333458218875
0,625527809416782
0,62584464363687
0,60512386407989
0,617192086307331
0,603833198606346
0,599329476121686
0,596131285802115
0,600730565370649
0,590726135736318
0,591173211632749
0,576347591269528
0,575771303122048
0,575096364760145
0,573349901470268
0,565764710147529
0,571422381554399
0,55464935308589
0,542837088420979
0,547030001494668
0,561338256306365
0,540895623646127
0,551039981257545
0,530539407544563
0,5383852903736
0,530287857544511
0,523616410993721
0,530842750635062
0,525845956640796
0,522611761827448
0,512526128354011
0,504846216787819
0,508149757878694
0,503643079427777
0,507802405560718
0,490134226368827
0,498661227358779
0,492870832487756
0,48110650045464
0,477286100277234
0,497360901476179
0,474040887169282
0,485347144977205
0,460924388965743
0,463756086275403
0,456003842829851
0,46088259544121
0,467075027448453
0,455248234273474
0,449252000938715
0,44598416124857
0,436686517336281
0,447600724230206
0,44069286645464
0,423076762484718
0,43228601067283
0,431157105985377
0,418564979702713
0,422936710673684
0,421869493735501
0,414054097139793
0,407444381899193
0,416961490178475
0,404756858874818
0,408313346784638
0,400831883723866
0,40172923538492
0,397715030804281
0,403361065690019
0,388421669671345
0,39146054024022
0,377392123577677
0,3861214982689
0,378642258064095
0,376942753150994
0,385796769718921
0,377793786113445
0,371906888347279
0,37456700312986
0,359819923643934
0,356863100344773
0,357563659095227
0,363875990247116
0,347606883546972
0,356718409495241
0,341749629528241
0,358268571796154
0,348112966301269
0,345041761248893
0,3411589695891
0,338105545457245
0,332404263435611
0,34059370093764
0,327845457040776
0,334734470468291
0,326017347004403
0,328708691200011
0,320932314788857
0,31880274899083
0,317514593013616
0,314891542958352
0,31446955644865
0,312975996941624
0,304976829882849
0,310249617028044
0,307703375717804
0,303100318192742
0,304281086672331
0,306784675885445
0,296514765767157
0,294908561902959
0,292938604950527
0,295022986908908
0,286609319112002
0,286450560350747
0,28685454739887
0,285524872005139
0,281617001636399
0,279660499233865
0,274307630188707
0,278655669285373
0,277978504807069
0,275942030648979
0,272367242658076
0,277419347803121
0,268361176988722
0,270529714296472
0,262825010694534
0,2652211730519
0,261912038525063
0,257055315449325
0,258747436193281
0,260397114673345
0,251824379652872
0,25565039371296
0,250597563509036
0,25041295682744
0,249334694309473
0,244740889206991
0,239951518954281
0,246276707043906
0,241608778143962
0,236248865891741
0,233977449540846
0,23798316424842
0,236269747194527
0,235890345789683
0,233077984170481
0,231567358746555
0,230908040073804
0,231664047778872
0,223887439407227
0,229841092050034
0,222873264452167
0,22328581056651
0,222275095796465
0,218382405687765
0,217606127329559
0,218180906605124
0,215785411505172
0,21461251247952
0,211020019931298
0,211268178203764
0,210489223898587
0,206413184102354
0,205732751033535
0,205219925674112
0,206127740060618
0,208433352082343
0,20774032669538
0,202738167979515
0,198599134985866
0,200331503031152
0,20009092776333
0,199484778180881
0,195448197457513
0,198054570129988
0,192530167744985
0,185149100801117
0,186712096089987
0,18827482030909
0,184972381730995
0,192934586932136
0,189020465153701
0,192482596826158
0,182702526104688
0,178989646698682
0,184810447095416
0,18195441931095
0,172892979834677
0,182808766650925
0,176928396615098
0,177366658097318
0,173842354393341
0,176109257617441
0,167306630279269
0,17097240839225
0,171588304689162
0,171800736105719
0,165467182775686
0,172117100769424
0,165477643549894
0,165719870558738
0,16853560756965
0,169407015837207
0,169956430573664
0,166056886801117
0,162504553626364
0,164841507947559
0,1626844170284
0,153271135125401
0,158822849852355
0,161741070758832
0,156186181063266
0,155800136531416
0,152701876544541
0,157558395301384
0,158494399863437
0,155171175974082
0,151617264650685
0,149672886534507
0,149620242863429
0,155709232749364
0,149029214803763
0,149563015916504
0,145266397502587
0,149968631517715
0,147805879546916
0,147755373697877
0,144575974791644
0,142926836481173
0,140990585786894
0,138610650989089
0,13691245807091
0,141910300877842
0,143795233099683
0,139128961305884
0,132821314163754
0,141713222647483
0,130513590702846
0,13341272233177
0,132817046893605
0,135035580403812
0,131585450462675
0,131988545606717
0,128446617467779
0,130067350956138
0,129286162273972
0,132768564350612
0,131399852057304
0,132248113674856
0,126375089317802
0,130734601424628
0,127002733496397
0,121715327272948
0,121161567215543
0,125470843883608
0,120986718393187
0,124758588226807
0,12158674658701
0,116091824383726
0,121360030772022
0,122239706214912
0,115652111063669
0,119336875040387
0,121689582646663
0,125311327950027
0,120620351022326
0,122228890143691
0,117404190036616
0,11511236134255
0,112926306237915
0,113193961730221
0,114727391617614
0,113728399644429
0,111368718944494
0,112320043496713
0,110652471511717
0,111659904337122
0,109446077872744
0,109737360789852
0,110904979486274
0,110324165520084
0,10570689693674
0,105312850211956
0,104691150512715
0,107233749960133
0,108029554695654
0,107535160217122
0,103689228812964
0,105692696135798
0,104643771638922
0,104777370130987
0,107372713698489
0,100473941333028
0,106638681986634
0,10207325399754
0,103443262967119
0,105379625175036
0,103849024710263
0,100413188252553
0,103102276962359
0,099626783537554
0,0967197788742593
0,102593758327851
0,0987032060954159
0,0992336305112745
0,0960654206957094
0,0993257786015035
0,0969944904777783
0,100702885903507
0,095991906936369
0,0963929250779933
0,0950708290314518
0,097616379871077
0,0945352898708672
0,0942809799972896
0,0958185072415588
0,0954118366536055
0,0930415486103822
0,0937754777282259
0,0877756650190908
0,0945492042908787
0,0937145884643422
0,0956153712906277
0,0900867558496733
0,0935184270671861
0,093048242027874
0,0936172801343036
0,0886032585035817
0,0897531688844408
0,0907914224545469
0,0893818405733642
0,0916572572368848
0,0915280923264446
0,0857614142287474
0,0882179575168462
0,0851310338543368
0,0886192110723318
0,0857401672932404
0,0897215776948557
0,0869171511974277
0,089556556877154
0,0860247459672287
0,0897522905380088
0,0839760704095462
0,0864977834771542
0,0851500789687964
0,0838155231784731
0,0875681511816502
0,0842183326062298
0,0828012580801454
0,0823914145504189
0,0814498087160726
0,0881194629254469
0,0831103931396549
0,0807457161629706
0,0802320485234986
0,0812704194527886
0,0800137668482256
0,0819061949548584
0,08210022327151
0,0804785314627974
0,0799640670656697
0,0840604767325989
0,079551209271826
0,0843753687532261
0,079639232632515
0,0826449206665527
0,0785357285582313
0,0810751064294932
0,0778742319634339
0,0782829338364016
0,078065580394136
0,0756092703281059
0,0777261310959187
0,0795132310160011
0,0802684294791503
0,0788690629988355
0,0801600609622121
0,0780712032556925
0,0738637872168593
0,077049358387914
0,0765742808633546
0,0790310224918067
0,0757767558734408
0,0743237636857334
0,0732962072898761
0,0732762080387223
0,0742954538039741
0,0786417929272254
0,0731685237635765
0,0778212402147038
0,0757335470733762
0,073386970624645
0,0749145275253015
0,0725425534559641
0,0767201669993564
0,0719511815534572
0,0719129733463768
0,0751896574744004
0,0707236544040757
0,0701218750496724
0,0723740537525053
0,07612571287865
0,0735003711445826
0,0764639527682837
0,0717313719230068
0,0719898453956709
0,0688903887051347
0,0711414479794999
0,074135250657544
0,0751173217977908
0,072898762164926
0,0750969435672876
0,0723250568389563
0,0692492365825911
0,0713996917647778
0,0689559659564927
0,0695001837157835
0,0668050276951339
0,0687993674323629
0,0704597742369592
0,0701778769556228
0,065960778330552
0,0651742617467038
0,0684930980187634
0,0662703739031473
0,0687597814016692
0,0683416111636292
0,0724997549895625
0,0679442258822126
0,0679157516013771
0,0661713692748756
0,0716898101313482
0,0708288039032916
0,0702925689453634
0,0670347753361527
0,0728025861078418
0,0706905508334529
0,0689223009270791
0,0665417238994763
0,0651727710550125
0,0665394881892431
0,0703658772794317
0,0659680535681988
0,0713783042382439
0,0687345997631598
0,0656637949218664
0,0654872335751469
0,0694517361086428
0,0684254436027792
0,0649632595969061
0,0666168230419152
0,0644766612372465
0,0637197078166016
0,066238161879809
0,0649333881826723
0,0700601880840204
0,0660940915488196
0,0659492024391903
0,0652013485840475
0,0656092045814935
0,0674498740699943
0,0640721310999707
0,0669161903592465
0,0676578782065009
0,0652310181676795
0,0663905143873857
0,0679229051511321
0,0655948722070728
0,0658627822898609
0,0665022821915116
0,0628600468748649
0,0638984446866968
0,0615191933451751
0,0661057523912923
0,0655189890168408
0,0635059200535948
0,065312661129239
0,0646545017294817
0,0644465131866626
0,0674428071841408
0,0625248250894463
0,0657375427544795
0,0620092299210289
0,0626391988408167
0,0647330978528456
0,0628552607024957
0,0636755710292479
0,0653994254578496
0,0659143445307503
0,0639268963957669
0,0654623883502351
0,0617922072107966
0,0638807916214694
0,0657868729125083
0,0629961592823869
0,0649945241725888
0,0607471240814954
0,06383371858152
0,064609640818993
0,0643940565790923
0,0600205781949516
0,0641218893103947
0,0620433463785073
0,061714015713341
0,0612913319285236
0,0629574906637203
0,063164398353793
0,0616104876202204
0,0648705446490135
0,0630364930254392
0,0619929258172888
0,0627208482004732
0,0615919961601144
0,0640779202487622
0,0635683267867164
0,0594497117131202
0,0601353913455034
0,0614012116849746
0,0618245472914779
0,0648514564936569
0,0614114531698611
0,0613670086728275
0,060373817631829
0,0618901908156254
0,0570432009677874
0,0617892060790522
0,0616803359871606
0,0640418855231385
0,0640296577889932
0,060929166094192
0,0627617656090362
0,0657856894878236
0,0611881707656886
0,0664187786013583
0,0641435289778004
0,0634716710568772
0,0599073771836049
0,0608697362296474
0,0598025803312003
0,0640407395501409
0,0628403964569436
0,0606564516764155
0,0620051086404826
0,0625014092312743
0,0614335127167622
0,0641357854640961
0,0626490677386907
0,0612770456521768
0,0616277149511937
0,0613961286912804
0,0641371902735802
0,0635401821151772
0,0615848422595039
0,0633914495737103
0,0645839615365426
0,0627142209693286
0,0605303005680432
0,0593076220746377
0,0592988359574384
0,0589526868687579
0,0627339800723039
0,0614715370539546
0,0613857023305912
0,0629403131029116
0,0626393648398762
0,0639877490356925
0,062556269632653
0,0600085622097127
0,060674575499087
0,0618967961745642
0,0621550971518302
0,0616309145933858
0,0623637920073959
0,0614435826815562
0,0609271885534733
0,0612719310450928
0,0627730654449887
0,0634492329402628
0,0619352218761752
0,0629513311054158
0,0610209467302491
0,0626138284433435
0,0633803741555514
0,0615323786105053
0,0628323936611767
0,0664703847222625
0,0634393405572807
0,0636706735248607
0,0603707242066867
0,0601735735102391
0,0629256485664598
0,0667085968323166
0,0645425362823977
0,0614636834525931
0,0633643720320818
0,0659428252940771
0,062334398807412
0,0636016407384753
0,0635106524717964
0,0648890377472923
0,0652664207459331
0,0631126099857252
0,0614353144367547
0,0636048905268801
0,0611281970954898
0,0630967112858684
0,0626613271274331
0,0624170683068477
0,0648772336438285
0,0660171997084938
0,0633088731355053
0,0636896876477531
0,0640451883236696
0,0652474173370274
0,0642031270374273
0,0646710416847779
0,0642203117260662
0,0639770696698267
0,0665020945667967
0,0668840643874808
0,0653239959137958
0,0639348510317121
0,0629065053854631
0,0647019466325146
0,0649296348141576
0,0668688417898519
0,0647663738798829
0,0635408440649264
0,0634632919491372
0,0644843641314321
0,0645519807579303
0,0623081960643852
0,061496339865716
0,0664335662173326
0,0648376031593054
0,0651435085761606
0,0668989046493998
0,0674785943763987
0,0658786077438481
0,0673352133642407
0,0660489642102928
0,0652600281277
0,0647093398830224
0,067012587391476
0,0672316358510408
0,0672888667852255
0,0653269352574295
0,0673944846910117
0,0669741001321818
0,065191126682185
0,0651940045139213
0,066027226739045
0,0679347754396925
0,0666393869216621
0,0657482938969477
0,0673703043780784
0,0659888264806138
0,0692709483086262
0,0665585553799756
0,0656318796473284
0,0668417582573992
0,0659992054218264
0,0673873381681174
0,0664932656998021
0,0673963122668933
0,0681806036923084
0,0679957130656767
0,0656732986165966
0,0671037153444434
0,067000308839181
0,0665117077747231
0,0679168589218368
0,0678097437578031
0,0685054949671032
0,0663351363419523
0,0643132850036691
0,0689839340528666
0,0682988819926333
0,0653511053095313
0,0692967333617008
0,0670276564318424
0,0667965637267789
0,067573346302728
0,0688258451870344
0,0691223948583738
0,0679323548019711
0,0675505203137369
0,0704403607384484
0,0683584042105669
0,067929589641605
0,070419115650211
0,0697406931783447
0,0692163294743193
0,0685812573881083
0,0699474791796739
0,0696485110865189
0,0682336489982182
0,0692545695528406
0,070096911975754
0,0708964985550191
0,0697891272220354
0,0708236555090712
0,0714026996739646
0,0720702835808825
0,0694285644241918
0,0724937825823986
0,073593803449092
0,0718376376078076
0,0686309868980018
0,0683107089344505
0,0717033162943721
0,0730023168314096
0,0706268726087976
0,0698181736998431
0,0694493354275506
0,0717274187995284
0,0718109310222764
0,0699660454183786
0,0718289095458231
0,0710966455571344
0,071490561034894
0,0719231573211092
0,0711585816840584
0,0729904460864213
0,0743208602175028
0,0747853886236552
0,0696563057533317
0,0690486830632642
0,0709075441696212
0,0711371351809449
0,0725737646300522
0,0737681443856122
0,0744921819502436
0,074280484054145
0,0754031236964374
0,071843545736862
0,0734108625718319
0,075436945866462
0,075093405494495
0,0719579894222343
0,0721677076198105
0,0733652566692941
0,0748402881806065
0,0724728439535005
0,0729728425182841
0,0741412035731685
0,0768802630435783
0,0753879126610117
0,0745449313062703
0,075402001649694
0,0737827115457347
0,0740219869711267
0,0764675242101749
0,0765741371088277
0,0762983554530685
0,0755098493412398
0,0748219659782995
0,0750573635576132
0,0765694622464713
0,0770495944028691
0,078453625458186
0,0757749889445561
0,0767113079346731
0,0754479245489912
0,0774760451933878
0,0757259528901784
0,0801453298348161
0,0782257652725697
0,078969123946059
0,0792310571217857
0,0782558764854983
0,0810240768951052
0,0820578661852881
0,0819819600327693
0,0821930660563032
0,0783346078154856
0,0808448669845534
0,0815411757695209
0,0847572872242832
0,0804807316425947
0,0816087877375966
0,0824248506333478
0,0855108902541862
0,0816811972928714
0,0857465040746122
0,083733147926779
0,0866919468043794
0,0859461713138657
0,0880650769111128
0,0847468301010244
0,0863130950326564
0,0820628703613838
0,0864541531652982
0,0807052011842841
0,0869719129600332
0,0819088523262842
0,082575215901697
0,0806124540287946
0,0866569185343337
0,0810774311980665
0,0876843367910455
0,0779987828632362
0,0849862532146747
0,0799444516161643
0,0894922845735131
0,0784393246201094
0,0856687720507824
0,0817309369598058
0,0933893137222986
0,0782957904178607
0,0911663992401411
0,082468527301947
0,0894309425258319
0,0782214593486879
0,0932535889527603
0,0811629835556677
0,0925196716893893
0,0820119500425122
0,0953703745428745
0,0823973847470932
0,0924636701604731
0,0831662927988297
0,0899480194057056
0,0836994469887937
0,0873350890434144
0,0898090305641114
0,086720027331422
0,0886860390814609
0,0810292298429874
0,0955955232433169
0,079625821479548
0,095705318042955
0,0771920526219824
0,0984476637190872
0,077258276482434
0,0981223906338238
0,0792972109318087
0,0973402325620192
0,0826071518156496
0,092289370514332
0,0854636732156438
0,0903975178508336
0,0881488020436757
0,0876576297374797
0,0886164356947813
0,0907251441920463
0,0883583175686134
0,0891797597199922
0,0850848823732017
0,0910949406308
0,0857061565466025
0,0919671890365639
0,0863758250024131
0,0932346010425139
0,0900824198035398
0,0901898359306784
0,0901693887238915
0,0924921216897464
0,0893580425644506
0,09371805293829
0,0912284113915346
0,0911751737139343
0,0878873775334478
0,0920347559676027
0,0898703743186875
0,0929743030496617
0,0899194411095383
0,0926808107015692
0,0898194260852806
0,0923060332036216
0,0922321188735459
0,0964394168085904
0,0929785881858347
0,0918897618467837
0,0905955461138999
0,0917596788317279
0,0891512486610057
0,0936066047885479
0,0937326584630227
0,0972622458065852
0,0925762757959442
0,0938637958705268
0,0949979973160297
0,0977279554550485
0,0960518105710242
0,0972519852164337
0,0951342090867102
0,0975767394747861
0,0958317079558333
0,0980180011237025
0,0967100679438811
0,0983123887777165
0,0960628589658439
0,0992815644315996
0,0973870238092623
0,0996985290696787
0,0953444377579061
0,0989919709075503
0,096540245006977
0,0986918873507175
0,0975063509156182
0,0994576810592494
0,09873391951406
0,101587237813078
0,098789440768583
0,0990787580237585
0,0990668936868467
0,10052421452828
0,100888776369376
0,100354634609005
0,0992585632913074
0,103179686463387
0,0989093324066263
0,101270155214373
0,10278138447333
0,102269136469155
0,101311710657455
0,105658467476756
0,104357984241263
0,103284142268612
0,100725662685637
0,102899600011047
0,104449974432343
0,104708276023159
0,1044905270569
0,106455499050811
0,102223775639568
0,105541910597176
0,104289371352185
0,104446182646184
0,105613431222967
0,106838494985362
0,105811155042825
0,107838754155106
0,105909474365476
0,106867072365227
0,106956664565324
0,110045544271939
0,108513505785852
0,108274174218759
0,105791383471681
0,107612289273884
0,108319950985151
0,108659034891731
0,108356584239694
0,109751642466652
0,106572857704239
0,109059600532994
0,109897990917231
0,109717837772352
0,108392231533492
0,111069075702641
0,109492778967346
0,111828966969158
0,112232226402472
0,111490469440783
0,110116351550675
0,112143834783301
0,11197529105822
0,113752061522754
0,112328934973569
0,112909330272993
0,111229165903178
0,112744348382811
0,11156589732556
0,111802166341722
0,112157726023767
0,112737175069672
0,112394364068707
0,114362392714878
0,112453090057913
0,114401005951867
0,114254144491065
0,114857921088315
0,113529605895252
0,116519044541756
0,113987125379566
0,115043772269682
0,117554277950421
0,116282879325965
0,114428652224024
0,116540636365462
0,115498261029792
0,117279030125122
0,116600478349865
0,117433592996397
0,115795132107294
0,119517438404915
0,118983533522568
0,118733243362137
0,117466608815158
0,117729698904672
0,117698049918775
0,119006169187227
0,117164015393678
0,119691670889546
0,119495434659106
0,121385334877334
0,119466389310796
0,11760576920105
0,118838048609175
0,118679848795624
0,118454254885503
0,121308995626108
0,122599290396706
0,121324841000203
0,120173677527264
0,122539333288256
0,121668238861845
0,119849728889914
0,118863626642282
0,121450271672426
0,122545684777085
0,121658197286621
0,118091844927352
0,121042643412661
0,121782708076049
0,121606580866544
0,120369536950592
0,122313108449492
0,123765658080234
0,124562663331213
0,12166273850535
0,123591002898642
0,120708664096785
0,121292699928824
0,122860370912404
0,121527675786266
0,121779505031459
0,124097231668856
0,123770386883777
0,12277563867504
0,120599409816322
0,124188631578437
0,122266877431146
0,122172030754736
0,122582460710914
0,120980979107195
0,120235290672698
0,122307458203065
0,120811877500606
0,124715297233702
0,122332893404991
0,121541737281423
0,122752950040768
0,123148289719705
0,1220643292852
0,12358075120915
0,122599951686688
0,122468225746404
0,123428374718398
0,120390085397457
0,120893440743152
0,12495239913679
0,122929575366727
0,123410590799641
0,12245665751036
0,125918182883643
0,123391364568031
0,122893147724437
0,123772653109571
0,123660320226073
0,123113632325652
0,12433515268592
0,122334689383514
0,122996046638163
0,121856596007594
0,122876237819086
0,121649110717387
0,122006730244581
0,123626820844125
0,124438221727332
0,121943881672528
0,123235642209557
0,122801854487485
0,121926330963765
0,120716665626698
0,122635901698116
0,120401859428823
0,120103055707231
0,118801467643807
0,119763284426363
0,121354545417552
0,119580853758763
0,119271619524542
0,120834080862208
0,118982058440922
0,120545739847819
0,119625319305495
0,122508776432657
0,12166724602475
0,120281813265775
0,118489188513376
0,118962190302318
0,118848218852947
0,120009179858092
0,120194368835993
0,11973645351627
0,118220330727902
0,117762536446047
0,117228403480098
0,119721985643256
0,118865527822585
0,116771849279673
0,116693320621021
0,117680824995875
0,116527644616211
0,116611536605195
0,116572388976233
0,119416526144098
0,116553709182047
0,115258926536567
0,117051969844923
0,115663298499371
0,115420694960302
0,117569410385209
0,115049050434529
0,116023600185358
0,115375263805356
0,115259587135049
0,114020722817942
0,115321464793976
0,114684719080511
0,114293356283367
0,112516055461151
0,113649359775587
0,114210292666371
0,113343157982567
0,110777902969442
0,111492562417677
0,111324611877991
0,112918918357205
0,112079441018048
0,11302654340435
0,111627749552965
0,110032266957488
0,108755743862761
0,109963462045975
0,110269822698778
0,111090574431403
0,109079337019056
0,107099587036728
0,109595903686041
0,111449039027898
0,108496308125262
0,108637089503071
0,105312752768697
0,107947375180142
0,10922390122021
0,108551717873049
0,106972701328336
0,107317350593921
0,107818136867562
0,10742596880559
0,106485793902973
0,103704176920386
0,105019809045938
0,10550782488999
0,104470216102629
0,102449039379499
0,105251433476386
0,104621757468805
0,103251690805137
0,101562157154222
0,100462117900647
0,102889270652399
0,103155383987541
0,104314041505093
0,104349246756165
0,101511323424177
0,102185484415846
0,0999017688007374
0,10020601625116
0,10095507786782
0,102363117405365
0,102571030016192
0,101842620944312
0,100677086020655
0,0994727793297562
0,0987326855134732
0,0996525826926087
0,0964865326233514
0,0991589333279485
0,0978486885769198
0,0967368425151499
0,0966803975160924
0,0962267316413358
0,0981685057111507
0,0959185546321337
0,0972864282295968
0,0971439757534591
0,0967927296632122
0,0955752250230044
0,0958745395983191
0,0945765638678539
0,0955496309895558
0,0962732660352728
0,096637420313794
0,0948030583971535
0,0949872968944695
0,0938035182130605
0,0938243146553364
0,0926665606281914
0,0960528002524642
0,0946081285259532
0,0921940761775061
0,0935577095012828
0,0939786072255343
0,0928371649249719
0,0930758870052434
0,0914915639312806
0,0916218806143593
0,090048679586153
0,0905535670245855
0,0919151039332704
0,0898455662310654
0,0904789554897711
0,091074352197673
0,0892725899045011
0,0890809110205219
0,0908141599445788
0,0897805851789227
0,0874105356895021
0,0886976002596394
0,087720830436304
0,0896105201838137
0,0889607492899376
0,0887043856986526
0,0880798680410476
0,0874648845692326
0,0877368752772651
0,0880546251180454
0,085076282647216
0,0885013658961283
0,0867204543216047
0,0864058901132065
0,085727750573279
0,08339211970013
0,0886119428771089
0,0850017850276291
0,0873833039281115
0,0852311903225521
0,0850303659005512
0,0843703695670176
0,0856188772415212
0,0861751425167445
0,0864055058403554
0,0840363890770034
0,0854457054412789
0,0855408931311378
0,0859819548047389
0,0843336743903867
0,0863537006424121
0,0836787923002305
0,0837880638778032
0,0843276364943836
0,0827029971811684
0,0818894843481233
0,0848371128055695
0,0843528850690856
0,0851941295224115
0,0793660644914273
0,0835095304376944
0,0838731523648876
0,0840166949770237
0,0792071896153692
0,0808569630323945
0,0825299085796426
0,0823298978578775
0,0820139456780248
0,081307947112114
0,0813619985307088
0,0824321222625771
0,081276568003128
0,0793915639150908
0,0814735223666391
0,0798776147618115
0,0776699356893541
0,0824591795433808
0,0798800433674714
0,0800789156189133
0,0824170632806626
0,0820320263100312
0,079136112511317
0,080725884198895
0,0798676719365524
0,0799587209835475
0,0782220354395463
0,0798636175453829
0,0784424097876803
0,0810400143782108
0,0805641509530353
0,0776504433312352
0,0803222861689399
0,0786876780608073
0,0796826673938662
0,0780210508559206
0,079306057730564
0,0786263097711784
0,0805708656841961
0,0805035061763562
0,0807861923934717
0,0794930782827742
0,0781550299419333
0,0776487253033412
0,0804437811724692
0,0785390597262947
0,0799279163692322
0,0792632905230821
0,0770710974210735
0,0787959391376811
0,0807766489192826
0,0825401388423063
0,0793692681348177
0,0803582635428348
0,0794058712355497
0,0804259606019386
0,0802649935863652
0,0773454275092255
0,0772470258742578
0,0769095864376568
0,0789954023915732
0,0774316089723237
0,0798491564352345
0,0785011105556409
0,0773036010589031
0,0781126353315764
0,0783939926801292
0,0773136698846059
0,079058280684365
0,0797469573560718
0,0805295597320581
0,0782961033757024
0,0784814056891272
0,0804164652364613
0,0826055336028469
0,0770541295229621
0,0808689468444817
0,0773806196524502
0,0864800170650553
0,0778058823056281
0,0801167987055508
0,079498948958202
0,0814437624722294
0,0806540471027694
0,080673967848816
0,0819648787622143
0,0818224356019475
0,0807662157372578
0,078445654062317
0,078219405811281
0,0798165278591152
0,0805615378156068
0,081263973686291
0,0811566604883989
0,0843834509660024
0,079182414486883
0,0792591208342569
0,0800220026962266
0,0859104854250359
0,0827651442992134
0,0803865766755067
0,0832714534862541
0,081888844893907
0,08254853124849
0,0803220994320767
0,0825798786576064
0,081356921336166
0,0829273452770297
0,0834045193318343
0,0839906894458939
0,0823968334667414
0,0842447390509816
0,0837313189132723
0,0835385857818355
0,0869113342472994
0,0878606061940536
0,0843428592208617
0,0854119496850871
0,083890345104188
0,0860012498507414
0,0833134068298357
0,0867976730041961
0,088076232315361
0,0891127440553104
0,0889390795145324
0,0907516596972846
0,0873900446571034
0,0875559186131684
0,0850371465604175
0,0890093869783117
0,0873599097178949
0,0901986736574888
0,0849263898035632
0,0967284640986058
0,0946622454191638
0,0931294481049527
0,0932133907983796
0,0892849919642078
0,0915307175387328
0,0891025175379301
0,0953214592257354
0,0905088570702643
0,0970134995702115
0,0873679401623628
0,0957636742341821
0,0914695247112288
0,0970185633763112
0,0978481316884642
0,0995418755281375
0,0964768590993324
0,0961260706765076
0,0986418056292506
0,100002617657055
0,0991350508160707
0,100186781486979
0,102004736609389
0,100337837018742
0,10060112568995
0,102224921809694
0,102040401417908
0,107736229057233
0,100462110760031
0,107564488657449
0,105343907612077
0,106936706041769
0,106801816715322
0,113363114387596
0,113104554405928
0,108062030081228
0,110133574178087
0,109946817328685
0,111065772122067
0,118166587119794
0,112280486329587
0,118647389703399
0,114836718195293
0,117716158009932
0,11482942035293
0,125140904993555
0,12024376002255
0,125877322781891
0,12830000670835
0,125227838910027
0,128870691497297
0,126365845790288
0,127671161694824
0,132499265688508
0,133249083362233
0,129881723694102
0,137899397423057
0,137103088730799
0,14111913866346
0,139121868560526
0,143657123032162
0,137890721015951
0,153718058893591
0,15310123027941
0,15243088179018
0,149937300274678
0,151655175320789
0,155031918464217
0,15770561588056
0,156964066734417
0,164985688857485
0,159774081958453
0,163818626104527
0,168477735910869
0,171388369489462
0,172332770241378
0,174234711144563
0,178202120226791
0,179662923264551
0,185447879409434
0,193977439797839
0,191161699304936
0,191769731142625
0,188831869248704
0,203358410112089
0,199031475519058
0,206414171140096
0,205285416194117
0,212722449384279
0,215573428212212
0,217170014094678
0,219684486090873
0,232551736287512
0,234544222709996
0,2376868422062
0,239356676130478
0,24224970364341
0,243281493026055
0,256604031885483
0,25561745170918
0,281379782535403
0,262310250227062
0,270621058002412
0,273407494474908
0,302071171940131
0,290832135888223
0,29153510784667
0,295449757259011
0,303336402989874
0,309297660131776
0,316973227230874
0,320512108444097
0,331524901491534
0,330259676547059
0,331508049035186
0,331114619810243
0,368918735203458
0,366012303010196
0,364732476158282
0,363872856715792
0,373757378413279
0,377772256416705
0,385947946562951
0,38781171020961
0,394206196382882
0,401832239150089
0,428408175953729
0,41641375684425
0,417202809658768
0,423384837000264
0,437416750999504
0,439723728469008
0,456203100551407
0,471244624470858
0,457363711461932
0,463984985013158
0,468546458079426
0,474015435775843
0,486908750097201
0,488492733870432
0,508255128603756
0,496241884818701
0,514806394122415
0,517507350058676
0,527213430084439
0,526174442292834
0,540911729297215
0,533740051866139
0,544001606647463
0,571993674793297
0,636847465387779
0,591156590319546
0,57387803182514
0,564477964573816
0,578212178603356
0,584465310647725
0,589525256060579
0,59769711332423
0,616602563835215
0,594813349800391
0,609623582381214
0,599430132689134
0,611082157049973
0,602803377308181
0,62292435007522
0,601031851039153
0,623975763852671
0,613409015470222
0,614560656288043
0,665726667224167
0,625598840750307
0,618356946167681
0,623711090167475
0,610879673852661
0,610780366441102
0,609473398551924
0,627194842742348
0,618510026446219
0,602521910592677
0,589920277832166
0,5859416594615
0,611358136432335
0,593449222185093
0,566798868362192
0,578294985725692
0,558788062066542
0,551825286854574
0,547240325728768
0,55068732400793
0,557638672521728
0,53970167622595
0,511494636354218
0,521882760956856
0,50556688114341
0,498744565769003
0,497424760514153
0,489190126656085
0,47488793207548
0,481707536579643
0,462918413868918
0,465454302618614
0,449614889833834
0,45107607213648
0,446870155448168
0,435356575264132
0,42943577708253
0,422383367756308
0,417378055812297
0,409791963754261
0,407598625448373
0,401597073434157
0,398018207014351
0,389605509445446
0,388313598362206
0,376858421363478
0,375002671933373
0,371692727712586
0,366229532981052
0,36761494094842
0,356963271292054
0,349855192788257
0,350372228209796
0,346242168267106
0,339576111299855
0,340563882913891
0,331466697604782
0,331958184545259
0,326295451018265
0,324019714226234
0,322934713089035
0,311033606419299
0,316632768580462
0,338360156692672
0,311904298085672
0,30935748450622
0,30288220915851
0,304786108635879
0,292383979577799
0,300381479285511
0,304222055059284
0,303580587862539
0,290246285427636
0,289694092889164
0,288045449764503
0,293312414917821
0,282785335846604
0,28051739917702
0,274904050083391
0,273538574832354
0,275447069209939
0,285963923631343
0,300152328717466
0,29479103836181
0,276371120269666
0,261244280902963
0,274517454382224
0,273672341830269
0,267067966829672
0,259429680539297
0,259209117109195
0,260032919488412
0,260887231637773
0,254589681966806
0,255366799805808
0,252386248889342
0,250788836971888
0,259142671542096
0,2537326380348
0,251094170903554
0,256865737894196
0,256309739421573
0,245613770627412
0,270601679241269
0,248344043558283
0,242778782827808
0,239753246210878
0,238429358417657
0,239042288902048
0,248356659575886
0,23667788310299
0,236689516422477
0,230518077956421
0,232570193897194
0,231495937460529
0,240859113676432
0,228700668395646
0,236225555540928
0,232065790747536
0,232704276086217
0,225649797775702
0,2345824324598
0,240073411167849
0,232359827313718
0,225173394929991
0,222822502392759
0,225343646746775
0,236399988598397
0,22726253052381
0,227378171116442
0,218230805076919
0,224946564292085
0,224022543546334
0,222861410189192
0,221972249642385
0,218597988941082
0,218810663303166
0,220878676859848
0,235124352980458
0,229829821930501
0,222655888083971
0,214877963471639
0,214518412436978
0,213109722322943
0,210841329989018
0,208123611154621
0,221648333416425
0,210689335738279
0,212765955751113
0,215019670765664
0,212191866408999
0,209700881080674
0,21023675276636
0,212201567553534
0,207089971760269
0,212114559628866
0,218060063300939
0,208386536356245
0,210681547193753
0,208645607272782
0,21475322508596
0,205329230534722
0,209512942211988
0,206585323731461
0,210445999120368
0,207525957994889
0,209835113530119
0,209363990881931
0,20732563887445
0,204533727319008
0,210766398235469
0,204267779229259
0,210157622832819
0,209315954100735
0,205444784505582
0,219083456910555
0,206951954777492
0,208390894874053
0,205938769021345
0,210099496479192
0,209851253474978
0,203296380726139
0,214900572500551
0,205362006383973
0,208807605907808
0,206462034885328
0,206375702506284
0,206641462928396
0,209062853561601
0,211119574388133
0,206750410539953
0,224332626460121
0,209591237524409
0,213155138219393
0,207693181756742
0,205799640801477
0,207409608629323
0,207413918218014
0,205900097265131
0,205772077444081
0,200235406260362
0,209848588641443
0,204541099789472
0,208073862952144
0,204281487217113
0,203451021453867
0,208188509119504
0,207702939988029
0,204812488343331
0,206301147934761
0,204864659475793
0,200639482684614
0,203371386532877
0,227437621095545
0,204454494408437
0,205581626882317
0,204412886702791
0,208164632049428
0,202067342788787
0,203348529930141
0,207969541418305
0,204812013796525
0,206586328065821
0,205644979289465
0,20771258479247
0,202486855815208
0,208998682122218
0,209521725075434
0,207158002645846
0,206494740627184
0,200128816258607
0,216197700754304
0,205537441685151
0,206877972039301
0,205636175782854
0,208626816702487
0,20126200738771
0,207655931471902
0,202548971136188
0,204917479424799
0,202688776679871
0,205828621008245
0,206307514634955
0,205967059848152
0,206315773736852
0,203752915298292
0,202403810474034
0,207395473451971
0,20413779431382
0,201895863092265
0,202121699326056
0,203088516101583
0,205477974879044
0,208416846443717
0,205335545143564
0,204795518438771
0,201453100572127
0,205083657274107
0,209908983092674
0,205156013210684
0,202409229137495
0,20531122185447
0,200691805677975
0,202888772616127
0,199236470633535
0,205270152586301
0,206180971466539
0,204793788191643
0,200858694552703
0,204842069386865
0,198551925433241
0,204390990286682
0,203609238143402
0,203623454704816
0,20387386829373
0,203589154021003
0,201456690574453
0,2038290361116
0,200244214341501
0,202326370831117
0,205880653179695
0,204213473211904
0,205646738493282
0,202324801279726
0,203228615275522
0,200373952158516
0,208056092155568
0,203673428538838
0,198187941500643
0,201153545758759
0,197029734529975
0,20181054841628
0,203115394178504
0,199891549298891
0,203466482347949
0,1981985961709
0,203087963175881
0,200214259657211
0,199688423820445
0,199106461752165
0,202049714678735
0,200787398093556
0,195476529942903
0,197675075925575
0,195297842551493
0,198281538862751
0,202751754695638
0,200392058737745
0,197576160089974
0,196830839147101
0,200612656640992
0,197944951363617
0,196223787146605
0,19844127765485
0,199771246393449
0,197718506456958
0,199882046039388
0,19887001046381
0,199937525024278
0,198730153365836
0,201057653691247
0,199952749649952
0,198391589792766
0,195571597434049
0,19826182785568
0,197626592314748
0,197017818558286
0,198199174049151
0,196081396714157
0,196610827286595
0,19981791918922
0,192139010269795
0,195321002978331
0,197671409917038
0,197355509564039
0,19716279110668
0,196342612846865
0,197550980918254
0,195307361113402
0,19739301075158
0,195060260503276
0,19975405884392
0,198923507666875
0,196377544031153
0,196934247591355
0,19652035606742
0,196379897720681
0,195831075790777
0,1961535519093
0,199888987417094
0,196064122887674
0,196897129023558
0,197426042564199
0,199456207225544
0,194415974361969
0,195321878749734
0,19493695462845
0,194409160744212
0,194489074401362
0,197479341921532
0,19516850290242
0,194173204362443
0,193292469067506
0,19374581801593
0,195573024447775
0,194806100493613
0,191329073455253
0,195154499201734
0,195130650207113
0,194593539232684
0,192974482045423
0,19438166328324
0,194556625066987
0,196799745333771
0,193393004817624
0,193876397224516
0,19263348512902
0,193073735173206
0,192193356116193
0,19464309881413
0,191260419582245
0,192814876975803
0,194093614377304
0,192204896224152
0,191502745727428
0,191589503641811
0,190519181862866
0,196343303944056
0,19398643955491
0,192766579468256
0,192864280738516
0,194387330415992
0,192853466393253
0,194250048941671
0,19210706516146
0,195656977918608
0,1942010362925
0,193782265158601
0,193521820549592
0,191948008069155
0,194181396855428
0,195689038205757
0,194511730147612
0,192428502018587
0,193611769926226
0,193567302516912
0,192667585604159
0,194015703675479
0,195366832491544
0,196466728544836
0,192839483230852
0,192245023465969
0,192483345710239
0,195092285295446
0,194220608601064
0,191387180151337
0,190234521108483
0,19250123564424
0,192893197805579
0,197165083886114
0,191529091872944
0,189985885197682
0,191842701259928
0,193263059276937
0,190527902387514
0,191742098263691
0,192754809979642
0,191159325591352
0,192099935914318
0,189950849471352
0,190643118360318
0,190887464150471
0,192600857269664
0,192550764680367
0,192361482161697
0,191943795302591
0,190465007772445
0,19308240124761
0,189300941872149
0,190403896604346
0,192602580592663
0,192033314220525
0,189528934564145
0,190011758431935
0,189140738601236
0,191126291805084
0,190212805168175
0,190915743247964
0,189234080497135
0,189490612676274
0,190342392756714
0,18929685576985
0,189432492749345
0,189189990377068
0,18953129767571
0,190201398611983
0,186633623798436
0,188445611301502
0,19007226672612
0,190280323864451
0,187301630015268
0,185985068711679
0,187573703030312
0,187943663825338
0,188239451184952
0,186200803257515
0,187633619853877
0,187955838416898
0,186965510810963
0,187655922522838
0,186531009366253
0,188971026053537
0,184984084627479
0,187673386181941
0,185354059470246
0,184875055534972
0,187245222019199
0,185745009409104
0,185554824476609
0,186040929549081
0,186624373050308
0,185017889160707
0,184864576801539
0,184832009649103
0,184304998031459
0,186032369351465
0,186761066435887
0,185927816403991
0,184870618377936
0,186202965605776
0,18556246114303
0,187414043709749
0,186159120972831
0,18878993770229
0,189108518727356
0,189372273470062
0,189730042923293
0,190050579070573
0,19169444110569
0,192185930766314
0,193675168528946
0,193867922979997
0,193298305453931
0,195701599347697
0,197633222257843
0,198136006351437
0,199114732270076
0,201578082344786
0,202149087511394
0,202484293705449
0,201633491175172
0,200859178592958
0,202561702120047
0,203768769746328
0,20287250832791
0,200553674973082
0,201432690214802
0,201812696205902
0,200894828169831
0,202414337942814
0,201956638287939
0,200474898970555
0,199567247946919
0,200363450727409
0,201576589747839
0,201138581642865
0,199874010824416
0,199247754274891
0,200225979645868
0,198096715004086
0,198686763701939
0,200702270437037
0,202076686975303
0,201360218935438
0,198830165991539
0,198844935580132
0,199742000810235
0,201267343431401
0,201100103229157
0,202069195163803
0,202677131791111
0,202219408647656
0,201752732675077
0,203219517307196
0,204294691113197
0,206475106587187
0,20702440325094
0,206853385081339
0,20935969953409
0,209966259679945
0,210310607947485
0,211902844694695
0,21291124368116
0,212944807326694
0,212269556886393
0,212192582559258
0,211552492938969
0,213911873288118
0,2128290906337
0,211547340586424
0,209650745898917
0,211071197814797
0,207957453206193
0,208335108015237
0,209298464138
0,208112287536458
0,210587641705378
0,209924055511494
0,209264053177055
0,211143316076918
0,210679879275991
0,211535876298668
0,213285164087128
0,216588574157005
0,21493640270812
0,216060766317233
0,217480671919287
0,218186856938648
0,219653486185352
0,220413090518165
0,222293262689088
0,221997983349297
0,224321110175669
0,224641121804294
0,225894288236028
0,225357431075865
0,224319642815573
0,227282583827142
0,230785262872206
0,230398060168486
0,230502702761012
0,232178607596392
0,234593337824071
0,23391002796951
0,238640663877566
0,241638192478794
0,238659459467032
0,239420480617407
0,243204604152536
0,242728321002548
0,241998257319558
0,244250481400192
0,240817459132398
0,242769228714271
0,246004142263255
0,242817525162855
0,241214621222694
0,240275513442978
0,238443543494267
0,239976265634782
0,239351251247139
0,233921120450223
0,234693144757536
0,234361767105843
0,23265282717652
0,231650472890755
0,23198249451323
0,235518122312849
0,234363614041905
0,233136574120538
0,231718231494964
0,23418256587659
0,231609588731842
0,232049009829328
0,234484204200044
0,23492425547806
0,237158000420432
0,236829742917055
0,23977290157754
0,238119991575945
0,241017253874079
0,243752530392126
0,240937237901575
0,239728045164135
0,239513165460656
0,244720758043708
0,242111304999864
0,241734099261069
0,243206059442001
0,242136123029166
0,241745534254598
0,240928634576112
0,239535053080228
0,244052076992151
0,240812427639047
0,240893335145434
0,240828362883536
0,240184614404572
0,242975600742859
0,241291022342819
0,243580193667176
0,241799691218887
0,241470018356492
0,241204697577874
0,238833802191871
0,238137281112709
0,237497336678158
0,237644581145847
0,241014262816132
0,240145115135765
0,236758927199633
0,238536274766945
0,235032555495509
0,236691175298102
0,233370574405061
0,233180354364814
0,230851396775442
0,231081732526285
0,22813882989892
0,226781934958284
0,223569246224185
0,224445536660334
0,224093244125143
0,221830542595863
0,223688827055865
0,224177030809963
0,219097804031463
0,220096306156358
0,224006490238371
0,223519523492156
0,225426215414011
0,22332654847033
0,225928156649216
0,224342338170886
0,227859763680742
0,229388393675342
0,228477130339824
0,227298317624387
0,229208205415104
0,229206693569496
0,228564336028386
0,229815648086667
0,22693224326621
0,227520565590297
0,228624285791296
0,226782215284967
0,229972661673442
0,23046440075776
0,227648119178308
0,226655536985721
0,226904046614887
0,22507196746417
0,230061365999726
0,229135678398994
0,227383588873979
0,229233123685183
0,231988105690833
0,22925597250409
0,227981301077078
0,232758964305277
0,229568018805548
0,229307955208681
0,23318210271546
0,232638300116743
0,228520994737299
0,234184810828329
0,233382600166158
0,23361970273448
0,238452416136247
0,236939808834191
0,239017955359472
0,235931837739193
0,238345567021221
0,239273791958316
0,241511287045213
0,245317520874706
0,244072632415418
0,241996943229693
0,244683528044772
0,243805893907439
0,244849828768939
0,247633731077159
0,249415990248469
0,246770010056233
0,247790385452892
0,250857040577542
0,254784726403828
0,255030679560096
0,257931612313626
0,259199342788567
0,25835848874933
0,257730348758322
0,262935214859529
0,263065136129122
0,259904360176857
0,263265519696233
0,263988983850334
0,266921881018457
0,269961039295402
0,26974611387844
0,269947884867837
0,269853449624348
0,273113675444855
0,267662618731407
0,271622066925846
0,277682126004951
0,279948985649097
0,282883110572744
0,284401810203341
0,283980990090557
0,285084912078012
0,286700339864528
0,286256446212553
0,289116033199951
0,289165346250601
0,291471651274641
0,293518667796833
0,293844044933461
0,29644540566006
0,300769558728367
0,301075152725017
0,304731320870936
0,309403596614738
0,308465095168968
0,311528565698665
0,310893724989304
0,308740010008878
0,312977996878878
0,316497316909563
0,321455501391013
0,322014940193541
0,322989617204261
0,325951564281846
0,331016240298825
0,333121453696127
0,329362104457366
0,328907037876348
0,332098353240179
0,337554287744601
0,34333404246329
0,344431261715742
0,347669450260833
0,355024451737895
0,352275043325101
0,355717236274693
0,360329113282764
0,361679064627441
0,359089839746244
0,354590922609933
0,359201819418401
0,371956446189506
0,373084042576348
0,373163833329096
0,374549946431073
0,378731551350108
0,383782411405893
0,385995854052048
0,384503286711687
0,390962702560742
0,388669812835382
0,382493847705629
0,392570676801457
0,400836181473766
0,405935760884817
0,405597298148012
0,4103806358987
0,414611927401293
0,420680810776847
0,422692357358469
0,413316058248744
0,421985656826287
0,417908370731403
0,42080956760245
0,421821771446357
0,4261931629373
0,432948537087543
0,438004390697276
0,442683491306706
0,444315352403077
0,445342468837709
0,45188770430649
0,449301108403527
0,450064072824343
0,453739800489483
0,464592882891767
0,46482048389446
0,466649643031857
0,472993766854575
0,46977661762477
0,474508107770056
0,479392011902721
0,47344151961995
0,482355381819125
0,486648086383663
0,485654816791322
0,483378731452348
0,506299291524104
0,501546074508215
0,502618711450125
0,521878345481546
0,523883907596401
0,512288565166144
0,503514589178407
0,521480538861034
0,528458043365564
0,523164817592813
0,528216610213832
0,54092698247213
0,543901249920198
0,541569186383285
0,552963558028324
0,548535350707389
0,555524184857779
0,570625484943732
0,549846220358502
0,550375334570194
0,558022545617476
0,567350587073321
0,586081072286122
0,57645754045935
0,590081823448647
0,578746404056828
0,593558818596664
0,587036585264297
0,587820099284592
0,600654710700768
0,582389508540178
0,607453390144638
0,624006923823289
0,604993330367646
0,594001824332501
0,606080031255993
0,610295569291999
0,610535542398911
0,610625709329224
0,619448725035283
0,637686235210438
0,659863502392824
0,652622082760564
0,642137907031347
0,681928740569671
0,669937265123412
0,667536950413685
0,666894271319055
0,679151099236179
0,663979755720735
0,648020939973982
0,674717572188369
0,694387516193257
0,684265996849891
0,687848102334076
0,675418744677377
0,690454098171311
0,702077976092845
0,698593807540923
0,703595699274804
0,717433543395866
0,727535099250322
0,711777118158313
0,719661709129344
0,728311985553497
0,725946090383418
0,74404994929401
0,745498897461373
0,736581435858915
0,716616343748826
0,742722186577576
0,727124176127457
0,741976164208504
0,744698205357726
0,78535410233974
0,748475100200663
0,728897218724688
0,748141382927602
0,762022555635708
0,768824582785129
0,779702116464065
0,77831394830239
0,757884727979865
0,804456300528503
0,808413184502801
0,818940518084781
0,858557683815141
0,833162183779248
0,832098126472733
0,868241721039769
0,839421163751264
0,797865405584937
0,828996994044669
0,838461462335208
0,841181309777241
0,818380978035649
0,872849908546168
0,893992987312374
0,803841185168824
0,861863854410848
0,906922611558539
0,849680604197435
0,837927448528093
0,855619272250212
0,868751103017109
0,900651833530342
0,974652146427199
0,863908023213118
0,865869255155938
0,978526177140039
0,98106788283573
0,939830697648132
0,87575459907833
0,905806690893131
0,953723368984477
0,90305146238065
0,900203865731302
0,929212646452787
0,916542517191589
0,866744064531842
0,898767633889549
0,922879312028399
1,01454605260642
1,00320425697245
0,964745393829912
0,940797663118067
0,941123202349101
1,00064340219953
1,01520678448025
1,05737787268516
1,16495546881112
1,04746634864919
1,00243653144451
0,997031557736002
1,01767177906258
1,04827592854991
1,05218645629228
1,10026145747077
0,92101423992378
0,917856805893033
1,08418110041465
0,964369650747821
0,977353382321708
1,15515521063344
1,12864523775396
1,07190640961176
1,06716525199684
1,11947487544707
1,17414156849312
1,07758706340002
1,0094313126502
1,08404781502403
1,12086373458725
1,29648641886297
1,11892132754554
1,11650953479858
1,49594865547649
1,26718314623762
1,14090725389352
1,32570614574318
1,49542058261936
1,19268292171534
1,03187835666738
1,22176705482664
1,10793047445933
1,0065458951121
1,3080819741595
1,65680528396797
1,42053952301434
1,26846712760372
1,45538249865419
1,49663279378453
1,43625934762536
1,17657116105005
1,34790809694419
1,49243103306643
1,28019681912504
2,37793836103152
5
1,24429751786351
1,15747204191658
2,77413459237098
1,43985311591589
2,27240298940471
1,35440482454194
1,00976761047222
0,981593839027645
1,48124514397665
2,54890727113344
1,18282150131859
1,24357671810425
5
5
1,18553849289105
5
5
1,68187446285512
5
5
5
5
5
5
5
5
5
5
2,05244091366653
1,32615846125415
1,28614824000014
5
1,86085431810172
