3596
4000,36533379555
650,420452594757
1
2
2
0,0152376247211019
0,0143172029381749
0,0190063778698113
0,0121151128909678
0,0156340939233106
0,0203693388999618
0,0132056283524353
0,0181037727254689
0,0122840967080398
0,0187565248428575
0,0196015526334049
0,0141766468960845
0,0108388186717475
0,0109861391464858
0,0140424004382712
0,0203840999914719
0,0187092227788081
0,0164115363567577
0,0128979252545423
0,0175243716476098
0,00781798387579005
0,00668546367832758
0,0140428108104976
0,015782050037106
0,0157625749671656
0,0202631830641214
0,0110131860149471
0,0147069883936244
0,0155308321602359
0,0146174003646892
0,0126347506330927
0,0166486258806771
0,0208962108969846
0,020009658798002
0,0180524064177659
0,0120238013946399
0,00776369181027844
0,00883956371903782
0,0143162064354816
0,0128945735318726
0,0122153298520522
0,0193463600279591
0,0121225427641134
0,015328305821871
0,0149706922598026
0,0215840905413319
0,0150060714736939
0,0169290838905837
0,0205174716609699
0,0175772905288997
0,0217792832667486
0,0150718645488672
0,0161039747872294
0,0198002891498857
0,0171314519869472
0,0219545120356237
0,0147897443290626
0,0157736337506174
0,015343593877181
0,0193815599515489
0,0159799296956021
0,0165210660517958
0,0179256885305367
0,0114275742164627
0,0183529111729906
0,0212403325400678
0,0119656758809077
0,0160045733232205
0,0135738805474609
0,0123531652989659
0,0167057814658489
0,0124698058080707
0,0117494402397206
0,0147369523359117
0,0182823920729553
0,0193578451591056
0,0109238548609371
0,023123827318661
0,0151500099890754
0,0146121886656231
0,0228248553135558
0,0187386956656146
0,0183118894462134
0,018448643861217
0,021662952321872
0,0136432529682012
0,00894527382193228
0,0146933822041306
0,00876922183397483
0,0127271614939623
0,0110489856039225
0,0195179699502548
0,0151178180087399
0,01579000940981
0,0174503043988662
0,0151182024959439
0,0179353072985774
0,0184065824118107
0,021012693250589
0,0204678543752713
0,0133837892235751
0,0168252014696354
0,0213535045012471
0,0141775017261742
0,0181906778373092
0,014860420124488
0,0140563439611878
0,0132203069353779
0,0116801644111208
0,0205943169223524
0,0167437028533202
0,00983651043869647
0,0115056166805707
0,022539264734121
0,0229946135224189
0,02068897871403
0,0148052493424266
0,0196436027260956
0,0121306224816827
0,0179975308369467
0,0153288110609096
0,0113550356461844
0,00473578865889835
0,00894393221217178
0,0138543396027563
0,0140931321801426
0,0193192900775159
0,0117745445455765
0,0133362979846449
0,0223085221448772
0,0171240417968994
0,0171479942327698
0,0170936156025632
0,0168384768624577
0,0266387339445363
0,021809804102993
0,0187248577757437
0,011989032143361
0,0122320228194784
0,0199962793047625
0,0106584200263322
0,0136152251178711
0,0121263459923841
0,0201933348716577
0,0186410807097762
0,0126464132181221
0,0213140956630481
0,0192098151921801
0,0147435352335629
0,0130654290633324
0,0167436312595511
0,0121782862138096
0,012462574933979
0,021834582258083
0,0109979719130957
0,0211819052068653
0,0237723670080194
0,0172425813509732
0,0242984916858423
0,0146860010959893
0,0116002308553151
0,0148608112943536
0,0167416761974981
0,0166680352110871
0,0182250518138333
0,0130066411194276
0,00644919531754691
0,0166123132087865
0,0229074337317874
0,0202079375839797
0,0190794140749668
0,0177372051479149
0,0166695952506065
0,0296218817884722
0,0184498447734732
0,0143750233703545
0,0151259960404627
0,0212132836472788
0,0180015156998702
0,0114691499124911
0,0172392027204494
0,019856890243059
0,0209683875698642
0,0160295582983748
0,0181734963543309
0,0168993524265092
0,018159992139693
0,0222754642843353
0,0181824698896216
0,0214758111442997
0,0286063191987092
0,023234706249534
0,0184659761799835
0,0161764434178391
0,0161437341251497
0,0213865830420837
0,0262501237153696
0,0143812840173906
0,0149877772393752
0,019082841771651
0,0205576680421881
0,0132637595058148
0,0177080895090101
0,0235362996942754
0,0206808861628591
0,023452226335077
0,0238518397620891
0,0146072448137978
0,0154790481808601
0,0204179580030097
0,0252817532253201
0,0247815632570153
0,0166599112389719
0,0248368171779471
0,0204509109388517
0,0192735643919854
0,0139436086501586
0,0179952315606285
0,0184484838743853
0,0174488862806807
0,0250228717598189
0,024365339565268
0,0235341740814027
0,0204797267398377
0,0174970054524043
0,0207953696981532
0,0232579911785585
0,0251359243667022
0,0235039861634331
0,0187519859338719
0,0179189841194766
0,0234970707141597
0,0227678086820844
0,0202833537522942
0,0210487485503255
0,0237696415054037
0,0245092182790495
0,0242397499393165
0,0241066848391137
0,0198437706464389
0,0261625893835433
0,0242232023810529
0,0207473609975817
0,0197219577920981
0,0244689229342998
0,0231312392001136
0,0196073326021876
0,0211149576122345
0,0240655499036882
0,0232780334054348
0,0234137501079537
0,0247382619050728
0,026406803750421
0,0255383887486872
0,0265490628638046
0,0268670346342286
0,028170007919593
0,0252950018814008
0,0241764327066826
0,0317705391846943
0,026075383775494
0,0249228225218598
0,0324920999247246
0,0267899160036854
0,0239753263085401
0,0342523706935001
0,0352851455834356
0,0376473854719019
0,0259445586784039
0,0223874986078638
0,0284242734213878
0,028612943805585
0,0166842994314525
0,0169767204003406
0,0260864083479216
0,0314112609847927
0,034791751639492
0,0330578194331409
0,0272885628793639
0,0320703493791372
0,0348545371785624
0,0301930016681231
0,0285595021424688
0,0325778328643762
0,0344196384543572
0,0299741595463463
0,0266100896483091
0,0331355245660774
0,0353125232659917
0,0356630749570295
0,0362318031568373
0,0370164053934621
0,0305862953755796
0,036020769804441
0,0350531534573267
0,0286439628509151
0,0368132594229311
0,0394626877102256
0,0324080831119688
0,0449048939226449
0,0404748001594799
0,0414947283301425
0,0366440762313301
0,0397915286325627
0,0469349543462618
0,0424704940686033
0,0462745383805953
0,0553840561210262
0,0493986148815643
0,0421020527635488
0,0454242890505883
0,0420444085222624
0,0514456937446404
0,0509681852848468
0,0501501837821989
0,0542274812087639
0,0437160541298598
0,0552806591446796
0,0589426942088367
0,0510110224459716
0,0540340648846137
0,0556003505383637
0,0595625247578506
0,0621706857017083
0,0614418291241955
0,0624993855253381
0,0583755384188815
0,0619090190306185
0,074873282888053
0,080156580370263
0,0783585583272513
0,0711425205174084
0,067295235198569
0,0726418078742849
0,0811580497183867
0,0840990468367089
0,0817230144686222
0,0825417908395024
0,0844605230913482
0,0886884203604124
0,0947529523404224
0,100039870122315
0,097977402062368
0,0963761197032954
0,102853180275477
0,110976121249935
0,11509544466534
0,110438080341787
0,111064174450426
0,117257502658686
0,117588447858779
0,130528064531475
0,134135369730801
0,134241732195634
0,138936012159886
0,129901178030036
0,13092178449004
0,1407270309272
0,143962885172355
0,14632562476347
0,149058990378552
0,157135182232205
0,166442831401826
0,16867046677204
0,170124730763458
0,172577875232953
0,189576306333322
0,184211166230261
0,178862562664797
0,18491430049118
0,186163439672054
0,193914147992917
0,209976931464961
0,201959853226736
0,200890179315318
0,20237522111683
0,206043197326738
0,209356457145518
0,217548049820744
0,211620958706076
0,21873227755423
0,222514383163921
0,226293794663296
0,228701146033321
0,237067795758598
0,241172105515455
0,238360701544511
0,244839565683019
0,258551612107789
0,249778016888429
0,256547284580061
0,260354264436402
0,257809133343918
0,258757773973425
0,26973214640243
0,28420755907293
0,299913174867619
0,284465350189589
0,263856686108595
0,270906963030808
0,278378352427459
0,285569245466147
0,295129149636035
0,294779493610241
0,298675292213482
0,303999258193182
0,323621196829026
0,306595776208155
0,313612535934634
0,320176079540607
0,30412360015507
0,305637930048045
0,32259666597865
0,329677325567227
0,32522183079743
0,31973213602097
0,320649226978345
0,325048738573543
0,34535107634013
0,339532242951726
0,336047011566237
0,336210756392664
0,340296833901484
0,348052738755067
0,360396972664488
0,348841391073584
0,366647783521668
0,35732463514273
0,361699125470925
0,35413283658254
0,365737474551711
0,37181613373772
0,380450660774486
0,37552360375184
0,388695162717441
0,373204613666297
0,373178097734535
0,369496779135295
0,38198144247668
0,39621445502009
0,41350507195141
0,408879262844589
0,391436564091417
0,385546071465732
0,402271718037663
0,402206449586139
0,41434417153602
0,407270541221891
0,408748810075168
0,419755460645061
0,42529944272225
0,42426833303372
0,428329497613086
0,422866238183138
0,432879086155215
0,430974410701041
0,444919641131172
0,432538853108794
0,45682563546253
0,43498350049889
0,463328608208692
0,465401914068583
0,483906845908881
0,470193130949942
0,47417819785463
0,461304298400189
0,458609014210116
0,475157442735104
0,487899514176164
0,455291890578035
0,478467374411019
0,479793256928259
0,478247211823556
0,470839649649508
0,493661314775034
0,504423744196748
0,474817486179425
0,507435180790753
0,508780523456435
0,509698138405179
0,518351811101243
0,51594693846341
0,528289632949812
0,50796297048113
0,522904691894782
0,512775396224315
0,532506366350901
0,515435804499626
0,55031624993811
0,542909640266881
0,556997196328882
0,530586973258193
0,542538828772243
0,539627626041608
0,553059585880872
0,554889510112701
0,559462801148405
0,528013082776105
0,585220079402647
0,599669121901364
0,579108937166161
0,569772610947759
0,597460142118288
0,570106771924192
0,585208846519286
0,562122649005696
0,598386151505578
0,607677981377418
0,602398089544113
0,588971382385513
0,628689766752678
0,591133527490235
0,617067525114295
0,587762212057393
0,619264626796514
0,593816669100867
0,606195699794799
0,633267979160808
0,649508242124215
0,625719877984536
0,655828382462153
0,635544173031997
0,648273536306456
0,671582858824673
0,662282238414637
0,623643939906586
0,670966577719191
0,66581861647454
0,69453930024749
0,674831428482723
0,669173571604092
0,650608357317797
0,704175792428567
0,657258482527129
0,658839737119592
0,68018716165134
0,689527544916631
0,666848349133815
0,708769753739091
0,717770070001959
0,722571314484386
0,709390525574182
0,731130368199136
0,739741872761703
0,738904334618671
0,720822998336454
0,752770695267213
0,686852512721902
0,737150731946177
0,738394173117345
0,751807566599423
0,710805241146988
0,786334554331939
0,73485025120472
0,790936788272172
0,755537275678796
0,758410520050582
0,738695995022267
0,785436819290568
0,751417096888457
0,778661123735162
0,783622618646362
0,813781148881822
0,740802221176652
0,802970433669112
0,764587602957994
0,777536295601267
0,802949287174689
0,786400319971021
0,763402494940778
0,821851662822662
0,789743114545186
0,837131795044148
0,799647287438477
0,864790871392179
0,841209930860859
0,87852219964487
0,798965204396457
0,815853939175032
0,81962970304898
0,9013400872291
0,84430593749106
0,831067025449905
0,834998090821855
0,884398196632875
0,813416296401786
0,87774151204843
0,886134825632526
0,826096353027149
0,832183134312436
0,861746111227157
0,844342792416557
0,84649241265718
0,843535550548812
0,888281657793292
0,863646004012361
0,933769106762264
0,877745805319092
0,933361526789378
0,869192893083749
0,912426556009903
0,87771228984997
0,922590204146952
0,92828838824693
0,93478992154038
0,909250749716715
0,948970223817573
0,891365882454819
0,914206899345203
0,848582773363906
0,957160802329742
0,915279183811533
0,915225398967131
0,91837688165647
0,978554690284294
0,954742499657814
1,01656576068339
0,977005732883388
1,00916658452472
0,973980629139793
0,965785428280136
0,980213361674736
1,01761948137766
0,944248609996385
1,01528439370263
0,974948872959607
0,986176558976064
0,915807991909857
1,00128785702135
0,943691187199796
0,995406720056851
0,917903406554352
1,01783208872641
0,987094860300558
1,08967827905171
0,972515032354491
1,00513830491287
0,985458462987642
1,02565808505531
0,966219207111318
1,01717583716061
1,00741134855469
1,0602365539042
1,01942845780088
1,05535461955688
1,01497006853892
1,07115929355352
1,03148360359198
1,08195858732428
1,0134442431955
1,07270399740515
0,990094857724971
1,04652488969657
0,967743710062171
1,06358866595635
1,01155359541153
1,07214060585748
1,02017569280178
1,0698940779181
1,07210866227766
1,12378942504279
1,00877309723124
1,08997401246496
1,05091566940264
1,10264079837304
1,06773653526824
1,09263086024309
1,09353376598657
1,11630095204998
1,03899596628128
1,13245786339974
0,998584309502792
1,09693605790792
1,11947498737345
1,05830788507861
1,04284802934317
1,21593658727971
1,08263179365994
1,07134353574902
1,07454760394644
1,1198441439962
1,07282689414242
1,13820650244331
1,06772469389318
1,18569396269096
1,10083670414886
1,15914266045128
1,10713904279937
1,107896903107
1,0438839765682
1,18861463486495
1,07527120260598
1,09925461154019
1,07448355759021
1,13175848385955
1,02118015906056
1,13333278398813
1,0745435583559
1,1597618850477
1,087712185257
1,10214759186766
1,10047056577682
1,18309082838396
1,03496823278482
1,13553697202179
1,07826103287782
1,11676965826612
1,10422831515198
1,10243693483521
1,01930626305129
1,16962844183861
1,13869106576834
1,15253726850384
1,0955111502121
1,20706015135355
1,08622304404222
1,09587906657597
1,03990100462979
1,14483988613615
1,04409303444613
1,15581861807182
1,08112188185139
1,17603275096909
1,09287686305099
1,13898589368457
1,06771614562643
1,10363499413006
1,07868496309555
1,18377546865609
1,11715304363269
1,09225487214764
1,12903763577932
1,15341807962554
1,06872730337662
1,08070167510796
1,0898679810498
1,0709430118855
1,04713114784679
1,16487813246888
1,04149309917791
1,12121024590393
1,06622869474354
1,0967978091358
1,05173482983036
1,11627999667866
1,16819461575457
1,09389191643352
1,06553669165235
1,131443056271
1,08467171145384
1,14141788063359
1,04727870813799
1,10874402762134
1,08365874975508
1,10835871995668
1,08685961791233
1,15011336477118
1,06152043551612
1,10503385893835
1,00256297761366
1,09726679268148
1,08856808981479
1,1385185021025
1,06164840426135
1,1817011996314
1,07508916095575
1,14918644453017
1,08067012027661
1,11180905584222
1,08402227939155
1,1226058329085
1,09268529996756
1,14590588877782
1,07630097059358
1,08372226186704
1,01983279030072
1,1237080597077
1,04184426171711
1,11907178799442
1,06203753914735
1,11929340045836
1,05015324107383
1,08782409262135
1,04467973105208
1,11912788461969
1,0874003935912
1,09024290495173
1,05265059076092
1,1662061392935
1,06987188564508
1,11994024136106
1,06725825559006
1,11973574133865
1,06446964626422
1,05566925420336
1,03210002964288
1,12587084470588
1,06611386099103
1,12162231747171
1,05147805158077
1,14872227988457
1,10766572975353
1,15542063903172
0,969479740708205
1,1610631577944
1,06089192139892
1,10626150259662
1,07458146756638
1,1571217954622
1,02585513874037
1,11697689521817
1,06440847280119
1,10743259242818
1,07552731347509
1,10087229188382
1,03872344061441
1,10934951269601
1,04642131345919
1,07520095272787
1,07950111545508
1,11795612398294
1,05184007155322
1,10394014222448
1,03625900998587
1,10003054277691
1,09326528777987
1,05584215737719
1,02838724522096
1,07116532362556
1,04520905400995
1,06211452082202
0,986861763809503
1,05476077893911
1,08377101449361
1,07795734644865
1,04849262137978
1,0422571589893
1,03312859664217
1,02528669921619
1,0100711876698
1,02654760249187
1,00957128948753
1,05010409384445
1,01198048510504
1,07354930184204
1,03776164373721
1,01252447243144
1,01064784385219
1,0158874366568
0,990628827986689
1,01214653754567
1,00180230168328
1,00099483970307
0,990857618906177
1,02002591564753
0,996769775322541
1,03705081838016
0,976717526866448
0,996174989900781
0,968584095548612
1,00254726249223
0,957499996775691
0,987464328154821
0,959674683258654
0,96713868660309
0,921926965573461
0,969163074988569
0,925336363945983
0,973879303658479
0,946596582516598
0,97710322267748
0,933162568789953
0,922496295761836
0,931520895707473
0,948355027482145
0,943285813020056
0,935334783141864
0,889686757865536
0,918261506190305
0,919739130617595
0,92975967116997
0,902343020696118
0,939807916382839
0,879546054902612
0,901933434344813
0,866467497099861
0,909813928541707
0,879234243571009
0,882914213861558
0,843757754654801
0,889060876653518
0,852468787428532
0,920859406119444
0,852035639606388
0,893744328737827
0,821184533618748
0,860455684028387
0,828242394413079
0,841386239738696
0,804641287713144
0,840786396166186
0,803652149515906
0,83732581057217
0,802904686705332
0,812361828631718
0,778436898264551
0,826928878755865
0,792412621201754
0,81174160115462
0,790408842239838
0,790444458386879
0,758300101376615
0,799952617137239
0,752659805231275
0,769254449157284
0,746312958226969
0,768403116169208
0,77394063575428
0,773815066285834
0,724143755463139
0,74276453554976
0,724987510709251
0,731943291105942
0,720006009741101
0,731289211740912
0,736654910114026
0,748413393102509
0,715748523595236
0,710293992743878
0,706137898210585
0,711346981122388
0,690951594964439
0,719480120941501
0,688649018257281
0,68986240100167
0,653036369478907
0,679526213873872
0,673628070124533
0,687291733841413
0,649275993780024
0,665453966324809
0,640470039412152
0,653108171459637
0,64571831532335
0,665761004890811
0,630676037223985
0,639797793071428
0,623113586167553
0,637994738825276
0,613638467556994
0,642147174329955
0,610064030945144
0,622677559431576
0,609806044025105
0,617369497176414
0,589094017978453
0,600508580045771
0,594484983389156
0,602892290231394
0,589632598334372
0,58835722116372
0,568712586006967
0,578210735891882
0,565280469723655
0,563612227303918
0,561701467888589
0,565588361334335
0,537563476418913
0,5677790827156
0,543194923346166
0,56252897039969
0,556009846098712
0,547456526467438
0,539664367382344
0,537420905342269
0,530725927970215
0,534392142429605
0,518183195966285
0,508866305277429
0,513871404943221
0,518327676845435
0,5037132238562
0,502372742634564
0,494344698432118
0,502767453901831
0,492324721321648
0,495461877986207
0,480828587859921
0,498531235478332
0,478205106940943
0,484687401709768
0,469780187035132
0,473571319817853
0,470278466797054
0,469314154571337
0,455210136913928
0,464911481452727
0,462566678183224
0,456330557440397
0,449248669735574
0,462696338581268
0,441890761118343
0,440998673498366
0,431238699405795
0,443710802788706
0,423963016068586
0,441301005157427
0,429625517526429
0,421583259068202
0,418148118222582
0,418935828548129
0,409464378565532
0,410107753850026
0,411323353691262
0,409093449117282
0,406639730680248
0,405480995467676
0,394647019583835
0,403184601708832
0,397721347159928
0,394511866371672
0,387571490458801
0,389657497319844
0,384863848376601
0,38425241078738
0,374802239477803
0,38462553721222
0,372442189123594
0,374528916056628
0,357510679618064
0,375634791542271
0,36552855112969
0,362908462681847
0,358213990871454
0,35747682200329
0,348605844497367
0,355385584635735
0,351892207721347
0,345678545487177
0,345085137847858
0,350581269375296
0,334729648258995
0,334535265694689
0,335643271921591
0,331733737921405
0,332538931302341
0,330394525130372
0,32832693739461
0,336895005176221
0,3256695664647
0,321782119762026
0,32039186468114
0,316141027630831
0,31209796284763
0,316594008447048
0,310367116883063
0,304302165548648
0,293413859918829
0,31113972351968
0,299303495086697
0,301792175779712
0,295670804299772
0,297494973095386
0,290598798510801
0,291546139361307
0,282166207792953
0,288158021897812
0,283328898373524
0,289525008939592
0,280502972415931
0,283536444369287
0,281001234319225
0,272582342074408
0,262688813789029
0,273973827483668
0,268794016273103
0,272125789264824
0,262238839188861
0,270052913157766
0,266883203105707
0,265679216064174
0,258803058141091
0,251185535525193
0,255052946307651
0,255940806205062
0,251594153043187
0,249205359689839
0,253163857647568
0,248131073525274
0,252844402041816
0,24637199171531
0,24483253815704
0,247139965343894
0,241354759237934
0,238711664826032
0,236850732255483
0,236059358889753
0,233543250739189
0,227074160848095
0,23780865546728
0,230514931837683
0,225123403602384
0,228860146304258
0,230756494323628
0,228669023418255
0,220215351421576
0,223212221927625
0,218643495112788
0,219206607427256
0,216914529329326
0,215837406575812
0,210748652168041
0,215600612131116
0,210443539971759
0,205958736593188
0,205712080486861
0,20814081408848
0,204310394071539
0,207588753328592
0,199331768074032
0,194499200538227
0,196075937335399
0,197072889078173
0,196475680330199
0,196588232054612
0,19816361551788
0,195739622495221
0,196847123683624
0,191537001089431
0,190689306638065
0,187485337886975
0,191150388401429
0,18828131940612
0,18580296857013
0,185536658316735
0,182920945506953
0,185037203133747
0,183365475707829
0,18153142485511
0,185097831787693
0,181919712935102
0,175528545785327
0,177388305726571
0,174385608280809
0,175211522336126
0,178020929006463
0,17202478588892
0,170822442432617
0,1664181658078
0,167825312547703
0,166384302645115
0,165289027725475
0,166352696863471
0,158979276419275
0,163043968503621
0,157668031747547
0,16070538596339
0,15759484521435
0,152327090492991
0,1606561914188
0,157183643015033
0,156455715265806
0,158061817955275
0,15132507169727
0,155882611750206
0,150416688088932
0,153178998465034
0,147474592507058
0,153171142956388
0,153205905747771
0,150548043131436
0,149697199704204
0,146472898075897
0,145017161981754
0,147246681734121
0,144162315645462
0,14308056465194
0,142804933976349
0,141616745830798
0,142100712877793
0,142893004979943
0,14088382144881
0,137179655044553
0,136001381138743
0,142724341897643
0,137632961546041
0,13779106225247
0,137795422826254
0,137523699702349
0,13416692385508
0,133734231861079
0,13116166591573
0,130785507637792
0,130146706815534
0,134535446901996
0,132145168246166
0,124354913410412
0,12772989253433
0,128644825502273
0,126251799506999
0,131236655308007
0,123681967722802
0,124925961095911
0,125125632207018
0,126206418278915
0,121199958406769
0,12309691946217
0,118092117501629
0,118768963811941
0,117931973151627
0,119896613382629
0,11658852582495
0,114069601420916
0,115203545351893
0,114518729955658
0,115315710887941
0,113400396647555
0,113003802156398
0,112222258485015
0,10821973845078
0,113227287939117
0,110150187962965
0,114209165668724
0,111275134319944
0,112875533146983
0,110364550239745
0,113062238524634
0,106985714171023
0,103706932778913
0,105793344610813
0,109400704787713
0,101338389539028
0,104774574456616
0,106785891590918
0,109373674437003
0,10267309420601
0,102594198125419
0,101592275237494
0,100963763924435
0,104544835916172
0,102265766346898
0,103389217564835
0,0992144433573408
0,0964816958802026
0,0983738813441578
0,0991579640262698
0,096834369867334
0,0958455531332413
0,0998721512292101
0,0964882506898168
0,0965959833215739
0,0949061223034018
0,0948031395754185
0,0955196844011057
0,0952117320361511
0,093720224208467
0,092409277952939
0,0889909707147488
0,0909732042964206
0,0924066723274625
0,0930616787322719
0,0904950374716066
0,0895305200639435
0,0919398040440218
0,0904432568153919
0,0884314962897926
0,0885921226331213
0,0878116167778858
0,0887019641243832
0,0876142093868852
0,0889519579316724
0,0882526371645223
0,0855347616223198
0,0857104555483509
0,0863950106486809
0,0856069126502332
0,0873584294404348
0,0842910450603715
0,0861538435346188
0,0833304839688542
0,087870179742603
0,0833771531103949
0,0810992689215919
0,0824494190361814
0,0835139482733998
0,0845198111206076
0,0836583140998471
0,0811029724887535
0,0778827964399362
0,0811822585478822
0,0825882873566244
0,080086875260679
0,0799192729536401
0,0768459374660816
0,0780774138723343
0,0776396818370715
0,0786473042108309
0,0761044639972451
0,0783706059863236
0,0770611637572123
0,0738375608494793
0,0795224703744454
0,0781932243580932
0,0745849745605103
0,0759016302859324
0,0768754168345308
0,0779330326480056
0,0743927257282721
0,0775322120384604
0,0739032958018258
0,0716198772608663
0,0766005851751822
0,0762070646956374
0,0721978548013035
0,0745181017099231
0,0738773656312233
0,0748440166073472
0,0738747328597726
0,0724626228474396
0,0715763659708195
0,0705356649397099
0,0712544785873201
0,0709927542988834
0,0715165957995443
0,07079739594366
0,0710668987270331
0,0720065285714443
0,0717319842411522
0,0679513515969201
0,0697729724017631
0,0723094291355493
0,0680658934902387
0,065831650277541
0,0688840251905071
0,0680813076190801
0,0679897229947447
0,0684498623778564
0,0695390125050115
0,070730470510911
0,0687423424003298
0,0718333580209974
0,0672730264519567
0,069596589336362
0,0639433422359493
0,0637923492664986
0,0653015386295687
0,0645521456351376
0,0628963862576354
0,0664807510857263
0,0654450019934963
0,0671622535281747
0,0670091723219317
0,0661343815895021
0,064055425508956
0,0640302266599067
0,0647281923760873
0,0648882004041248
0,0629589439606593
0,0657813901525746
0,0624489005040721
0,063004007497952
0,0642359737437857
0,0658541489015977
0,0641074278419041
0,061908191189956
0,0620029284787898
0,0609443062741284
0,0614411666462075
0,0645941490305038
0,0660867976154303
0,0618768914147481
0,0592524690261851
0,0612429846764499
0,0626286161157168
0,0617308736891574
0,0596273670263437
0,0634206847106319
0,0609075273805905
0,0640206329436433
0,0611345829464955
0,0611189011650676
0,0620511519340356
0,0627109672896921
0,0632506143690623
0,0594655919335926
0,0614008754691011
0,0647113049377779
0,0608852478350556
0,0584303454344599
0,0600086764549641
0,0614403715536591
0,0552489113266171
0,0584798522774205
0,0580489317323706
0,0588312615781809
0,0613785796072926
0,0569658057671432
0,0550199993813794
0,0570203386948719
0,0545094999376765
0,0578602811560308
0,0588286589175069
0,0613846013134452
0,0586751695703708
0,0593516716260438
0,0578649319037126
0,0576447701456781
0,056529030134477
0,0595937331806365
0,0578891762914392
0,059912683028464
0,058766671808676
0,0572971378197022
0,0547434137040122
0,0542615011982988
0,054457699465017
0,0564886319468044
0,0581165526772028
0,0587094584223011
0,0555964523262968
0,0552018050157871
0,0573858545064788
0,0550430799218301
0,0555377085041702
0,0560380905060001
0,0551162563688605
0,0557793921842405
0,0541463963184445
0,0578068839021066
0,0555979761076521
0,0580267994785956
0,0545512899650889
0,0550947636044166
0,0547732966565184
0,056891810912984
0,054479416420841
0,0553149413660438
0,0568989843244931
0,0609028493222447
0,0529543214154297
0,0553556567125568
0,0574831038167987
0,0566770625000523
0,0560077856093797
0,0532074485507374
0,0521362126162998
0,0556758187981154
0,0522675456889278
0,052974927429275
0,0552254724019791
0,0557993628669527
0,0562228380989639
0,0529672627796705
0,0520792831835751
0,0542858040004177
0,0517680145247098
0,0527420350826486
0,0535803406161634
0,0530075604176463
0,0520909276829516
0,0519365476778141
0,0549684789422432
0,0535769757584918
0,0539713407205904
0,0557818838333865
0,0540620760519289
0,0543905481187947
0,0557537489424512
0,0533856646527329
0,0538192798442596
0,054303404371045
0,0527539480209662
0,0533969714000012
0,054960112036612
0,0533357936707005
0,0502302564068106
0,0523065634888593
0,0534192682749544
0,0535167130974471
0,051238230675162
0,0509672833534361
0,0507864436282765
0,0542176741751468
0,0545733530687211
0,0534439672039039
0,0521943310784036
0,0514202195703547
0,0517869404842222
0,0516023458450165
0,0546535130701837
0,0506406991244474
0,0498305979760895
0,0522452756976433
0,052604355002048
0,0543344942769776
0,0533165083736266
0,0541367935427797
0,0514895109711721
0,0522788713763824
0,0524362792604744
0,0523354655878046
0,0536724356235648
0,051796948079558
0,0536473766826122
0,0503518673883991
0,0551196181293069
0,055193454619503
0,0516970007162808
0,0540030826745606
0,0526527650894987
0,0547092563194251
0,0518891492553734
0,0537731088164221
0,0513279749431448
0,0522613158910336
0,0520034682067478
0,0510629936378982
0,0531589927147264
0,0526545760114136
0,0516766289395111
0,053596832243884
0,0515765789008027
0,0497462471641811
0,0504920109093329
0,0530317074017523
0,0536360347228909
0,0534864817126634
0,0521721016771037
0,0517121260337702
0,0534106783052708
0,0531125005258847
0,0522560637437698
0,0512952122278575
0,0507354088248145
0,0508260333887999
0,0522291823951926
0,0528036306576234
0,0531960582949124
0,05382566618455
0,0537994962703742
0,0535873867836295
0,0528602660897607
0,0519938232075218
0,0524709300108784
0,0555551263498075
0,05343716934452
0,0531861163217835
0,052436696166355
0,0503173725773533
0,0514972212135118
0,0503437105513276
0,0542336722393969
0,0553112771559292
0,0509852494140235
0,0537250873025176
0,0526322995548702
0,0512121916230636
0,0525063370535656
0,0524257693015975
0,0530156542025024
0,056801748371913
0,0567052448776498
0,0529594398216175
0,053355739442417
0,0517941655668014
0,0534424091666726
0,0548941427276942
0,0537678209972726
0,0551192676116749
0,0548271840375984
0,0538248248299788
0,0505316921001517
0,0528948229343303
0,0536799510077988
0,0528789885405318
0,0531710561701866
0,0501708709602778
0,0513950779888281
0,0539003316069139
0,0535980601084649
0,0542175402743779
0,0547826432453583
0,0568861134540834
0,0558802175966127
0,0545148946749082
0,0541032606815229
0,0527833041433094
0,0533318089694202
0,0539523410073196
0,0562385837572038
0,0562330775653934
0,0538434682702861
0,053767653982081
0,0552235450649738
0,0573314508747026
0,057807891380994
0,0541325414434646
0,0550960726307421
0,0549610979774063
0,0532935360853738
0,0528559139452103
0,053434117131465
0,0549108834711208
0,0556693490086057
0,0571992934204249
0,0564692019864503
0,0560758676556369
0,0556284373572205
0,0550446717682778
0,0547346256279902
0,0553844486205646
0,055663893324118
0,0587524467344816
0,0570239202021037
0,057416577834436
0,05655565684719
0,0562613421612396
0,0548968377067719
0,0568162160635501
0,0574679343264371
0,0573158374420961
0,0553891305883432
0,0574350887276629
0,0592867620324701
0,0559576637069089
0,0520700560115028
0,0560025315147875
0,0567789371327059
0,0553109486131832
0,0556809530761072
0,0591656162269931
0,05602544274051
0,0539321527415698
0,0571358164146082
0,058288025876685
0,0559715503430897
0,0583268663544166
0,05953264338684
0,0591626333368408
0,0560182334217763
0,0570542711941746
0,0587900126842541
0,0566256223259028
0,056215108322917
0,0579348875383374
0,0587032193320763
0,0580723172143641
0,0574395174011776
0,0575243450944277
0,0574217954156987
0,0567317739892889
0,058610092069609
0,0579165303873947
0,0576156729842932
0,0602957685902762
0,0597807539405045
0,0572879095008627
0,0574712127049354
0,0588394620908552
0,0568814612322654
0,0565591125973706
0,0597495546487845
0,0620807242189461
0,0579682019858063
0,0570809157451269
0,0580967591543039
0,059563957462919
0,0588347279615098
0,0564744457640669
0,0590441889444517
0,0609246494972349
0,0601558186095194
0,0595117975930259
0,0616925298186381
0,061319809043326
0,0608159677023173
0,0579129131621431
0,060186891040935
0,0620614157898807
0,0587677751948052
0,0616593895102926
0,05927526358064
0,0596427530268882
0,0603985076486588
0,0593396331994338
0,0597060999336418
0,0608819550732587
0,061853476037419
0,0627620420628417
0,0596548482694382
0,0612783403303748
0,0621575391284375
0,0592727443855386
0,0608211625709471
0,0603181013758987
0,0608151277324286
0,0609121023728114
0,0608479448369628
0,062417032588276
0,0617146377927315
0,0634548173165936
0,0606851125321475
0,0597494364438985
0,0612755187173273
0,0606141419389864
0,0606117030465952
0,0632851285445374
0,0638055357300503
0,0650514873805614
0,0621429298842668
0,0623247036490923
0,0647523154986254
0,0639719481640985
0,064512150972441
0,064884492646644
0,0634478804793568
0,0631237291848731
0,0628425856534477
0,0624809075150722
0,0628443255374589
0,063443468793504
0,0645057654797865
0,0617272100383355
0,063379259713606
0,064541683637249
0,061487173741368
0,0616038922418638
0,0650172385284672
0,0651475333342819
0,0667974389912298
0,0660670415365656
0,0651796380837672
0,0655659064843605
0,0660085032941298
0,0663085678398471
0,0673049169015958
0,0653760483405878
0,0639982178456728
0,0647166387914955
0,0666666355311694
0,0664553444738055
0,0664551161794347
0,0699157343248449
0,069111928670093
0,0655063688863831
0,0640596928780783
0,0679355630158004
0,0710414956213011
0,0674410475357565
0,0690219846505339
0,067375009182896
0,0673758054990829
0,0677964286357047
0,0661679377662979
0,0698642708056345
0,0706034630444337
0,0716406045785026
0,0711434806961773
0,0697544001114181
0,0725977715684128
0,0688989943525627
0,0685969994966761
0,0737601809106508
0,0726696963641101
0,0708158838497931
0,073554741986656
0,0726983451077224
0,0721598763741553
0,0699547729124947
0,0711666039178997
0,0710178896876606
0,0696169281362436
0,0705839342090658
0,0706814481514216
0,0702090014831057
0,0717829999138266
0,0682999096592171
0,0697742798330414
0,0707405175873801
0,0757262812263217
0,0716152232084354
0,0695883718835692
0,0734991825906342
0,0744073589696171
0,0671542017807217
0,0728711376786859
0,0768776719068574
0,0757602815307208
0,0737901153999743
0,0721711403326382
0,0724023127143572
0,0753251770706466
0,0704801949945995
0,0744625231986195
0,0746501518071968
0,0754477785896642
0,073631841525343
0,0738757731684375
0,0733085725432288
0,0744643294897654
0,0754329368487451
0,0763668102226838
0,0787443835694345
0,0741314540970929
0,0759240641419483
0,0742607288254761
0,0758917345517107
0,0759912205462995
0,0771658157696018
0,072125571626754
0,0763730458309337
0,0747175991000208
0,0780557615920851
0,0734486010783279
0,0774794478409389
0,0760058151274936
0,0745997155411802
0,0751231013095695
0,0759927605719671
0,0755030649093324
0,0774170720971661
0,0775857622553699
0,0774522190069707
0,0775458396927384
0,0752020530621648
0,0760084303934037
0,0760310317300542
0,0756864898108468
0,0807903918266744
0,0781046075113025
0,0787051989412219
0,0783563411300498
0,0781887842060622
0,0791129533748259
0,0794990029460392
0,0788762241021277
0,0806860690642322
0,0797214828319461
0,0788607076969248
0,0780091872349012
0,0791269809479731
0,0801869613919826
0,0807555475746964
0,0797734101070481
0,0805698909344502
0,0807052132660075
0,0812803576040517
0,0809953195950779
0,0794312584535166
0,0802015468305549
0,0798012783058419
0,0807356997263066
0,0825454789014237
0,0817437684107531
0,0826106316016822
0,0822977506464934
0,0833441294035519
0,0822171954120859
0,0835315433450978
0,0825937394113982
0,0822789355790535
0,0832084308811493
0,085073231092898
0,0846848707068884
0,0839987228392135
0,0847663518619414
0,0851308080259839
0,0856108778627723
0,0861822196854786
0,0851422508412229
0,0851484752337754
0,0838954770076642
0,0844685179647677
0,0856166128457691
0,0868927515146288
0,0868238061415834
0,0875323154981494
0,0868511042054194
0,0868160628121214
0,088544995558288
0,0862199155393754
0,0844954361003799
0,0877604969478512
0,0873287409030912
0,086347757814115
0,0878685903876105
0,0884224529703845
0,0862397034684871
0,0876279452010564
0,0899713644640275
0,0889238463740749
0,0902044631804744
0,0917782340782781
0,0886561912694345
0,0891947514342957
0,0906245041618345
0,089969526137293
0,0900405832444402
0,0909137093989471
0,0921992896409788
0,0924378955147979
0,0912223361247528
0,0920046330980712
0,0915048278181468
0,0911294191725867
0,0939015409235795
0,0936104836939322
0,0937738904211632
0,0950360583631318
0,0926253054679573
0,0923609098695986
0,0935287825004352
0,092194862355909
0,0953110297985548
0,0955166346650165
0,0925237005421947
0,0936416157719047
0,0934764984766906
0,0953982192487819
0,0954634003864273
0,0949348188064025
0,0945079945344689
0,0948583198070412
0,09842311658246
0,0970683893077628
0,0951584012097471
0,0957834231684658
0,0967403631276605
0,0980948745736798
0,0985799587673338
0,0974381474671109
0,0977054995294086
0,0988173138839262
0,0983941890553469
0,0993598692386554
0,0992213484029866
0,0980471444866119
0,0971770273580559
0,0989724507118871
0,0988007483827223
0,0986568761299892
0,0999153356435557
0,0975443061663594
0,100200286745898
0,100546539983753
0,0985608408615236
0,101971100249734
0,100641557944806
0,100050376782041
0,101556424556346
0,103187197746073
0,101420410374745
0,101948290565924
0,101844470962876
0,101087070148809
0,101785144325718
0,101772154981091
0,103089682933589
0,103028067189372
0,10110834764234
0,102706673427305
0,102887174905732
0,101432990273186
0,101499221957728
0,103750640260864
0,103440619355631
0,104030201707005
0,102873029533672
0,10299108327641
0,103891033462327
0,105615232933553
0,105657255689842
0,104905591970628
0,106214722809799
0,104744491584563
0,10567754601178
0,105909709210011
0,104421758792844
0,106092128359323
0,107465309085396
0,105602738830095
0,108123022140771
0,108796952356175
0,106318884167061
0,105798628575759
0,107249835685253
0,106155585622267
0,105050627290792
0,106318188078068
0,10656513157748
0,105535267907805
0,105604694031585
0,107070036231984
0,107719931078973
0,107755087896878
0,109700376509589
0,108004116684136
0,108022683345842
0,109832987979493
0,10671260090005
0,108206465259452
0,109595728663146
0,107138621885126
0,108531240664325
0,110498206895568
0,109351691104078
0,107894481765689
0,107110305588232
0,107274528187345
0,108554300954122
0,107626869895549
0,109467579592917
0,108407122248544
0,106497575215172
0,108907922170175
0,107918403686603
0,107513603395454
0,108267051647479
0,107874309140362
0,10821417126792
0,109413934974482
0,10998563466782
0,109349282699696
0,108345645463878
0,10699034733274
0,10895915821489
0,109049783843249
0,108340586276512
0,109883843979211
0,109271177075743
0,105874073949269
0,107454945806815
0,110400940166171
0,11037569692723
0,108300134193251
0,108321633298329
0,109349603120099
0,10875501160674
0,106543446882934
0,108270479080476
0,108876152417677
0,107768338691695
0,109302277213847
0,108284117593203
0,108990447239711
0,110048770962729
0,107418638388118
0,106986171794075
0,109613772011095
0,108940143758361
0,108609336926029
0,108825724812579
0,106699892308108
0,107383633588712
0,106590132292286
0,106992144437847
0,10558288897337
0,106912800592242
0,10656993868396
0,105175672752481
0,106103584275133
0,106943551359319
0,106033965946041
0,106542626847823
0,106586823200516
0,106604328587738
0,105420002842969
0,104745298995416
0,10353395253102
0,104023947387889
0,105189061756762
0,104847642220924
0,102420037810238
0,103822691958288
0,104015074674308
0,104424242787523
0,105197371701169
0,105351278933529
0,102516917528238
0,104843068263294
0,104751802516525
0,104137853891385
0,104133176742915
0,104529600440792
0,104396314125196
0,103707678393921
0,101186851686081
0,103119687676454
0,102492376693473
0,0999996212690063
0,103357359028639
0,102737884896345
0,101799640591146
0,100675071297606
0,100820613923555
0,0996502038391599
0,101139380875943
0,101907245673214
0,102623269892769
0,0997185651262241
0,100098002891892
0,102913369325446
0,100703684473411
0,0994906104350099
0,0967170892586846
0,0969415533149171
0,0984905401183098
0,0997929845357604
0,103861550850012
0,0983787254795836
0,096204985371359
0,0986383222875739
0,0957698073982959
0,0966490977676237
0,0952484294287509
0,0972799027703936
0,0968256136457181
0,0976335368407019
0,0973843677236746
0,0959148044441654
0,0963115685751999
0,0940929129289194
0,0969504642691282
0,0970065190696496
0,0961416491934471
0,0932483209196921
0,0932165929857344
0,0961273517300035
0,0934838715506895
0,0929420750061936
0,0921517495734207
0,0943855332988137
0,0922582257595968
0,0940888465636688
0,0918691641877366
0,0917220052784839
0,0931067681504921
0,0913893837303618
0,0917862477844885
0,0896538302037328
0,090135625872945
0,0909373080914064
0,0914698732146502
0,0915443538788153
0,0904857396897768
0,0915010086910894
0,0891897751596706
0,0889113934341545
0,0892311002479333
0,0886640705015348
0,0880647566131632
0,0894202415993548
0,0879442036730772
0,0857508235315824
0,0834901185197481
0,0884316997369987
0,085842527633869
0,088712344978725
0,0859312660521809
0,0852807561944302
0,0855307940899384
0,0868773034196004
0,0866196312937596
0,0861317090104582
0,0858818983091143
0,0860587991936482
0,0835926865074723
0,0864961304062474
0,0863105511557952
0,0815495054947081
0,0837965048087139
0,084650944850224
0,0836238427118991
0,0840488887530389
0,0836347373140896
0,0834069156354808
0,0830988037707964
0,0813005223384988
0,0802291764040344
0,0820647554663712
0,0838870114138173
0,082938507481891
0,0797153452679079
0,0822897804380661
0,083529567077779
0,0820238966502073
0,0801503357677541
0,081029110685322
0,0809801185701454
0,0822129115015901
0,0808575424408103
0,0814464281439607
0,0782399392617797
0,0782235326410363
0,0781443890609245
0,0797470632616485
0,0797137694237707
0,0812544826962714
0,077192590930362
0,0770799632830629
0,0796137226215989
0,0774215954109057
0,0778281673235224
0,0765991251387856
0,0765885812548975
0,0768404171129948
0,0761057413980635
0,0763847955637475
0,0737482010032124
0,0751131671908273
0,0760391981965874
0,0758334438998434
0,0752564989899638
0,0767946161580076
0,0735131530887313
0,0747697379037563
0,0745334241511202
0,077289852229489
0,0742910413712166
0,0741525039985632
0,0754264776959742
0,074001261254028
0,0731985290976218
0,076339578323081
0,0755823242675324
0,075504330600387
0,0741651856377692
0,0767529160027409
0,0722465936194826
0,0733208079376453
0,0718069784807154
0,0731419478580432
0,0706674970465567
0,0752695459198596
0,0728427819305561
0,0728111986594557
0,0720288966165029
0,0719316634642646
0,0731775100716582
0,0713878361535987
0,0723150652836979
0,0722233130767942
0,070142917867005
0,0715653084123468
0,0746004252677301
0,072487963190414
0,0711658459392372
0,0733575321230603
0,0703840248667002
0,0704846663099507
0,070932847340346
0,0712671996156682
0,0686459490551913
0,0709349993451465
0,0701568949845335
0,0686337986008773
0,0702712207236538
0,0693752801932314
0,0696251671749634
0,0680463362470168
0,0693540055962284
0,0708132613783549
0,0691198609951984
0,0681969729287446
0,0697710235566279
0,0707370217158436
0,069089969482771
0,069235416998542
0,0692427910282957
0,0689609739609394
0,0701227827834949
0,0694039974948721
0,0698060118982279
0,0704011950919174
0,0705248728558959
0,0702936137660419
0,069015817362978
0,0694386381966457
0,0700160136039295
0,0677033619987226
0,0698558297619583
0,0703459100504653
0,0682779644314371
0,0695211774345231
0,0680070284563106
0,0711880786061236
0,0701162641175502
0,0709871191420493
0,0699686106796167
0,0680936355459389
0,0688773138516352
0,0682322404152845
0,0681384497013222
0,0676005258004456
0,0678471587515108
0,0664550419446666
0,0689540172483902
0,0662586903017795
0,0691441268084281
0,0698359167072966
0,0676082629857307
0,0678915620126167
0,0682679046865991
0,0674952492467782
0,0694001158445125
0,0732050379450829
0,0699550800362046
0,0687664326314318
0,0702016540862922
0,0704781667237807
0,0697458189405378
0,0681413230499088
0,0699340219250913
0,0698466896447664
0,0703839189174923
0,0686640970940787
0,0678379646210979
0,0694539930691472
0,071977276496944
0,0697347719913117
0,0687902867403316
0,0700691875112496
0,0683042738569046
0,0705703344256768
0,0678395860032732
0,0710030292862912
0,070976386107379
0,0728693501132724
0,0710834552249288
0,0711932700999338
0,0695374029609161
0,0686298996994854
0,0710966323272508
0,0706593719409164
0,0721999351846957
0,0722267470954062
0,0738800743189679
0,0690109614241751
0,0716961628492578
0,0718717358158577
0,0705973438148654
0,0720004640611616
0,0730481383737106
0,0720124609225222
0,0733198389448159
0,0731747622967606
0,0723225173393452
0,0735236681126964
0,0750459853519255
0,0730466746565851
0,0745499173445831
0,0745857070130179
0,0751817334171074
0,0750301973703087
0,0737891833094447
0,0752911934353349
0,0729925193098494
0,076971642597975
0,0748042775850032
0,0771471308015688
0,07846238258924
0,0817015246443346
0,0752611249722236
0,0781878166972157
0,0765267963765476
0,0764108464024416
0,0763673621299611
0,0775915596819842
0,0779567704724475
0,0822271848591025
0,082948843591419
0,0800621404101597
0,080417470673313
0,080007855052415
0,0799347915722902
0,0797093689189535
0,0811455952043009
0,0833585263657591
0,0815184988958546
0,0799272285899798
0,0829779955592463
0,0826807353781152
0,0850658822601793
0,0832607020538317
0,0851973733509199
0,0831172005560807
0,0847308152265718
0,0874196625973525
0,0869809158355731
0,0885493037133945
0,0908204978568612
0,0903727911178555
0,0887873942413857
0,088322240526757
0,091054847949097
0,0920959456020717
0,0911007533770368
0,0917927821597876
0,0929262273976339
0,093757512241944
0,0920424959005778
0,0950416757278932
0,095969088027051
0,0945750895337879
0,0964549834668615
0,0977851269983364
0,0955239664109515
0,0982937314329365
0,10074413642562
0,101696584953179
0,104149895263082
0,102531134769359
0,102010250957092
0,108059219484622
0,103916692298863
0,110972570484085
0,111754516884156
0,109272951190095
0,109675734032896
0,114767756268644
0,111468676363379
0,112712157205014
0,114974718257492
0,114513899687239
0,114835732383755
0,123710511269687
0,118394234771217
0,123273122514873
0,12238439901945
0,124290373982963
0,126920861045085
0,131334571104005
0,123947910208261
0,131251036388924
0,129856794652905
0,133823266281439
0,137562953183519
0,137951422076951
0,137846275487601
0,144789352551841
0,141509154973981
0,147697705505476
0,150105696122157
0,152045782041746
0,153824991933589
0,154835369755847
0,156180480418682
0,159910635745107
0,159175612290968
0,167704861032795
0,169039137829044
0,172545601423624
0,170714439180772
0,177622603686894
0,175950839482175
0,184615790049786
0,183867740121692
0,187629859942071
0,189038761287652
0,197670808791341
0,196369178823389
0,203259611194342
0,206015021432227
0,209528460593492
0,212865971987029
0,217377398135095
0,214949977257453
0,224639465156904
0,238926871495095
0,234129258170752
0,236545143335583
0,239922112562901
0,239585865068799
0,259682697657073
0,252983139071916
0,257861549400826
0,2607040131891
0,269168754258605
0,272616896052176
0,281981208949869
0,286410428964632
0,292578455869561
0,29603169642951
0,298101645485255
0,299553065233738
0,308950230626792
0,312276143061458
0,322029021749051
0,322008604674854
0,333574524267782
0,335658463653919
0,34449709234348
0,344330661547036
0,352847529555305
0,359883253380038
0,373085664817687
0,364962623212171
0,377019431565244
0,377400650629911
0,381749907697851
0,378520296691021
0,41157989330045
0,407760975302924
0,408735103489419
0,415378394871544
0,419520143331856
0,426548909612559
0,428647453956103
0,438887235315209
0,445557097841971
0,441809204066591
0,457927338922986
0,453418032855291
0,463653518106643
0,463153588636584
0,473190943691737
0,477888895379836
0,49412252967698
0,496048637240944
0,585045407331462
0,511557172332948
0,500276601107839
0,510508627388716
0,507375023458926
0,519010393927014
0,52363959106051
0,523219389623134
0,538376484352984
0,523215043418683
0,534799983097206
0,535305702420697
0,54305791485681
0,541690136095487
0,544150333664705
0,539232150697017
0,550921483244715
0,540902462279119
0,567068017239289
0,563715774317642
0,545587383989135
0,547574263495919
0,547688142702188
0,539871352563319
0,53318088588481
0,526194400143717
0,528806361572597
0,542946487785286
0,522984354554509
0,520979323836961
0,51563002262105
0,507793766179421
0,511690844992265
0,501108430783523
0,502236546514292
0,487749459905606
0,496383466580739
0,479808955106751
0,487977744440772
0,495181937422816
0,467020710425872
0,464329464787639
0,461534341492603
0,442248325320394
0,443910012040299
0,42850884779339
0,428078710224182
0,417768653599307
0,419511602139496
0,411714490616493
0,406922383035253
0,400656676211327
0,397538360362839
0,390874149031148
0,387009675211519
0,369533074819496
0,375150742382888
0,36839641433969
0,364072204570912
0,357530515188134
0,353216619305329
0,351573747619341
0,351289637627044
0,336106887649755
0,339156689635554
0,330740855474681
0,32219224089107
0,322837988505048
0,322984517511488
0,318555820697318
0,315843267503708
0,310466176358372
0,311320927540368
0,301781136001523
0,302324102395167
0,302096005262487
0,291539064974088
0,287816666996421
0,282442089785689
0,282961959153234
0,279940958260245
0,284863380467403
0,29461521973599
0,277439665312401
0,274471358927738
0,271893602692807
0,268575035925379
0,265109636677682
0,26802129414907
0,257962884524152
0,262171632606609
0,2543446503058
0,257206907876374
0,24949987927427
0,26231810460393
0,255067598566624
0,250049379583168
0,245107434530348
0,246027414031712
0,251499724690357
0,253726036534546
0,257806171033803
0,245623570346126
0,240287126572905
0,239379268806728
0,237028213260542
0,235835345120142
0,234110061489475
0,232939298332158
0,232002445440199
0,229772727124727
0,230860595378035
0,227678319038909
0,226546118891914
0,224188322651515
0,227418881785142
0,225396064101324
0,225416269382903
0,222745225560483
0,221312015868803
0,214251909402422
0,222120482214301
0,228423270146614
0,219080519153968
0,212837007328525
0,215384438918846
0,214755210999537
0,217330763415052
0,211431074518156
0,209262729046271
0,210595969979214
0,210650010895668
0,206239303282126
0,207763926668525
0,209719046918183
0,206046472906689
0,20639726292124
0,20453585667287
0,207565834516012
0,200416782760428
0,207914941811938
0,213337366549527
0,208790053043908
0,196047266677109
0,203712008434843
0,201311678657067
0,205775285569639
0,20061489432967
0,198244180021012
0,192408843334254
0,192820117683505
0,196100575973719
0,195019226875476
0,198811352975958
0,195232474998515
0,192670931957745
0,200168540153502
0,204601407664552
0,198103009034612
0,191893771319165
0,189386260371362
0,188934313529632
0,191631752071251
0,190308841703011
0,188991600148176
0,195174052416312
0,186413869980869
0,19301130688425
0,198977437539353
0,185940299831429
0,190054434128644
0,185749527668215
0,189017651041491
0,189138149328454
0,184315361964488
0,187647329356799
0,188655075496008
0,187385673451163
0,186412940061052
0,18815960715524
0,185822468423558
0,18647139944979
0,18480490810328
0,187330433751504
0,18722852118811
0,189289756763419
0,186211325298885
0,18460480592056
0,18913816842114
0,18649080609422
0,181920931784587
0,185541067811672
0,181452067169765
0,184045377908993
0,185745085384451
0,188472472465411
0,188340824423751
0,183287427303844
0,186702224380563
0,187629739044863
0,183841052954423
0,190206090472633
0,189577313059595
0,185083824370235
0,18533880566025
0,182748372492158
0,188380591273827
0,18406818263424
0,186038942312679
0,187075455919902
0,195877178783138
0,184197414622886
0,187411151830443
0,184576605200724
0,187381719351505
0,185116839353374
0,182495082632972
0,183475476357831
0,183910651147118
0,185253822941983
0,186821420221305
0,184311246107532
0,186169996469058
0,183831831847751
0,180042240936081
0,183662317348881
0,183834066547306
0,185881310072573
0,183638739594281
0,183778952039373
0,183611893310547
0,182243782610635
0,188493805903856
0,181822465276378
0,187920209960091
0,182983969325968
0,18541395703073
0,182619584977162
0,186138587750199
0,189172992069275
0,185454998940248
0,183806087480603
0,182540381570473
0,182568872163498
0,182918614512586
0,181916351791505
0,18491080343074
0,182722163531282
0,184857191276586
0,185351185616917
0,188050105315828
0,181292672956468
0,18968197884616
0,18310080912446
0,181868381848304
0,18349171381676
0,18190142586509
0,183752420594363
0,181759808698601
0,18131285040209
0,186878274647364
0,186725692061771
0,187268547768624
0,183813432653036
0,181080697065788
0,182698937413431
0,182747385211772
0,184507370759564
0,18363448523695
0,182658634070281
0,180995826999362
0,184129548454297
0,185626349029114
0,182186119156959
0,18134010542442
0,184344253362366
0,181380075143572
0,185976288502856
0,184686531225003
0,181022469075772
0,183379708466935
0,18114348516358
0,183887712045308
0,179641889628784
0,182191817706497
0,182383490165927
0,181928117811251
0,181098083500592
0,184421453134651
0,182635926619808
0,181252093307539
0,183833245573965
0,183527642336682
0,183024611699191
0,182595681119485
0,184211908042176
0,182772469569298
0,179309990203447
0,182916999096883
0,187646901771382
0,182862247151219
0,180619526516204
0,184585544545239
0,182765022074345
0,181561167025876
0,182467333093222
0,182637942647387
0,179938463797499
0,182681858915741
0,179663871727554
0,179693783513459
0,181471724921687
0,1786663811371
0,182231161644102
0,180724973714872
0,181160833556805
0,181283798673432
0,179779742378397
0,178635294179217
0,183068669599459
0,179147510285093
0,175590629212929
0,180743765058925
0,176862122364708
0,17899312948867
0,181358457261357
0,179476143113643
0,179784312800492
0,177603586827731
0,179402433724849
0,177480144691834
0,178350397517416
0,179633383469869
0,179981441747757
0,179902680594468
0,179541415275442
0,176878423036531
0,180785168959523
0,178299066743257
0,179067984797077
0,180446921350251
0,179146399347629
0,175343557522081
0,175875318019952
0,177890619246774
0,17685130047083
0,176214041192251
0,175464151815682
0,177554975848718
0,177714039843182
0,175381676908509
0,177627040547177
0,1799007959076
0,178845505359163
0,176719841567278
0,177744103850297
0,174302099923608
0,175638164849725
0,178544552753746
0,178581060245682
0,178136766252288
0,176983412661045
0,178031815353742
0,178084591608775
0,177241404990733
0,176120655092837
0,177389493703885
0,178135181059016
0,181223679807717
0,175484139116746
0,177836468198064
0,178519517765099
0,177859690621281
0,176162538306825
0,173781507878204
0,177807865112392
0,17536840421803
0,17523849336716
0,176333886317962
0,173084460507574
0,17471700694536
0,17556109334213
0,172519011723373
0,173828570563867
0,174407896868532
0,172544639359162
0,176071697059303
0,176210774690159
0,173932680803091
0,175160924609615
0,174486509245978
0,174787139569381
0,173564197138604
0,172486715697927
0,176383086076931
0,172573788694099
0,173088055654972
0,176465045915451
0,176315165628466
0,172994091435929
0,172071384045625
0,173118427161806
0,173105222025396
0,171365486559411
0,173012961148285
0,17155605578336
0,174380349152996
0,174285462274649
0,174937582120401
0,173683093041747
0,175053025430443
0,171627338579731
0,175077408381097
0,172886829148736
0,173616304318862
0,174232362419671
0,174930711858695
0,175118347903652
0,173358949124131
0,176803858646457
0,176856243138502
0,174223102359666
0,171231100596738
0,174152129819999
0,173660260449991
0,17618929654279
0,174612961882081
0,175461729479156
0,176442840515238
0,17417907908615
0,174305633580461
0,174619909985432
0,175061834013663
0,171731928772562
0,173025921047584
0,174025049298192
0,172180432928105
0,172899328686695
0,175829844651039
0,174639236255527
0,172413867922006
0,172460697060384
0,172561722948563
0,171777583095923
0,171879380331452
0,17320679215042
0,173145963308682
0,173314994962169
0,171873732323234
0,171324548489392
0,173032157404677
0,171748498885809
0,171669220255285
0,171956068565763
0,171705792512396
0,172101256990467
0,172300499795615
0,171385351872986
0,171256924070805
0,173630223928625
0,169497013365212
0,170603066720887
0,171773053166608
0,172914023670663
0,171638743581928
0,170374931717213
0,17099922552202
0,170439801430743
0,169701637161529
0,171492692465517
0,170289892186515
0,171160832240294
0,170044871259098
0,169792693562303
0,168841412310129
0,169464240309542
0,168024069886601
0,169114008928203
0,170249416715494
0,168708534913022
0,167358520414597
0,168855812492764
0,168428303957857
0,168521541868889
0,171282908507259
0,169167395074668
0,169727363681038
0,169020246177566
0,168412179706109
0,16723440229537
0,169277966990795
0,167629265595356
0,168830560232927
0,1680969174843
0,166625896793971
0,167121606661345
0,167038291306892
0,166631279000085
0,165576000141095
0,168302424833852
0,168013400869726
0,165162190574286
0,167229926866351
0,167869740024812
0,166247174208893
0,170047593044433
0,167652474328213
0,16697654937415
0,167783242561857
0,167159638068184
0,168082325907395
0,17110737021098
0,170062034371495
0,169035985282181
0,171917055754801
0,172512024585801
0,172494633100639
0,173065060761246
0,174975920666143
0,174004680255984
0,175945751535817
0,174491271846843
0,176565826526021
0,180689525662704
0,180326562626317
0,180520678355306
0,181610711512258
0,18200859233457
0,18395578578433
0,182679361018792
0,182766954573776
0,184747830303738
0,184711060143658
0,183124736792595
0,184674867318589
0,184066468751726
0,183867053755157
0,183295617758396
0,182745935808189
0,181884169759224
0,183285327725123
0,181990073969353
0,183503322718606
0,183092050329908
0,181124427693735
0,181593780723008
0,181748670758771
0,182209958885357
0,179471018912027
0,17998252661487
0,182017605161649
0,181716227755759
0,181620848738907
0,180912308361147
0,181056955664254
0,181768283363655
0,182641198576421
0,182121117725403
0,184419103030831
0,184094813885165
0,183643038410142
0,185506652132267
0,185538442279255
0,183920947936619
0,185929081270165
0,18685330306486
0,186826379313546
0,189647245375259
0,190679428425161
0,190018250956287
0,19273531459347
0,192217749238365
0,193875291968402
0,195302891509079
0,194183316797828
0,192616721270947
0,193228415070176
0,192798033864436
0,193025256852962
0,193981832695472
0,191644171849968
0,190523055778383
0,190728673692738
0,188283400970653
0,188241008397868
0,189238550456563
0,189382126227099
0,191626938545449
0,191429104123918
0,191498740498486
0,193804118937025
0,19658905011607
0,197245962819126
0,19794248084161
0,198151519228359
0,197515159411792
0,200330681497089
0,200202193799863
0,20186792943283
0,202425262546455
0,202034107174076
0,204443891465513
0,202746293988781
0,203764321571067
0,204384526958515
0,206319038305164
0,209519057296586
0,210796330518693
0,211138991037769
0,211495503991248
0,212769670783655
0,215773755601704
0,214739627580517
0,217719266495534
0,221463160682703
0,219126484509311
0,2198351006651
0,222405568472928
0,222983679762781
0,223923971047786
0,22560143683713
0,223476722201954
0,222454454782354
0,223222146600358
0,221940000442595
0,221408705184421
0,221801428754547
0,219076571898376
0,2176238904801
0,218976825033183
0,216270829360096
0,216106592903761
0,215578400084443
0,211557811718848
0,214269321867905
0,212139942712066
0,210440637138212
0,214818890903538
0,214478914678793
0,213858489938307
0,214787203681268
0,21235723381097
0,214259778064996
0,216422858230438
0,216284162932762
0,215990635540525
0,216174504251086
0,219485220734551
0,221784357591366
0,219641705154919
0,222139854789771
0,221240264190686
0,221358880577961
0,221763322894959
0,221499036324439
0,224725840296449
0,225312378142383
0,222386924807855
0,222032006185214
0,222027907617599
0,223481917867006
0,219869843597616
0,222919902035448
0,220922000813623
0,219427367591484
0,224398514685961
0,221226436689051
0,222171817885168
0,2226154803294
0,222718204743982
0,221924889776606
0,220667897119059
0,221847509390432
0,218637985434806
0,220502837278362
0,218375774253929
0,219596268972011
0,218195417053543
0,219518356951536
0,218078240780191
0,217162851428975
0,216686484236108
0,214852299280686
0,214388915148177
0,210695774549359
0,210800223368863
0,210407519147151
0,206356921478063
0,20586190240591
0,205111123698283
0,202006956375231
0,200023556365691
0,199648991218567
0,200237043687466
0,201455749797559
0,19948951053584
0,200343962513416
0,202802451146127
0,203888430072665
0,203562795772355
0,202043641633066
0,201054027539368
0,20471433557621
0,207741040519848
0,205554436699397
0,206855842482694
0,207108285984676
0,20752691496773
0,206413765967998
0,20616601151362
0,205972912435437
0,205964579689347
0,205631324209658
0,206628126304456
0,207055827778539
0,208150858985448
0,204477212092684
0,204070100707696
0,20441924648584
0,205581148003425
0,204988174934455
0,206944585522123
0,204963078701744
0,207094453342509
0,206159334651432
0,206756840012549
0,20602782900029
0,205544035694869
0,205388426005614
0,204481388337971
0,207584608012057
0,209654178342387
0,210193987785869
0,206471376508201
0,20863902469223
0,210625110632526
0,213395489824835
0,210475836206779
0,212755509482319
0,215338825495923
0,210398996998163
0,213440499511494
0,216142899020842
0,216500611429187
0,217315484808442
0,215496574331678
0,217127369886442
0,216238390270355
0,219973841511066
0,221535844793127
0,220525599993185
0,223719421467754
0,222414562324415
0,218822590427558
0,22626238114142
0,228272153106307
0,224639513837945
0,228755532403982
0,230560986673319
0,228580368255783
0,230152134840326
0,231593740057183
0,23113004317806
0,232693556876194
0,234334607425278
0,235449630140063
0,237757462776345
0,238300530783083
0,241144262189916
0,243805353870077
0,242193958700856
0,24318672816227
0,242712465605482
0,244143306255863
0,245290341402275
0,247887475843843
0,25501114018398
0,252252612958695
0,250734303760245
0,255803290109321
0,25573095916078
0,25742022079379
0,25758046943197
0,255877958237023
0,26184579437521
0,264339213806354
0,262445919500258
0,263594996425909
0,267478765991736
0,268937178613082
0,273257982878485
0,274766866921715
0,277299194462813
0,278884061331745
0,275225461135424
0,279366065055692
0,28128701399544
0,281062233100791
0,284776022778983
0,284141578556191
0,286474941974334
0,291064703972113
0,29989573124859
0,29827825715653
0,292138736658659
0,298417711396927
0,300668902306447
0,299809581341807
0,302524518287708
0,303966904951035
0,304052930895768
0,30747816461508
0,314828000761857
0,317833612280022
0,318104779715125
0,317251682217578
0,318780782585623
0,321848080381582
0,321827016623832
0,329496414172629
0,333169597631317
0,333814715243058
0,335698202231936
0,334773943799096
0,333127342681914
0,336219207429065
0,3396151053027
0,345386532616457
0,347195879164199
0,34552153087022
0,348375395940613
0,354950685153031
0,359038579804736
0,359171961369017
0,35543946978262
0,354779293932197
0,365183873281161
0,366240529565021
0,36953952695558
0,374807724155714
0,377458090677196
0,380265300808224
0,379712765123436
0,381892791549036
0,382381170679458
0,386863383860438
0,389601937642983
0,393276461342077
0,396515053168459
0,398688522875644
0,395903617635518
0,398817738677315
0,403845810495226
0,412459459563198
0,418816202915385
0,411479773166457
0,407925664878773
0,416936703744339
0,425793365585225
0,426948436179091
0,426782455374367
0,427741992808812
0,435365479405104
0,430800211914219
0,430231744053086
0,435165775825959
0,437351789193524
0,438801927672454
0,446511073254323
0,456328818402097
0,4655061245178
0,457751561888093
0,457206562320964
0,464233889051445
0,467864146465918
0,465830789231641
0,461359942848922
0,476792110400622
0,493419721598266
0,494155812596748
0,489106924121466
0,488305141367057
0,481122269580761
0,474824444821927
0,479359384072387
0,504812550486624
0,509051210576074
0,509282152293544
0,512324021016386
0,508142530646628
0,501351317790685
0,51346721141461
0,518579349487485
0,509268483921136
0,520236142190791
0,521329213984891
0,525422060730114
0,534650088423436
0,535036006435615
0,526262416408177
0,537338086940386
0,542189578973429
0,543362037653176
0,549679492230208
0,553145549082769
0,570259845435142
0,557653514219409
0,557286529548292
0,573237037731724
0,573335589191738
0,572994277311667
0,585962501375016
0,573448306029834
0,562993004956626
0,582242786447561
0,594827874920761
0,588331085904153
0,607486684919997
0,607920387659263
0,587361902585554
0,607111050744809
0,639572001375877
0,606619157027047
0,581358801080689
0,616870467863977
0,61160296314901
0,604126713956293
0,61523956859434
0,637027808711562
0,653639720480507
0,620373988032638
0,631894975895378
0,651401545730493
0,648759738051729
0,644719177703022
0,652616954567357
0,654658156100974
0,646939681410849
0,661774166907686
0,686124736439747
0,661606243065764
0,664013243653543
0,647367203403775
0,652781182178932
0,712131314936864
0,671550393970603
0,671416081616744
0,684728831654259
0,702060713223607
0,698297536222465
0,701363445991496
0,682173600421387
0,694116430988224
0,73732226911168
0,696578396046192
0,679974560066919
0,742446373977108
0,725544881419223
0,690196880629211
0,706746897085717
0,721114100220788
0,773583454717537
0,715072994845106
0,706385541844589
0,727116074929706
0,741855258159341
0,777806911594991
0,736588193470022
0,768149319283607
0,820981449831291
0,752405387397523
0,710544834050879
0,767123771119247
0,771437996720805
0,781541676708879
0,787940553005557
0,80620199762258
0,804931005654184
0,78500251418377
0,811132019643391
0,839331799168744
0,777485122246628
0,784031934291972
0,810334744309631
0,847910765186954
0,909611561372067
0,86632407920694
0,808536899096707
0,826862267349342
0,831453405023104
0,823252249704044
0,798537784679305
0,774249904711803
0,832766901599406
0,904129775261986
0,814989423154443
0,863844234631654
0,864385513248055
0,809356520352299
0,833268740104825
0,856433343460031
0,809738715611299
0,820652388221818
0,853722927122279
0,806212622521422
0,79921986194738
0,912284632947731
0,962823499386266
0,996138423473042
0,969863695765594
0,88020739964474
0,852499188184828
0,880384695775208
0,92446422363507
0,913515230734894
0,904540677346266
0,908703546389386
0,961249345762645
0,922465483706575
0,860328466550115
1,02659054769062
0,818140520830452
0,902843526892036
0,797446080597854
0,806050962387595
1,07788842414863
1,04993172687532
0,973913639070437
0,971686247327051
1,15421789832826
1,01524912423691
0,903579592727288
1,00078505675837
0,875819840860868
0,831705713712391
0,804927732397708
1,0338503359314
0,944060921195501
1,00792489176348
1,0056317275389
1,06921894672237
1,11415802000383
1,25990334209155
0,859991395715504
0,72499780780861
0,792092812692539
1,05011630743984
1,42751752003598
1,18593687999037
0,879484817968007
1,18058414425887
1,5756980504365
1,16967821894927
1,28266105306437
1,52892431316246
1,10493207678393
1,54177319399551
0,885676440067218
0,852525062864815
1,0398527844333
1,16819367427687
0,944344989694576
0,869951281801683
1,13290631472205
5
0,908545810190832
5
2,21372925528763
1,68138668480593
1,1985345239398
0,778543522759687
1,06732115250203
1,0667028925554
1,62781933567892
0,91811998603229
0,609632723288176
1,19848733753454
