3596
4000,36533379555
650,420452594757
1
2
2
0,0511750191460651
0,0392830698936532
0,0443238488819792
0,046072944673227
0,0428122033205716
0,0504601003783533
0,043776708825532
0,0517404010996149
0,0408679159907808
0,0476699014846239
0,0417878821192658
0,0493021067350793
0,0381458247692526
0,0444831618267274
0,0332478110901107
0,0514812993470199
0,0471569777441931
0,0514421886450607
0,0436945719207562
0,043892399495459
0,0357366408412823
0,0481703655083229
0,0377017748662347
0,045909131999531
0,0483341181023631
0,0505048570667269
0,0446644278761624
0,0459067289425635
0,0434370200511443
0,0506244807400481
0,037925432160015
0,0447301380339037
0,0473309957325107
0,0489746880907943
0,0430781471775451
0,0424904246577937
0,0311689553913914
0,0483330672242819
0,0342492408340879
0,046847647571434
0,0419483676216498
0,0478093366175681
0,0483806328909065
0,0494670590390856
0,0454084066682937
0,0566866709765053
0,0392961137707919
0,0550022406667324
0,0437450449166326
0,0516600300924537
0,0501527893935487
0,0431398835363438
0,0497019079325714
0,0556930823533936
0,0365161521268063
0,055526307695807
0,0417728168641236
0,0441004389765675
0,0438342855787327
0,0443851519041617
0,0547944964871568
0,0527694701122634
0,0464622809283822
0,0422879163097269
0,0462640968279844
0,0538304785849924
0,044023031003001
0,0562429686660591
0,0390489344677082
0,044529637545159
0,0330980197745795
0,060144481217211
0,0432188491142174
0,0543998070818327
0,0485055439124476
0,0505266519303126
0,0370264057718056
0,0530014346143007
0,0330145811958893
0,0575948844898714
0,0541251444936404
0,0654275907534093
0,0407156479478097
0,042442712945912
0,0497139731348417
0,0604086903969758
0,0199814845396584
0,0494111358291469
0,0350590546947971
0,0546188670153061
0,0371017276396156
0,0549541117547143
0,0363116924793028
0,051468763396226
0,0376825888452377
0,0492351445701592
0,0382212397102366
0,0597299236570947
0,0325559286499782
0,0621723489850584
0,0277325665247595
0,0815436321947003
0,0510487273779582
0,0309541552020188
0,0722265664775004
0,0427321205246635
0,0456004122646367
0,0713378418099783
0,0452747974714258
0,0503412454924229
0,0395540785262537
0,0366827762565948
0,0427785613110748
0,0621014599181315
0,0270961959231282
0,0701593768069087
0,0478056598882002
0,0617866637369121
0,0394357120474007
0,0544093222923365
0,00724223757619244
0,0732116119404036
0,0481313011834185
0,0525742065577885
0,0419771231587793
0,0421058348468799
0,0157465752454144
0,0749697003892728
0,0440026185922342
0,0597681017742417
0,0376512354672679
0,0595211178163643
0,0248350744327214
0,0489643732952828
0,0575462406315278
0,0562414444614761
0,0383513945871104
0,0273079872483126
0,0404832582099044
0,0752729326871528
0,0547628714464815
0,0525536716914236
0,0185618458954442
0,0561340217361959
0,0547569353126399
0,0540992272032416
0,03294566578858
0,0646145162539741
0,0373336584487408
0,053696210072309
0,0348074000709117
0,0488553876716168
0,048974365851507
0,0653080248246858
-0,012463533981118
0,110493351139254
0,0380047441916688
0,0833376679115504
0,0772273865172602
0,0511492398278817
0,0407111228964057
0,0468138840424344
0,042648365354802
0,0377447666480974
0,0500010248039795
0,031763389030676
0,0440336269186625
0,0562743140003695
0,0388719319797839
0,0378971335630149
0,0605295892358648
0,0420974701975051
0,020354478351188
0,104299154394783
0,0356324515338323
0,0504660162868042
0,0435116749172786
0,0585288886725836
0,0214344330728456
0,0607688933892494
0,0590432853640615
0,0505410630712968
0,0412608746581747
0,0460766068333704
0,0451982940811688
0,0677246035206331
0,0416606688049335
0,053253658420002
0,0309755480256424
0,035133771958159
0,0385654434723331
0,093819379193069
0,0519352997031073
0,0610659660518028
0,0354303243391463
0,0168064244762379
0,0736052951131921
0,0650313716364107
0,0392920694527445
0,0486467929166772
0,0416741068220242
0,0509386037454728
0,0345283809731715
0,0570450126107263
0,0266069067057193
0,0324434543025936
0,0741871115697534
0,0600465942759723
0,0558312777293578
0,0499243354713701
0,0375604418002294
0,0215171503742029
0,0902417654609691
0,0669375816308617
0,0550329472133239
0,0489160636928944
0,0362111982686323
0,0566570572749891
0,0483807512375378
0,0575564928339273
0,0446200702977832
0,0506630774705048
0,0496500605861196
0,0481704777102537
0,045421414196138
0,0499005413290861
0,0454476694293147
0,0572649940762836
0,0429489770879203
0,0509297408820294
0,0519589494031853
0,0568460017717039
0,040064060799338
0,0566337373223533
0,0281995710984185
0,0604875785809112
0,0538741983654966
0,0538213846940551
0,051441807575231
0,046337114743915
0,0439471918991099
0,0567700648345862
0,0436566068423365
0,0488717958202221
0,0408503541447541
0,04499250602705
0,0771493494688414
0,051823019749234
0,0537511664883507
0,028783412450898
0,0787509630443867
0,0495936586297643
0,0566073761807374
0,0456738535690707
0,0541781077155128
0,0432371950929397
0,0495458261662616
0,0787930064751516
0,0522305581402956
0,0439084745546434
0,0685965168675163
0,0553501025636685
0,055395737434394
0,0392527952030062
0,0242134561002473
0,129917286652609
0,0420744842148678
0,0528770856440653
0,0914857422488825
0,0553470337043262
0,0702760217403191
0,0366186250561551
0,000243954780195646
0,156223528774625
0,090536648088077
0,0501322351463464
0,05305773435391
0,0806163551972592
0,0419110769976967
0,066825809400417
0,0441384958116945
0,0773098235115888
0,0387007004402394
0,0685421494102057
0,0979464568793073
0,0310208181611238
0,0838069685387367
0,0593150485686295
0,066183955806016
0,0524776800357098
0,0617898182509803
0,0456726127778339
0,0656578516046229
0,0561287113157981
0,0737907256812439
0,0627457084180292
0,0504247480349401
0,0771000146852859
0,0683836981695883
0,0611142968367106
0,0636516608008535
0,0793915706565934
0,0571704029584963
0,0729355968202934
0,052095275395198
0,0825318339721615
0,053752275002728
0,0638779011905936
0,111184980542942
0,0784946720120688
0,0672162093008119
0,0953001456114697
0,0743607743996846
0,0702566770193899
0,060629327263046
0,0786662552799423
0,061805298307596
0,0756790204228865
0,0594330928455602
0,0992759655741776
0,0739848243187351
0,0931104203941256
0,074917651202368
0,089506734587414
0,0787390755978678
0,0936135422560565
0,0747967785194528
0,0920001490834171
0,0876176948419718
0,0750748969028995
0,0908414568517228
0,11727128905497
0,0571467884366212
0,153928918454953
0,105275473736103
0,113461940767764
0,0989456744896484
0,0999215147274131
0,101960020486373
0,105812457628769
0,107925481331148
0,107817787508081
0,102580741359281
0,11761416066665
0,118658111124805
0,121927201138014
0,103865345030336
0,148359444743893
0,162420522441532
0,144622991588661
0,135202314641414
0,10245398965654
0,18034381578162
0,154729915415934
0,159343600182107
0,163760017760087
0,131957758600269
0,164610031660999
0,143330990744029
0,169464330974889
0,145485977272256
0,181287992979927
0,159834141314795
0,181058717701198
0,159727922271319
0,19857161773347
0,160152755464066
0,192038572009705
0,20637210452177
0,206883813839304
0,181823432893847
0,207752663544808
0,16917430226776
0,232930268981962
0,17077528985092
0,270512746882535
0,197022098325914
0,23028258649486
0,244552979905179
0,220674125973642
0,228930282680048
0,219321586327395
0,219361331422174
0,242459050549989
0,229122856110471
0,23424285560368
0,232161738581571
0,251528424794695
0,246163381764203
0,247324236550045
0,245197402640719
0,25363991890568
0,26867518253653
0,260093938238708
0,26749999390347
0,253994621122208
0,282082413368626
0,317408364117696
0,307597596053929
0,274095227763156
0,265408372178882
0,280021672251931
0,271249154006646
0,285809727860179
0,271171952007752
0,298634336881722
0,274999020426427
0,326556798217227
0,285353129747887
0,342733579851373
0,316162677907942
0,291574427381787
0,315089080575696
0,312647230840824
0,306365726479243
0,336133642438803
0,321691886875403
0,300968968099191
0,352782140556135
0,353454723984165
0,311960017207271
0,361707780960185
0,309578834631868
0,334537709313499
0,311689495599979
0,359420393067208
0,327258498210418
0,392040337064859
0,329323862494047
0,363499412514874
0,357130214766407
0,362361475573467
0,332003407873885
0,379719945668404
0,355242876857419
0,363471790535383
0,356970357365733
0,368202314515271
0,374687701476174
0,369621416037023
0,397657145595998
0,404456689173087
0,361491898974486
0,421290821354286
0,370448812483208
0,399334448034987
0,373987543999182
0,421765141969789
0,384624231659792
0,40406616143027
0,3792457740673
0,418603155474472
0,394343103961483
0,40125947678582
0,40647169293304
0,425816533439032
0,408476239500256
0,42978516107784
0,401628921825754
0,436394596437749
0,417197824510273
0,431717102095215
0,453070687600916
0,458938564300489
0,438681753041615
0,497328460444146
0,43112586018696
0,470009499524799
0,425515076747077
0,469048106279361
0,427040816928569
0,493934074348102
0,450194858146461
0,465805406773957
0,436739204332107
0,496785433696088
0,446459681246228
0,497120086505454
0,46303651267035
0,488410472241554
0,474490813477456
0,491115954564853
0,469516485581717
0,51683181206469
0,472247101734445
0,52787446831897
0,482040739455878
0,522041951178314
0,490566589116118
0,513658058552525
0,513975281494215
0,533394736879608
0,517350927441983
0,522631358088017
0,496903829850805
0,531456139844928
0,509478172546864
0,543784592339515
0,501255731720537
0,546194309764214
0,498269705431471
0,568513430555613
0,524991467826729
0,564486225188057
0,572839662943696
0,573134280511992
0,546612072065795
0,603603616192364
0,544611741527521
0,583399565909631
0,558735315607785
0,614858480081766
0,559031614003488
0,609817115184237
0,543784116409373
0,593202301941623
0,57514438563406
0,61836098610598
0,557681615544519
0,617220898555121
0,571523809068802
0,613193872432091
0,586865443553815
0,622399924835221
0,578322075861764
0,640170560321925
0,586933166771801
0,609880979697228
0,592963348679815
0,636723317680865
0,620745756466536
0,681116422508994
0,609349604173786
0,643265381286279
0,637117670490959
0,665322612179918
0,618714961932499
0,636208238980406
0,6206875469467
0,660959007836626
0,629401425281144
0,67838460178393
0,676578030925572
0,67705968716767
0,642954054700407
0,707793940928078
0,679577992244138
0,688264878593002
0,671381380104236
0,709772640408834
0,690911608842611
0,692081690387803
0,691252806439293
0,704592104670942
0,695122480406478
0,734157081916583
0,67099863034582
0,702614350528803
0,697323220601202
0,733464596233824
0,683222297184812
0,757669436028754
0,68197460940734
0,76595349968945
0,723583441687753
0,73061487314526
0,705871051622956
0,712432472608915
0,648392373102271
0,756932586792131
0,732806292774285
0,764938490016174
0,745415264641657
0,791277344797279
0,780320822141297
0,773773962230798
0,751592382323433
0,760006289105933
0,778203381859017
0,787614193058425
0,741366225304399
0,811234525708925
0,781174153616684
0,813396971195958
0,776434771517604
0,793049187326935
0,775143472915189
0,820118630275764
0,738844341673098
0,806517872097593
0,760326717769796
0,801942165362486
0,777121320499473
0,805503118579728
0,830685068922842
0,847383087639741
0,808537695837858
0,858225371234162
0,810256034305877
0,859420460217871
0,825367732794527
0,879379724690435
0,787432088931558
0,879103966205038
0,833683328982421
0,859476249696141
0,831580800039339
0,884273140776328
0,820810560016424
0,907865628380647
0,802231965572175
0,900090460169974
0,832383371224971
0,869295783472163
0,882892531064154
0,894671001262959
0,855006993600254
0,908005887707809
0,856500705230062
0,879983634322199
0,835052838833394
0,901662143613469
0,844826158165813
0,968459308088287
0,911448531393399
0,912988632733822
0,889721008958942
0,934446122566043
0,885024421094008
0,941111600656498
0,939384472321804
0,941393144876108
0,9151018845497
0,956612754815823
0,92525729031185
0,962119256854291
0,909178944236681
0,99029215878563
0,936940942575682
0,930658267969904
0,900515357118692
0,926994832385239
0,895400645365098
0,956992863318541
0,912902772105524
0,980884688166588
0,92713924858026
0,976358076452308
0,901390832734932
0,984323615538484
0,992987112722189
1,02505037419726
0,946695187474412
0,974764990072838
0,910453087568771
1,01057219553885
0,912230068516127
0,963562215896794
0,954458533353688
0,998827181664502
0,9956927184107
1,06065263985889
0,998333136174049
1,01112196627731
0,983816487851308
1,00525745127098
0,971958993443419
1,01366732630786
0,992428722169974
1,01318508490379
0,945109994186815
1,00987901209994
0,937789139964563
0,953802435825917
0,971187679609608
1,00386533892387
1,0031554796981
1,02540001985832
1,01882916258688
1,0073991377174
0,967328916811991
1,05071450635697
1,00854543426052
1,04697581375988
0,964800897958697
1,00858010789413
1,02373928352848
1,02373989545828
0,966364130777254
1,05084416996958
1,04530745836575
1,03692712354809
1,01116700182738
1,00737140415194
1,00366231423859
1,07896602122432
0,97447621717824
1,02721229704146
1,02689206959856
1,00930669409346
1,04226381521848
1,08022702617884
1,04704747734438
1,04230406270733
1,00397838238126
1,02089552885064
0,938357757367231
1,0163839317091
1,01122889868416
1,09307482102494
1,00328669239813
1,06349683603863
1,03850619857164
1,03532917630577
1,02400897764297
1,04561990965207
1,00169909203069
1,01329198902632
0,980604571629269
0,998504247452479
1,01427191330705
1,02229285151146
1,01404993239943
1,03417906121928
1,01213948618498
1,01083312013966
1,01396824841617
1,01893963272578
1,00408477276815
1,01854751758649
1,04100300152508
1,04264472788011
1,00630036992099
1,06442024167887
1,02971790760555
0,99076524773208
1,00311430361392
1,04464671695789
1,00601463504433
0,990156423139581
1,01883315502076
1,03196634477059
1,01232457636703
1,02781406128202
1,00151868765533
1,03703605152258
1,00225292640014
1,03265671340963
0,991417858163029
1,00788398320199
1,01646872267704
1,03649135153279
0,982242662801165
0,982221558043618
1,03112659909855
1,06719738934962
1,04268962960677
1,02360645279676
1,04196361550073
1,07361430093476
1,05124786212946
1,03679670914177
0,971275305996328
1,01309963184939
1,00647669894585
1,03138050785376
1,04011402916829
1,00971467610555
0,984832088884024
1,01204783996286
1,03836821894843
1,02623353372283
0,998379816251879
1,04143713299164
0,992515662269322
1,01781571680035
1,02702490380974
1,03614329212849
1,01928032263135
1,03770480907496
1,02202891486637
1,03865810428665
1,03880408225923
1,02576589668323
0,994021086470446
1,02984778036318
1,01819340922622
1,04533161355658
1,01468875967905
1,04658053114821
0,999146127805555
0,996925217619273
1,01086178125297
1,00310907269047
1,00248272136541
1,0093286887755
0,97941175139292
1,01934814265134
1,00014348494366
1,0041061093199
1,0364946987876
1,04161623014403
0,990955405121593
1,03781171908604
1,02403354331669
0,997067980959401
1,01964911912629
1,03897212042588
0,970363311964499
1,01837937068925
1,012363642837
1,01214128885689
0,999238001581555
1,01756624547379
0,991084298358192
0,990143562626524
1,01200699465725
1,02003294429756
0,982078274474511
1,01612616401207
1,00425561628188
0,995969928776454
0,971077978362098
0,99048791234977
1,00976676220866
1,00325824234132
1,0010970679548
1,00420484791531
0,959690052411977
1,00481135207124
0,99478487170083
0,982468702444909
0,96974596853432
0,995695364063393
1,00613516821071
0,995359816656717
0,989685481904299
0,973979025852259
0,967570901363335
0,985451788879704
0,978547574600049
0,99228524041438
0,958746459755911
0,945871343163594
0,951601497478676
0,986278248832242
0,965109269257726
0,953329228258587
0,952594028665954
0,973047954792071
0,949207768598473
0,943593890216737
0,926785640426226
0,924168976998078
0,952475725621266
0,942220651332832
0,916737330423594
0,914949237190974
0,903073214039953
0,939836485529775
0,91556472669577
0,89893156093733
0,913197509258851
0,940667897198303
0,919749373778423
0,921741459297426
0,915345364749458
0,922385837045681
0,89305983671247
0,890980895260698
0,883110671386122
0,893038524598585
0,864423901853467
0,877670908747228
0,894002927621985
0,903933642565682
0,871549919722286
0,868585791488518
0,858069757629407
0,867976852986788
0,881733481010344
0,86870130349386
0,845743529169564
0,851850850539722
0,86327896016429
0,845580098497385
0,841011567212775
0,843798291757865
0,847599822582569
0,851846807353563
0,82963456098942
0,826101916090408
0,808912056439528
0,81656458289147
0,821932913195132
0,825993961238106
0,816031998888265
0,804478767770511
0,774748663460639
0,783505359443259
0,773404894703951
0,782877762956717
0,779737604786362
0,764803254282884
0,761517380283186
0,774980206942115
0,761332219389939
0,742403473877149
0,745523826348812
0,760627503344014
0,739078989464864
0,752911625953162
0,753592172183657
0,753816901675912
0,750601141149693
0,735770875569035
0,727063187003958
0,734092878701332
0,716935578637596
0,712175432144974
0,694345315440398
0,701379636607304
0,696419909194904
0,695166044070535
0,700102667017521
0,697118832538601
0,700718504986303
0,692291864559463
0,66387532653983
0,686361249109708
0,66873277010337
0,669493821108817
0,667767555777922
0,664484040867993
0,664080363008654
0,654646070855296
0,647771448458309
0,654415206655524
0,643999608633404
0,650330837712266
0,648822466169529
0,638985749923844
0,627743629981745
0,621037008282184
0,614911701884924
0,608181561971871
0,610171639025109
0,603078199441613
0,601724776577339
0,606250395685855
0,597632973376352
0,597363247349252
0,598230560079157
0,594099241810215
0,582937777463375
0,572803812706692
0,56916195230213
0,574702692492927
0,574617793364778
0,564006255267318
0,560473548997633
0,566151612238796
0,566653283984643
0,561717182327032
0,545097998592765
0,551956031075284
0,538663378117085
0,532886219194696
0,534556794790372
0,538153486159847
0,538329822990425
0,526528546881671
0,519316545665419
0,515002913363084
0,508451174126461
0,515555355486782
0,509337455800709
0,501091455770633
0,489993383663269
0,496312317746218
0,501158644750581
0,486868167315493
0,485405472256398
0,492097293631076
0,481160341550057
0,477378759075738
0,479300622899293
0,474676343126437
0,475942047118215
0,474946293348058
0,47167173532704
0,460243502084368
0,458233122784319
0,454860847817141
0,438581644978466
0,444485060330309
0,44644406297905
0,437760358756684
0,439287422811358
0,439395079612179
0,429593037828357
0,435622027987792
0,431748713573953
0,420257381237979
0,417395293498216
0,421989110325231
0,4185147501121
0,414808067211941
0,413870398955812
0,415739547940738
0,402888242387055
0,402203466356674
0,401602201880858
0,393848033721793
0,393118664633438
0,397742670466591
0,388716635532243
0,388765796011383
0,385637397021009
0,385530572460977
0,380395040378682
0,377463107202044
0,375585609058146
0,376033087035843
0,376148709842462
0,370349512137791
0,359757587229789
0,364185841046833
0,361485978205621
0,357217662476156
0,354309851480596
0,357033119150401
0,346027300877493
0,347225290559907
0,345129773492365
0,342250796416368
0,341004612237746
0,346360299297802
0,331896944582577
0,335439916002083
0,331484680385595
0,327410198439419
0,322741460859525
0,327937304750938
0,326498780406854
0,32157257113188
0,314455531009419
0,312892392303473
0,314645628054178
0,317122840797544
0,308654015377792
0,307726635635382
0,301624351138667
0,299937979973347
0,300669324372618
0,303391097860343
0,292005348455244
0,290794482921752
0,296089524329595
0,291860033912921
0,291336528241193
0,291459884457533
0,288361778669032
0,283678160677949
0,279012074308287
0,277215913178482
0,276390611710571
0,280430155889562
0,275388949994258
0,275597694810919
0,271098979170724
0,269085708930239
0,267725927270919
0,262941538252426
0,265067358714993
0,258919381768874
0,259691747988608
0,258681382809845
0,253447714840634
0,259878734794769
0,25691617823898
0,25062452577751
0,245015114949676
0,246292132961268
0,246339530192788
0,242103598207
0,241290071560447
0,248276228750338
0,242000426047724
0,237001731686737
0,235266014311273
0,236288684642962
0,238758657612654
0,235081954398369
0,231771766926809
0,230457032938284
0,227627598659922
0,229536304538622
0,222714554058822
0,229810740951744
0,222676407510555
0,224921467245188
0,214685633860424
0,224500036155294
0,223030652788367
0,219187284918068
0,217898032269573
0,21530035672707
0,210229127632543
0,210747796148507
0,211655138747097
0,204762452680806
0,201854597382611
0,20790044292264
0,205201253053771
0,203316349105027
0,202541648897334
0,203869023534947
0,202869150704774
0,19645479326078
0,194026321875101
0,194838171760244
0,192040516105354
0,194807805892758
0,191618912458759
0,1916767801561
0,192689671965687
0,189790370983805
0,193406994430207
0,193013636504867
0,185478163679196
0,186896685497073
0,182459397130274
0,186819468972553
0,184797499047149
0,184209887188874
0,179690181109898
0,176545762061878
0,175282000610856
0,18098181329854
0,179445079200832
0,176044034213088
0,17542427527704
0,181969221523563
0,170318494203049
0,173630262111017
0,172177156354217
0,176792882316075
0,169878833657482
0,170494409755485
0,167407849907233
0,169462976011251
0,166862455100127
0,161589388587974
0,163258856965706
0,161768530334767
0,169640177670897
0,16505153002319
0,157533702134144
0,160709015783884
0,158688609405381
0,158632713284856
0,158785115723707
0,155139980424209
0,15535971458731
0,151236332000683
0,151054890884249
0,147049004665939
0,149769160297078
0,151420695590164
0,146023542464368
0,147016795563533
0,145088162468356
0,144962834633763
0,143565146394542
0,140694296531743
0,141579595733892
0,138745563598111
0,146340610492188
0,142391676590924
0,141374210225167
0,14023153958259
0,138710439405099
0,140917755899759
0,139969790951989
0,13336921451247
0,138477280858035
0,135656679977696
0,134488077395512
0,138024738655854
0,135141681070989
0,128378750980997
0,124645611736737
0,132832477027168
0,133736864625275
0,134321090231816
0,128293296072257
0,12651601087308
0,126310586861105
0,127351051815688
0,12898482705431
0,126207688915656
0,125308093484123
0,124707167469696
0,122408149717959
0,121900093412541
0,122510719145911
0,12470793014299
0,123599988640846
0,119057727283267
0,117796997752682
0,119519566867715
0,117119956119904
0,119136618354149
0,116554411449983
0,115317908493756
0,114353312206913
0,112702085486753
0,112814590640869
0,114556370144499
0,113591968951534
0,114271727968057
0,117423780260129
0,115270926475223
0,115872945677639
0,1132020940806
0,113589287891858
0,112329922066725
0,109197237041703
0,108801427039315
0,112677630893706
0,105051051096927
0,105798587007709
0,112522864619869
0,10939994320628
0,10809728494127
0,10738823720188
0,108343783439141
0,10354149257913
0,104717175553951
0,107255317623517
0,104057002677069
0,10096633971289
0,102792761280877
0,10479995510815
0,102088652024579
0,100958209488847
0,0990885892947826
0,1002336826688
0,102523836293832
0,0999326827364536
0,0974774506262398
0,0959204721394305
0,0987368774449862
0,0958830892604177
0,0942745043990084
0,0977312536112126
0,0948960687043022
0,0963195056155659
0,0973655968734883
0,0959690769747415
0,0952802653229352
0,0949407920131886
0,0964305537846504
0,0934124644809413
0,0949216394336055
0,0919026436625255
0,0948797079156818
0,0937630785492262
0,0891172548541643
0,0914265270070357
0,0932908935911926
0,0894453820974872
0,0928968346950474
0,0888742681260709
0,0884260991005939
0,0906905114539449
0,0864176148574107
0,0905361666378321
0,0878879061986394
0,0880289909005416
0,0863420202562692
0,0869017175732369
0,0900883810944096
0,0888806034804613
0,0886307864344979
0,0835663916446866
0,0856662554271569
0,0843430074485609
0,0868617855385163
0,0855405805819577
0,0824419447708151
0,0850906389272541
0,079903424825175
0,083840600643628
0,0843736192518657
0,0828980213810567
0,08104433219029
0,084431199708915
0,0865614326086018
0,0835582866237188
0,0831461218289258
0,0845248408775805
0,080004321820257
0,0849023217015374
0,0790385647882567
0,078631123973519
0,0827921484641631
0,081355018975564
0,0828877306227894
0,0774948247123821
0,077385039865816
0,082769402233112
0,0788740547378209
0,0776263584375362
0,0776113674329894
0,07979022455692
0,076130698589394
0,0811486326009053
0,0794480469535214
0,0781706731868387
0,0757119466347847
0,0774708689565956
0,0786195089724947
0,0764530976277219
0,0778641158146169
0,0793452114777024
0,0752325928887097
0,0760180237760658
0,0771957141081207
0,0745125267972599
0,0736807046699001
0,0745269934347795
0,0717248537487854
0,0742591914248572
0,0755068940647766
0,073747454654934
0,0776360315317388
0,0748908302368431
0,0720627844357418
0,0733448521027878
0,0752905650624334
0,0755112940595987
0,0738841293681342
0,0733591066352887
0,0708376381346288
0,0718390112052444
0,0686494890153566
0,07521515044218
0,0741064518340183
0,0686136028961342
0,0716869975925118
0,0754744181355406
0,0724763732313493
0,0721497534408005
0,0686345853042657
0,0717574221389696
0,0701851094358188
0,0717378422021338
0,0725530012531067
0,0704911247463648
0,0697991126382605
0,0714332992114248
0,0707010077217841
0,0732167067575423
0,0685035670851707
0,0682307014152174
0,0690794040853035
0,069037735823837
0,0727622491316401
0,0670092564072343
0,0652113629747859
0,0705409086693272
0,0691594887746558
0,0680185099348559
0,0691312346569125
0,0700557346745119
0,0667133673571848
0,0680521728031234
0,0691047874046431
0,0670722149160945
0,0677211163597316
0,0687909963161877
0,0688914594481498
0,0661786955295544
0,0690986455380519
0,0711749427922229
0,066405854168764
0,0660739737883426
0,0666534214129209
0,0693507575472132
0,0626884032345067
0,0668470763829709
0,0663245952340662
0,0649277321034689
0,0668853333166194
0,0646762946684014
0,0635950272252604
0,0669745100955894
0,0643332375949752
0,0689937407106516
0,0656269976981942
0,0647753893243042
0,0618163091554455
0,0650343115331625
0,0641837195880768
0,0649976875021331
0,0679996074341394
0,0682320604426047
0,062680460511494
0,0673051670540345
0,0652501847337087
0,0623878392835056
0,0601073808160616
0,0633950743342768
0,0624843039058207
0,0653270771400045
0,0642004444974441
0,0663975166326993
0,0650923173656521
0,0662743114032215
0,0615256413576141
0,0622213058992311
0,0629782172514939
0,0638021929379411
0,0623660648797453
0,0626947295091725
0,0625399813105274
0,0652894073438162
0,0613496784473573
0,0641371909515883
0,0610490225018385
0,0598568686966287
0,0621618373920057
0,062046265711735
0,0637310712111142
0,0633831929612772
0,0648929908967241
0,0662476374302108
0,0622794004226067
0,0639170556387827
0,0609801134245919
0,0612835075437695
0,0646487559816815
0,0630680895936292
0,0606880324891073
0,0645180242867818
0,0577590520787201
0,0603807431401475
0,0624432015899163
0,063365519204944
0,0599605104222938
0,0629215276067742
0,0592024648183222
0,0640343378295926
0,0572128524552697
0,0610518221666208
0,0596942905856445
0,0594244989810891
0,0597135897823956
0,0593235369764898
0,0561779759248588
0,0630704801159036
0,0605906103094015
0,0636723999738242
0,0595630880118807
0,0613486095235216
0,058587592281336
0,0608236260665969
0,0579443542926707
0,061505274077189
0,0596136236787222
0,0598458295245691
0,0613182787735144
0,0593334123405062
0,0605381148920389
0,0615768359359643
0,0612596773883854
0,0622032838907381
0,0574764597412844
0,0600440709898628
0,0592352907051498
0,058721937622954
0,0594808918198897
0,0607080544920388
0,059625145083385
0,0606264819993802
0,0576636271445954
0,0620734050830942
0,059390661374073
0,0578639019979027
0,0561720625501474
0,0605995780383123
0,0594640994933046
0,0639371332689857
0,0589330684807014
0,0600073955562559
0,0612055581290638
0,0610109156817004
0,0577740614310529
0,0578641326219157
0,0611839379747809
0,0590493272631746
0,061269471299357
0,0596375806533161
0,0613778661593438
0,0647039614759969
0,0593305430327858
0,0631186757044636
0,0614396220376252
0,0604686742366534
0,0572659403750134
0,0608042223962719
0,056193485344719
0,0589864440411996
0,0565122160370423
0,0577024274154386
0,0588564954125288
0,0593546739198786
0,0600317560602431
0,0617855238940925
0,0608871360062429
0,0581488725717272
0,0578355238923234
0,0600055804480796
0,0590888129031746
0,0611376210826472
0,0576914718405151
0,0591998190648167
0,0605121141206651
0,0602058588497158
0,0570168097140946
0,0584717424697157
0,0578820850406726
0,0582641400541892
0,0570707520169534
0,0609284470054549
0,057366871135665
0,0611477493795538
0,0604677680240362
0,0605632308309871
0,0582925385986067
0,0585116112843443
0,0599198584005274
0,0605622230759045
0,0574387935970982
0,0625102887148625
0,058531384699986
0,0602469023939785
0,0586739403997559
0,0563187652866478
0,0595284337183468
0,0626809811164484
0,0586154892745738
0,0592605495814111
0,0589826769936213
0,058613834111273
0,0585136571417059
0,0583292647801188
0,0574850262996387
0,0621700830855666
0,0626944972383595
0,0606949569065051
0,0582439929045716
0,0624215922533575
0,0606862731380171
0,0625806520957973
0,0592017762792756
0,0604049015519401
0,0589703082114216
0,0603300607646376
0,0587695079464507
0,0593823055887843
0,0616733557190987
0,0609122700362678
0,0594375337162227
0,0593939506277827
0,0577917147049625
0,0626497120918688
0,0570631851779201
0,0612424055684218
0,0589299779321494
0,0589408457336107
0,058860561101049
0,0631450294301211
0,0598351639087252
0,0597579446924901
0,0579101765357604
0,0589205400369397
0,0607627620829066
0,062637392158257
0,0614120489112992
0,0595137343203931
0,0607487051263666
0,0629485011702053
0,0578635345498189
0,0605360989749903
0,0596134743031253
0,0620361039986283
0,0576598326235282
0,0608748208969928
0,0608783926395268
0,0624332873233419
0,060638209052607
0,0614942436757026
0,0592142367729534
0,0593854064460712
0,0603397690641357
0,0603285555209362
0,0611706954394675
0,0633692191397173
0,0589999215628287
0,0645541219375758
0,0606460803029887
0,0634212577994793
0,061050901826758
0,0618335146311272
0,0606169947121405
0,0612240111674584
0,0616018304532519
0,0642203813909907
0,0611610320346664
0,0644184029553979
0,0622483804436434
0,0608855842443482
0,058997929576515
0,0624925234485611
0,0601319462325145
0,0615425198659032
0,0580896904759702
0,0629506253165864
0,0625381590368237
0,0615616122114639
0,0623483657916285
0,0626739184212492
0,0627294430594554
0,0629782445308266
0,060956621636988
0,0635335592956739
0,0620462041834554
0,0636150464870213
0,063944742309932
0,0611580825830258
0,0604486602241576
0,0633607008271416
0,0622329791983253
0,0615875654588149
0,0613918965850816
0,0657835469213072
0,061677386679189
0,0604656690487133
0,061228780142547
0,0608626240733095
0,0641742243921172
0,0665761039013473
0,0635521484617144
0,0593148387139793
0,062210041721216
0,0636599498103741
0,062416220769046
0,0637668045747138
0,0633214201128019
0,06509006392187
0,0616756207169323
0,063219156644624
0,0629109797119976
0,0631783383115781
0,0617003321829186
0,0635804409470442
0,0619510857092838
0,0638336621978962
0,0640648991889758
0,0639100858412073
0,0634206659347901
0,0649552747477254
0,0665155323371775
0,0638396424678927
0,0654647214183139
0,0657497586372244
0,0630637947749855
0,0655037715588845
0,0640428882078011
0,0661810784592008
0,0657429383390623
0,0647975097529752
0,06410489049327
0,0666507242509008
0,0662632989277416
0,0662043762436986
0,0638664765559666
0,067365696236572
0,066995314588159
0,0633627636737439
0,0651681958162213
0,0662549988026429
0,0646849932988679
0,0649156012640073
0,0661031867135379
0,0650448542719582
0,0660415250118526
0,0662762819961847
0,0639079507894245
0,0645336534830473
0,0663446272915471
0,0647516438289537
0,0640930464292478
0,0648061194202317
0,0675649633842283
0,0672042071011382
0,0653075243257094
0,0664451841588388
0,0673802095756308
0,0695495165059725
0,0660898493969612
0,0668862223374993
0,0674798366539274
0,0664860485284574
0,0663411668666241
0,0644399000554969
0,0655746451533939
0,0665842400243513
0,0683536790461024
0,0665676376670454
0,0658744502503542
0,0678708990165333
0,066951656346582
0,0657991343243814
0,0690387473303928
0,0689365823841906
0,0687313524959679
0,0678388915834993
0,0671293243360052
0,0688778217903541
0,0711565189878727
0,0703589299547026
0,0702907911991359
0,0696268087740164
0,0712762188964985
0,0706285153891886
0,0705756287246419
0,0725063346126614
0,0766053453694132
0,0772783422667529
0,0762484575741121
0,0731333261791414
0,0759914780579829
0,0798514692652513
0,0871237997446783
0,0822143824691716
0,0843615583761679
0,0779227032679959
0,0781972332020642
0,0759100639612007
0,0805854392775211
0,0837213202851004
0,081444874254238
0,0820611982127133
0,0907407846149518
0,0850351486395629
0,086895695428087
0,0832939289258596
0,0870781542872636
0,0876466932441622
0,0894008786912146
0,0827018305268486
0,0870564354210867
0,0828248262903987
0,0909234071934941
0,0748955626627941
0,083475776620547
0,0815662949604068
0,0818364237903864
0,070665484500294
0,0846318026809113
0,071187432669129
0,0867656947369721
0,0720269219329309
0,0882363119787794
0,0693367243267243
0,0954629577338408
0,068501242905078
0,0932389897802094
0,0689484033584158
0,103363396151561
0,0676665055428583
0,102933230204966
0,0686530810581342
0,10059424381224
0,0598825946096756
0,102090292887221
0,0626300325702519
0,113769296091407
0,0645995351028157
0,112727650981724
0,0566462972983439
0,107059274218972
0,0595382084721737
0,112600549996242
0,0580269727754666
0,103902025418943
0,0645914899533005
0,10758441017003
0,0719873732757793
0,0878533458016343
0,0823773425243335
0,0787817710478407
0,0929277212791221
0,0681603125527356
0,103019299346108
0,0614147392132552
0,104725716233699
0,0606492697186982
0,105748915161764
0,0613602596661485
0,101421709310451
0,0706786501678217
0,0879863637196722
0,0781138657782294
0,0793051269612018
0,0780843903980799
0,0805899770598663
0,0814081533073455
0,0818156970111738
0,0748117274017396
0,0844716289092975
0,0724617845329164
0,0839374350755777
0,0724267229135878
0,0860280052792053
0,0752151409326177
0,0840126023594366
0,0758725461709998
0,0816002816063366
0,0777240103598474
0,082374867995794
0,0750785787717256
0,0830410932059367
0,0755192282998196
0,0831126119067177
0,0746943981720459
0,082942058791
0,079466560201037
0,0820447305619231
0,0772769490274697
0,0823225008375908
0,0798340425454294
0,0842049316680897
0,0760506209402394
0,0834651876339287
0,0788596696964111
0,0825163035471948
0,0780634326683992
0,0825105671054239
0,0810603208842646
0,0867263269916569
0,0808769623303988
0,0846586474873948
0,0815259337606864
0,0863355974477345
0,0803810819560844
0,08426395085795
0,0816015285248094
0,0861004575211525
0,0818351824046648
0,0860681700141967
0,0837116846853478
0,0875848161087757
0,0825571819835826
0,089597332643153
0,0807006034048543
0,0900081977758373
0,0808886082398921
0,0878356328252352
0,0821616247146721
0,086271936467993
0,0827916829308916
0,0870342431907739
0,0830651509868376
0,0900096175623673
0,0839849009526631
0,089119342022026
0,0853227026329738
0,0880092845865199
0,0846942749863718
0,0880848517537883
0,0833183269923321
0,0900915725453972
0,0859233337969024
0,0867288641529537
0,0840932744590655
0,0891443939750113
0,0859900500036028
0,0905450514177815
0,0876935051031781
0,0900305211400434
0,0866047014880258
0,0924178911594483
0,0882490849425692
0,0904205321816128
0,0891015761092041
0,0892788064732021
0,0863063824206549
0,0917313301020228
0,0883693296561031
0,0904176091040949
0,0882919800619773
0,0921125612530651
0,0875928805796642
0,0930987736726809
0,0931957963514215
0,0923629897351841
0,0906739604043888
0,0937290776659087
0,0909346862040182
0,0949323977704285
0,0899120213760746
0,0941922698009608
0,0909538930240969
0,0961974943517059
0,0913382800485431
0,0946341050327053
0,0900366760454415
0,0929421608350008
0,0937912832299073
0,0961204739441269
0,0919681913459045
0,0958668736820878
0,0939472640557798
0,0967432398609614
0,0926437081632105
0,0965828105163618
0,0946599140739634
0,0975910160293009
0,0955399274130154
0,0981401910087028
0,0946976620674646
0,0990376512044349
0,0943060587984607
0,0971972342238366
0,0968882846621713
0,0977317832079111
0,0959828040424283
0,0975311647169797
0,0936503178170656
0,0979293294265861
0,0934557964858551
0,0967039381401812
0,0954877856775798
0,0989538554184656
0,096550400154286
0,0998416355927721
0,0949912796585672
0,09876169047152
0,0973752744807398
0,099593505752466
0,0990556964688347
0,0998674613907288
0,0987890939162232
0,100093529544023
0,0983697144799164
0,102094039358847
0,0973573114373204
0,101570301303081
0,0974146406907065
0,102176041124212
0,0993870589515945
0,102614956136999
0,0988117767512745
0,0981595490727438
0,0998420049120638
0,101895593739695
0,0979740378628564
0,103825590292486
0,100434836562015
0,103345562301758
0,102605504504116
0,103052013340942
0,0987449626435495
0,102915182073177
0,102033837856417
0,104048319763023
0,102869412552934
0,104991286873211
0,101665787747029
0,105742828996415
0,102061176059908
0,104079439286926
0,102617067878307
0,105576550074753
0,101739719912802
0,10280403092003
0,102238952457842
0,104261225258206
0,100894169981788
0,104689460014273
0,102481515202033
0,107128676545457
0,102795242145678
0,104238544450282
0,102668785037195
0,105414286561763
0,102150324169421
0,104396430601975
0,102019800504934
0,107243905046504
0,103939126907438
0,103639276254498
0,101083257830616
0,104614780766643
0,101745865265069
0,104669933140261
0,103331636310351
0,106561040125689
0,102267648770094
0,105050257253055
0,101856086125409
0,105537767930782
0,102327862609267
0,103787350912386
0,104934500421822
0,106167397607245
0,103001881387104
0,105123969019702
0,103942587563
0,105617190540196
0,101678274374203
0,103994416986113
0,103433987385248
0,106090673610643
0,101198680640948
0,103549191787797
0,101194980941757
0,106093091068103
0,103259592990331
0,105628307182976
0,104532381900196
0,10604137259717
0,103139584757909
0,104026196464568
0,103865685087349
0,106113389690003
0,103018559459739
0,104517569323568
0,100879380276059
0,105633769419226
0,105674726729129
0,105818631172744
0,101533874935538
0,103785184833494
0,101848264702603
0,104074776693658
0,101883459873821
0,103230802315356
0,100214470121482
0,104843782094659
0,100176037442953
0,103620280126531
0,100658898373747
0,103347493737416
0,100591113695195
0,102954244620145
0,10153497958247
0,103673286667651
0,100943629665277
0,103967454599253
0,101327015172684
0,102073437704083
0,100397473136937
0,102816447368543
0,100858377156365
0,102313545928131
0,100580337148338
0,101920028602034
0,0988136126922394
0,102896512545938
0,100158324699978
0,100914083676059
0,101470252817117
0,0998820975690137
0,0977225456660984
0,10132606697109
0,0991357282869198
0,100783226308238
0,0990692802468492
0,101992346818911
0,0991364199595638
0,0989100465309429
0,0973554483421632
0,0992873015807367
0,095578165212556
0,0986295954470862
0,0980445561181719
0,0992307778158619
0,0968336958922283
0,0992273079961996
0,0971267033649878
0,0973424186073222
0,0963786377264723
0,100950303577873
0,0971282613066953
0,098731940250138
0,096362928617805
0,099212416381676
0,0924849049556179
0,0964059243765397
0,0936395160868821
0,0953763034078151
0,0942410279268499
0,0984181290563612
0,0933007369076724
0,0947917362026546
0,0922058198711549
0,0940750576388891
0,0937427011384088
0,0954578920905462
0,0931738418077905
0,0936520986460635
0,0918931586733914
0,0974183002586865
0,0899253288910611
0,0936559690106305
0,0908639575945117
0,0943353051254982
0,0903112798668843
0,0939189651596055
0,0901734590289848
0,0924625410980415
0,0891325410661764
0,0917399880404975
0,0896630123337517
0,0884556926967033
0,0912522758788908
0,089887931002051
0,0894241978404453
0,0902935645675356
0,0893672670176452
0,089799810384584
0,0880390441546233
0,090285057679835
0,0854470287951671
0,0875738114946041
0,0864273396859045
0,0853872915917386
0,0860415305462456
0,087350296698186
0,0877666032339775
0,0858453301536999
0,0852516997761543
0,0879434582783053
0,0861506684656539
0,0855960347993887
0,0846588121824397
0,0849648628979324
0,0841049758982381
0,0790458790143068
0,0888387673420432
0,0848535057270162
0,0847387839089695
0,084729205146551
0,0854802010993456
0,0842243760625543
0,0830342438765733
0,0843355364578946
0,0820864341340611
0,0831686436522903
0,0807703435660929
0,0816811885212791
0,083562836137709
0,0833339825299473
0,0795764066696831
0,0839178677670706
0,0812171051522988
0,0814502493730447
0,0798448354463856
0,0818915207701028
0,0796317264701013
0,0799618181726625
0,0783567863565724
0,0818017099793378
0,0798523156011259
0,077389973490792
0,0798981338066491
0,0819408548284028
0,0774652489083601
0,0807153884380287
0,077153802989077
0,0781092099760315
0,0753668034923585
0,0786088867739524
0,0762152224977891
0,0771584567933385
0,0768084771441736
0,078905679862989
0,0738372710092076
0,0772494806088993
0,075515709604647
0,0784783841873124
0,0766763454118382
0,0755161878044352
0,0724305969319846
0,0788248112512578
0,0736277129913058
0,07558744056997
0,0725621206219274
0,0792258132104623
0,073614739297952
0,0767200193474135
0,0671772017292027
0,0836877644927444
0,0713715138306589
0,0733245336031029
0,0731154905432958
0,072708151339794
0,0736451404660718
0,0726378899787903
0,0709715910128123
0,0729394419740792
0,0727177980494852
0,0730044934182367
0,0727638580273662
0,0755643801906266
0,0721037611038865
0,0725519034053753
0,0719627890548727
0,0733326858245798
0,072305205110884
0,0737919863946451
0,074151994820661
0,0694256607800547
0,0730295258731417
0,0768297646710805
0,0683369797898843
0,0727335977114027
0,0659582816507171
0,0734744541040253
0,0800483553962718
0,0650613744376054
0,0724170413929942
0,0659986484275096
0,0732076261436331
0,0673299121662537
0,0712264832463949
0,0639559948229673
0,0724251041555942
0,0687676162776493
0,0707566668193629
0,071015283217207
0,0698814228535434
0,0691533639065348
0,0683911234357064
0,0686628421493783
0,0673025811968236
0,0670295304460431
0,0678125363234483
0,0671300100433763
0,0680591228278982
0,0678722684686425
0,069559407298209
0,0641515630330997
0,071346003716038
0,0656778666797994
0,0690242149896528
0,0651706292177714
0,0677818068008257
0,0658449072410867
0,076814937416275
0,0680464391619901
0,065529621931521
0,0699640164714207
0,0667581916795068
0,0691093596338902
0,0668327451958546
0,0686034463314824
0,0651547572757564
0,0699838885715961
0,0665654313128117
0,0686798172491611
0,0662274338391251
0,0691441844876782
0,0663996488337994
0,0689564672854584
0,0636328627000781
0,0675653469564818
0,0655527546141122
0,0674055654914431
0,0659895924214967
0,0675867406947366
0,0784934600706281
0,0676988608772753
0,073902759071349
0,0686713185165907
0,0676650667738828
0,0636639397221014
0,0679195788942541
0,0626985391116135
0,0653062736019711
0,0662359381128988
0,0646885207464169
0,0656540386701279
0,0679859225771391
0,0655101768564603
0,0682317388758852
0,0646781828339279
0,0673554069231105
0,0689066441572289
0,0679188212596547
0,0669972017372872
0,0653131250466613
0,0668987021667634
0,0676721392543261
0,0739869318216553
0,0638104179599883
0,0702518673417506
0,0526462378700219
0,0905044722163983
0,0591393766293716
0,0718801487726953
0,0672232469380618
0,0691530050589203
0,0649713047999231
0,068379591272387
0,0680671518748304
0,0694502014305739
0,0656109071391064
0,0693101870076284
0,0658761245186589
0,0683927317074235
0,0670194894592902
0,0655657888880214
0,0764291844717766
0,0772637370286406
0,0612265454283291
0,0724230800892581
0,0605462514982742
0,0816515922515599
0,0734691032655507
0,0679370178143455
0,0727275860027344
0,0670465888855467
0,0707802109027344
0,0656638589647303
0,0696885137035813
0,0697675036167606
0,0735126471570734
0,067573105003969
0,0702812425540637
0,0689505228448621
0,0690813881492004
0,0721503030412773
0,064947662265585
0,0754575543990315
0,072440039112777
0,0691476319685543
0,073486705108139
0,0687533850890945
0,0742461491237534
0,0687549601713001
0,0743963084915841
0,0719694876095366
0,0775937204275033
0,0742354110159427
0,0768049570400156
0,0787875248689841
0,0753463316505508
0,0708465460693786
0,0790023785979101
0,0724055617396523
0,0790042074238489
0,0564301693584873
0,0977959515228191
0,0773901854204351
0,081060074019578
0,0801068886613117
0,0722817854046471
0,0790252105995627
0,0716712530162818
0,0816977959054294
0,0720778312123601
0,0898686603851612
0,064815567109054
0,085148085869433
0,0647725301802725
0,0904593224899272
0,0764023872113126
0,0848592687107641
0,0762934070652331
0,0826785423173289
0,0770585345198851
0,0916110747444532
0,0736549084316428
0,0882644280562752
0,0941500981238041
0,0862779043780722
0,091324567219673
0,0824223411163104
0,0865765007695018
0,0986671383919992
0,0797778668158842
0,0957070200262892
0,0818047936037561
0,0903574245302402
0,0808756862142194
0,102979052269596
0,0987739464655274
0,0879045411312075
0,0929487382622663
0,0922713953580204
0,0928465809521685
0,105532872008688
0,0890255863780749
0,101850512599207
0,0908083762703543
0,103217897879091
0,0830090537995937
0,127297604471822
0,0854563786437606
0,118231955268593
0,103784925638666
0,113492576640884
0,1053593443781
0,109169219972918
0,104406705336426
0,118738327920652
0,108869306664822
0,11023060834148
0,105967554591885
0,126368100587689
0,114246734369312
0,111446541678476
0,118968351845841
0,105950532236507
0,119110752441192
0,142871956874244
0,136433226350428
0,12868593793871
0,122547830620345
0,133640631910297
0,138170786252512
0,128684404343785
0,136396382885955
0,129695268177999
0,135806180625601
0,139200252013553
0,138186860187607
0,149471278084736
0,141060832247591
0,149588546678197
0,139704226807592
0,159467005723443
0,163988834611341
0,170001050505823
0,163665943118797
0,15190262590623
0,180171291322398
0,163047971716046
0,179050964262718
0,170785354126803
0,176208888129829
0,182002450366345
0,178504360303429
0,185987887016722
0,183644679088207
0,205098160985897
0,194682084953695
0,20926708192096
0,206711023847066
0,197293541769792
0,204771799145375
0,204253744311502
0,262060589246725
0,205796946456254
0,236004413958414
0,203305942966752
0,263262732167072
0,251998036605808
0,242261337351284
0,246179055469035
0,251692153912937
0,252125473057212
0,266718514832719
0,263860305186192
0,277898093128521
0,273663904180606
0,276165831020415
0,256271867359946
0,32794597965044
0,306072195877271
0,311954788289085
0,302331598402941
0,312767816433425
0,319640692374324
0,326278572369891
0,316400699880583
0,333905876697457
0,31508262452365
0,358587267822865
0,352862447222636
0,342234807843346
0,358637936032207
0,353675622762544
0,372753425382483
0,350999628832501
0,414673892363885
0,379823973378056
0,397606981075221
0,390301365391572
0,404400235260571
0,403009234957683
0,402940689666968
0,432064796404405
0,419739007271023
0,428836652635949
0,433522872516952
0,436984781009518
0,443006679802489
0,443362105966831
0,442612267965068
0,439492611363367
0,49265540629606
0,487041002393471
0,511790973508922
0,473835968828432
0,477131474840787
0,480970342986239
0,487336562391933
0,496523705406706
0,491769174315654
0,524580079343068
0,504347136051085
0,510562838122209
0,50679358422853
0,508347921215695
0,518533053255447
0,512111936458102
0,522526554693614
0,510880160628429
0,537643471335494
0,512549411131801
0,572846526578501
0,523676873299402
0,516337049316138
0,523478352121274
0,515922577339002
0,516634411626086
0,508501015176898
0,507834830577724
0,519694235817218
0,509409310490723
0,497863259768289
0,499420095258661
0,489878679291623
0,509865468695778
0,48602125047065
0,473721671533766
0,475051834404734
0,466300022569816
0,458019128450152
0,441793107863586
0,474133471952972
0,465341399904799
0,428258974972311
0,440266966075016
0,418750286444351
0,422741825318739
0,414001572727299
0,413614181884021
0,402239265576311
0,400912756720188
0,393503610478938
0,398059273612024
0,379506137641779
0,376848499121923
0,36751137787266
0,367313666366532
0,361458624484451
0,359250775621227
0,346101092000864
0,342345597621159
0,334878771779613
0,331465949767633
0,331214344669337
0,329719868517436
0,317700255867596
0,315353763549366
0,312844882303249
0,308694497993929
0,301770264009438
0,303749261355035
0,291469994716997
0,293351853086782
0,292925259188261
0,292693210100763
0,279756079762193
0,282761187182901
0,279295821804228
0,277197447829189
0,269857265133114
0,267797049013513
0,269123080471995
0,255323004976893
0,267988035847414
0,268861509711035
0,278692806559553
0,254714193362252
0,256114920191628
0,254827146380999
0,241778403658191
0,24912506443473
0,242158703506289
0,263075411867827
0,242863732140014
0,239690669926515
0,238523595801957
0,247660524005431
0,240612681690362
0,244144034548575
0,225659860833305
0,238156765684465
0,194432479833771
0,25094633758486
0,247034501365101
0,256944681188264
0,232871544106917
0,221450433753524
0,22552339100285
0,22553304146328
0,235605259715092
0,2102081204871
0,223486726712513
0,207932982655065
0,226392846359336
0,21453380732056
0,213165024532987
0,213837790536582
0,211397708797812
0,223531358547347
0,212235341584427
0,207350057537807
0,221316906904167
0,205431448625397
0,198214681540635
0,252031457211315
0,217588950394373
0,20603113508325
0,198825244825899
0,202354941807667
0,203633343593284
0,202745511004512
0,210967607425086
0,199566377059672
0,200090458890507
0,192590041098261
0,192354190951464
0,205523056903352
0,188921936148015
0,205493955160453
0,188153027107285
0,207702600588992
0,175411180336143
0,210008822352504
0,198585600928607
0,215971577702185
0,19387705435981
0,189092976041921
0,191592185695649
0,201526948040134
0,200125921101441
0,18772781655772
0,183353898789036
0,185997543569017
0,186448900257064
0,190980387486732
0,18102850878325
0,19107126454065
0,193182950455616
0,18784401771533
0,207662839561524
0,203269996583302
0,189021008369014
0,179902237440987
0,175882962000887
0,180163283355718
0,174035778050432
0,178089717207904
0,184575488927995
0,180501898461231
0,184489094718724
0,175324762758565
0,188430080857526
0,173999835636478
0,172111044191915
0,175840668440336
0,171199973611053
0,181272985933556
0,186321080969067
0,175792229929995
0,174885738305446
0,177920620417511
0,182514561693744
0,169237747899762
0,17831823979632
0,166169967793919
0,178333679936578
0,168578737488253
0,176557549540173
0,17064303623619
0,173297428869612
0,163257293262978
0,183459848771989
0,166963266818952
0,181685082037425
0,155988404512558
0,192603325998102
0,178697798376502
0,185516448268852
0,174725046973192
0,172771294481783
0,175116546757156
0,174014344737381
0,165219048932779
0,180983001140425
0,171444447363359
0,184435027399036
0,165812990192149
0,176709046599039
0,166262787983201
0,180244187914952
0,168719317994104
0,180043504025466
0,177008389124504
0,185389544306156
0,185613846109015
0,173286087209059
0,176960940732768
0,169800131207803
0,172594978179771
0,169116553114863
0,165131203039408
0,176588119354685
0,173301669565751
0,171459393133476
0,170578399545613
0,171523884309995
0,169281315048363
0,169771553653834
0,170883753460509
0,167417599911097
0,168551164678874
0,171398509728494
0,160076290031017
0,177400027659071
0,175891771135018
0,182075311945952
0,16783158065814
0,17067470596051
0,173615819156785
0,167910645369989
0,168001654868
0,175521159731401
0,17165206787001
0,171583169573913
0,167756617464365
0,173714530136251
0,160643585544564
0,174250106547674
0,165958607522669
0,175525544250744
0,164855060249171
0,163696798345616
0,179085472786202
0,176308193822591
0,181284169127019
0,165242092873345
0,174433540017662
0,16143144610993
0,171451275427842
0,163436798318093
0,170444769896144
0,164988994626668
0,170046559275061
0,166248441341449
0,169860995564346
0,170194551876536
0,164191193716025
0,171071714237905
0,168909713639477
0,173184161137286
0,168131706649098
0,164997950629524
0,165183354920123
0,16654699376218
0,167180849909255
0,17304573418621
0,171449486389486
0,163410870243222
0,167733194752713
0,179086348417022
0,175789545201636
0,164818714127249
0,163738481886272
0,165491377453268
0,16904705962573
0,15704309016173
0,169368769264356
0,166078352096443
0,174189165744363
0,16286576038437
0,171346997349294
0,162127867198182
0,170538625889689
0,165928898294517
0,170364494072431
0,165826820592357
0,169398572527441
0,162916778010543
0,169946822314798
0,165499281475329
0,164249360339421
0,173607635680204
0,170540689821883
0,165618859225765
0,170379576536197
0,161279642286254
0,16805342210347
0,167380445375837
0,170345794599743
0,157061459907464
0,168339183612877
0,158367308785873
0,172531856582437
0,168297159150202
0,1723396334401
0,16582507843404
0,165032082216728
0,167297063124466
0,160908233245014
0,165322083648016
0,16291045374008
0,165820286014467
0,164864959144825
0,161520366197643
0,163726665839832
0,159887456819865
0,161243881711586
0,164351250322912
0,164210415109121
0,16368928867456
0,164461347801988
0,16078073913187
0,163650882336299
0,160365420977793
0,163740441065884
0,160598812800973
0,16434193104156
0,163921011154233
0,165981117580873
0,168493067980855
0,161785158597367
0,168355722197874
0,161706595415101
0,163451705084831
0,158930666129785
0,16150636195926
0,161204596958875
0,160366340999966
0,159117057372589
0,161166997908913
0,160464855596597
0,165529939407092
0,158325663246885
0,163727370412123
0,165299701335695
0,162147773693441
0,162249973144259
0,161223361140619
0,160072223753537
0,160258625311626
0,162929175948906
0,161597519285816
0,165060154337343
0,159880035767025
0,163524995277429
0,159592384919391
0,160861233895714
0,1639132888813
0,161331297812747
0,159004480437586
0,162886187921154
0,159046076466298
0,162082710498299
0,161915475340204
0,162125618023752
0,158584424728442
0,161078846350381
0,160381432784432
0,161782958836072
0,156644775551986
0,161186646256878
0,160025014105079
0,159887675640186
0,159568239038792
0,159892239308627
0,157338336986302
0,159428938739932
0,158207962971186
0,160378620864572
0,159738625736504
0,156825318735987
0,159451232599818
0,159406668476101
0,159438844198377
0,16257336373304
0,15846346601
0,161694374011629
0,158999169258712
0,157640044129845
0,157756704938096
0,159255784194117
0,157183184858775
0,159525257705712
0,157512279239919
0,16007534791674
0,157063633814914
0,159262066090105
0,158572478483283
0,16088518416969
0,157539065447292
0,160336025641816
0,157406116078603
0,158459437741548
0,159561106964439
0,160535123367713
0,157312003161571
0,162033587329053
0,159156420220364
0,160388881841257
0,156876198943684
0,156504496129929
0,159257048593157
0,159142649158003
0,158885122682369
0,157959254736539
0,159426806186838
0,158689373213842
0,159889145171053
0,159522339138167
0,158631235211128
0,159870310057424
0,159735624008714
0,157916490493151
0,159242653266231
0,159786428932655
0,160388396390478
0,157408599261699
0,158589005990116
0,159057535347374
0,15752369502393
0,160568844946244
0,158972887143457
0,157204010285501
0,159260753707156
0,159102701737278
0,157520012223531
0,157573042837302
0,156885353777983
0,157964253170575
0,154663224419127
0,158172772280646
0,15820810244768
0,158943175126988
0,15746351880786
0,159633234613303
0,158090887431255
0,157820023015714
0,155939466323474
0,158672870778637
0,156027402412867
0,156824238868936
0,156788875248343
0,158952494061572
0,156276739300709
0,15548203459247
0,15518682553694
0,15607328805075
0,156304562571681
0,156888572237634
0,15628924618831
0,155187910530169
0,156769704749841
0,155344918123539
0,155291945108248
0,154676103356391
0,155967439182732
0,156016384058349
0,156743888101562
0,154471318438841
0,153132584357617
0,156915669887347
0,153019832125674
0,154737530750225
0,153473426154726
0,155331125391915
0,156417553399453
0,154982921791728
0,153475400806261
0,155138845899297
0,152675439638357
0,153211406511917
0,152851098876873
0,155794651932718
0,154632369995523
0,154100908533849
0,153070711716415
0,154553081701101
0,155020279263756
0,152898980250293
0,153769012797637
0,15334369739724
0,153705054534044
0,153364267586699
0,151811938936681
0,152608807806925
0,152414752008047
0,153187575917699
0,153889906529449
0,152911893739031
0,152751167690817
0,152485335513577
0,153407840198603
0,153312152525184
0,153419220733384
0,154118593783978
0,153733402026275
0,154908784738687
0,155738355695854
0,156304170563056
0,155301086764491
0,159273200629827
0,157050611947722
0,159615928027237
0,15723977634672
0,160564556058186
0,160285774620312
0,160901720251421
0,161876846389615
0,164485974653279
0,162063556597664
0,165381621188773
0,164969556877615
0,163989546840017
0,165893937458601
0,166496064437075
0,164863687040703
0,164485521949446
0,163674699629239
0,164749834575855
0,165451190124546
0,164736285096532
0,162691160667607
0,164174016669223
0,162626425582115
0,164557771627431
0,162568616215012
0,163830550216287
0,162788456994156
0,161859533243051
0,162550207316135
0,162532249040182
0,16241468659676
0,163101187045761
0,160839473904315
0,161683569865845
0,163000917608043
0,161116232087912
0,159448873782038
0,162563598926454
0,162937371456261
0,163529937058722
0,163725110158014
0,164380415539352
0,164272629166704
0,165023548933085
0,16619136508978
0,165871008258873
0,168907510855708
0,166604423169662
0,168736621544917
0,169274214496289
0,169649731842555
0,171565882684801
0,171546180654269
0,172908882300524
0,173848265092117
0,170868388111791
0,170405745759769
0,171177930424793
0,170812884066577
0,170284442974287
0,168510772351955
0,168171986549826
0,170419035976917
0,16879206475165
0,165082461236662
0,167400460557225
0,169966709794608
0,168485100822429
0,167527654287124
0,169603101921285
0,170005229683084
0,17200110112346
0,172342642820267
0,172518740364731
0,171595771007952
0,173625118551028
0,173042025839827
0,174713847044712
0,176869220616135
0,176784604473043
0,177789236087507
0,178520713468454
0,179780401636907
0,175989662374631
0,179772895391976
0,180323256271871
0,180813498942993
0,182116159490849
0,181912162463692
0,182612867559809
0,183305882471586
0,183952801102499
0,188099469724028
0,186989281224397
0,189775387946623
0,190859853898033
0,189564034544661
0,192365209494456
0,191494496208214
0,193819825426486
0,193983605912835
0,193607439997386
0,191616588637237
0,193965513151537
0,195904738435126
0,194010082953213
0,190204696775451
0,191121522509248
0,187439695130035
0,191688672621116
0,190029755252692
0,187537198659071
0,186550384938906
0,188049783908202
0,182179879670434
0,187037808769901
0,184337170751443
0,184419724563404
0,185251082537388
0,186564922985941
0,184298028879207
0,189097939570625
0,183881903080717
0,18410538451541
0,187928038160433
0,186976822647206
0,191226655582401
0,188934545504129
0,18835039153397
0,191371631744111
0,190600946234623
0,191556226058202
0,191452791497767
0,191310243401795
0,193146985674005
0,191213770272471
0,192639637952386
0,193287715281374
0,192057110640819
0,193208938207255
0,195031155624156
0,195772530999422
0,1927571204242
0,193154900339444
0,192046066241983
0,192591804119773
0,193852297784398
0,190838743058993
0,19298346246645
0,193036313813349
0,191652046628198
0,194546414051579
0,192491670094223
0,193942386507633
0,190509020172166
0,189636736661677
0,188956688465736
0,190870304969569
0,192123188166503
0,19094724522978
0,188617340481145
0,190884630959824
0,189249006135325
0,187239294467967
0,188986985728675
0,186241069260261
0,185597045945489
0,187842536761331
0,183263185096784
0,180001373020622
0,182185672279407
0,179451397449295
0,180229469893748
0,18142519496781
0,181185521795402
0,179370916025169
0,18043696621934
0,179316558216713
0,18172503582837
0,181793855291583
0,185168337346207
0,18274322173105
0,181849075613061
0,181893574151166
0,184887123064528
0,184114785430425
0,186285637497239
0,183606186209951
0,185306173635464
0,184591014945645
0,185299446924063
0,186554395386877
0,184923394830209
0,186668112108544
0,186910956200967
0,183867818451251
0,186748979855955
0,187550003160656
0,187187899906342
0,189295511625
0,187461406706963
0,185903821118628
0,18634836590385
0,185617406974434
0,185855084546547
0,188180669841278
0,187415410902814
0,18807915273133
0,188403473812183
0,188996982079513
0,186529670437397
0,188156896036358
0,188079222106198
0,188997216468465
0,190151401906176
0,19290936351701
0,193432677488708
0,192519064643742
0,194106879396538
0,194865949649785
0,198676562327505
0,193650613939121
0,197389484501356
0,202546254699643
0,198663205366713
0,20017402130132
0,200275888244451
0,20132792492268
0,203234999067532
0,202666428870901
0,20420568083921
0,202947882181282
0,202450948781586
0,204215197067124
0,207783978822841
0,207599151148233
0,208874986662405
0,20995263690212
0,210311437425199
0,213996428146039
0,214306326500544
0,21023788357589
0,211983324269143
0,21345357052049
0,217982144145197
0,221216409922548
0,216053484093402
0,216211361588157
0,220554696380625
0,222686066501148
0,222546386495585
0,22256177417615
0,226747123096106
0,225215390729664
0,225508145215931
0,233987195351742
0,227790751983746
0,229193771350679
0,236208984085167
0,232357277184068
0,236135730639038
0,236590806784669
0,237300431759596
0,23916572979182
0,242067905546459
0,243267964183408
0,241716444094414
0,241103934469767
0,246227715856795
0,25015928432391
0,250530585021473
0,254998709903289
0,254890206271257
0,256719667086441
0,259059796953029
0,256369240634595
0,261648895481855
0,260831350741097
0,258017091585398
0,263270132757322
0,262972081198345
0,267107494769097
0,270419386834565
0,276737209513263
0,276221449600448
0,276454152866767
0,277028535438375
0,277325562091856
0,28267946873771
0,280807027028443
0,283533633007739
0,287161574974937
0,28713064868115
0,297776157245626
0,297448276019546
0,294182675841498
0,292475789607532
0,293192911858108
0,296379326723498
0,301637807880939
0,307950586230996
0,301404225906004
0,30396287912925
0,314395311974364
0,312352777246823
0,31051503193274
0,315360087672067
0,315187200331916
0,321383354430103
0,322732046925232
0,323970737084054
0,326277112943721
0,331029319607695
0,329627285977486
0,338811406186338
0,338856719392279
0,345016912104673
0,348859369768094
0,345985762040573
0,342228016979169
0,349703475015537
0,349355331399351
0,350470338977586
0,358008422337083
0,357496578692611
0,358893944805932
0,36436958313789
0,366471470872815
0,369347226098224
0,372094546655487
0,375139995225629
0,374475083445855
0,383555216829452
0,384946113572383
0,38413654497173
0,386730229702285
0,390905451309175
0,38244605786846
0,387491935032549
0,39974176505541
0,406373465599262
0,395495233245183
0,404883376795759
0,406925664803701
0,411906038033376
0,413646075469672
0,413539905711914
0,424912932660936
0,417212427131222
0,41981058180289
0,436381832116162
0,433779217384808
0,433273191167445
0,433178046219301
0,435107006672085
0,44297986197235
0,443405986016696
0,444565263107854
0,447280182383772
0,458196815115435
0,459773533312691
0,453695461452433
0,45787047943243
0,453715268927582
0,457756421547378
0,457076331807848
0,464605779807644
0,478100276118042
0,479582634282498
0,48104559439512
0,495143017860965
0,485517643736177
0,489393588181557
0,489534985986023
0,483841936713999
0,490018545234091
0,498581778450188
0,506244998618386
0,507355168998182
0,503707042289382
0,515141553398348
0,519338964974007
0,52251831474086
0,520844226685155
0,540335300371121
0,538582115163113
0,515632382530426
0,514057150094513
0,524743600619659
0,522937373409085
0,545434092289764
0,548725605472139
0,550261561782051
0,552840019763704
0,567571164273419
0,542534987831759
0,571033869676144
0,584657233731691
0,565962742517884
0,566983374705923
0,573235926926638
0,560520589114417
0,563982128559185
0,560999011818202
0,589544031491982
0,587104310250577
0,626721786540647
0,613056867161199
0,585365186395729
0,595356012621497
0,627525179390651
0,619437298839572
0,642564980435352
0,615782688307839
0,621536079624124
0,604829138888812
0,629090560182067
0,649434521148845
0,63600187559821
0,624750058424503
0,630211587624683
0,621406431228065
0,640873320792225
0,64756280361802
0,620934141442663
0,634533266724702
0,653290150089602
0,643330360422674
0,664217855196009
0,652811879401159
0,709862428953598
0,685679781013032
0,690898282177901
0,698892192222344
0,669072026652407
0,670574679021988
0,662116177471662
0,684223298198294
0,692639580592591
0,681410346813821
0,720319847527022
0,720827264527312
0,693267459910947
0,738851315977027
0,751958141575772
0,700012539387432
0,743515938425557
0,72965414986446
0,738731315823427
0,755470777547266
0,726207325491102
0,745080389260921
0,779087832679402
0,728361545984124
0,742054923245867
0,730630459589777
0,802009749019544
0,738876130270289
0,739538870559246
0,801919482431665
0,760489335229245
0,733077847074626
0,761539881010192
0,758583452047523
0,766948910790782
0,7489393981902
0,747362504548972
0,783339071118832
0,825526255671968
0,766900980720033
0,761389702560665
0,740099557159624
0,796750610309021
0,840948727917891
0,826370728264966
0,791760415859991
0,822998239657322
0,850729675572278
0,898536063885496
0,785637787933391
0,848150389728005
0,818848361153079
0,792433768962516
0,863602882555498
0,842365725607984
0,781068185299763
0,89878034737255
0,85230095059475
0,854469649871124
0,839596637642747
0,804237078046297
0,835456502344884
0,90064576289122
0,882633297952137
1,1176471841096
0,878994727674706
0,780290141740506
0,940047266992916
0,913743166081398
0,834296004099296
0,932569706477706
0,854043572167068
0,930877973190765
0,921267735230905
0,875039520919388
0,960588235828479
0,988312745090515
0,950748421143754
1,00009691026253
1,04450271234457
1,06042032580067
0,81843291851935
0,843771134149364
0,913541201714732
1,08331957812521
1,03656355904518
0,916885207540215
0,855938146877861
0,885252372162569
0,833018551363484
1,00250140837731
1,20543502976412
1,21815711164204
1,02102822048243
0,798279492411798
0,798610566747921
0,884361787851936
1,02521632173839
1,06914446481345
0,818490911685082
0,953507652467893
1,16836183832301
1,34945291252699
0,870875090293608
1,05755551444348
0,95169320609277
1,09738952642114
1,22596543107095
0,92234896062467
1,20965157791441
1,12756808761602
1,07445817294668
5
0,793034145942022
0,858159193073114
0,986334190512911
1,02595058182437
5
5
0,84516447945591
0,955398511664489
1,54727476052201
5
1,40742504112151
0,58201476743165
0,675044238584787
1,41226882679855
5
