3596
4000,36533379555
650,420452594757
1
2
2
0,0393321666376227
0,0455443573159458
0,0490444080804429
0,0484601307866955
0,0470485592142662
0,053611125872729
0,0415531406702807
0,0487605023402129
0,0533831765318072
0,0570704685247822
0,046576219544028
0,0501211500622569
0,0404628728578597
0,0415119551275751
0,0415928214729954
0,0533645996526152
0,0456615462763218
0,0494505104725172
0,0452337548398782
0,0449928480904688
0,0387835839732384
0,0458259234283368
0,0453105147452927
0,0506315453345209
0,0363620861398315
0,0501045789015693
0,0469439264512236
0,0505477711242895
0,0475503745610982
0,0544439205555715
0,0359122327280016
0,047981388254668
0,0517069115646713
0,0517961573487736
0,0435102745755347
0,0449255069166378
0,0372541569970824
0,0453717480169017
0,0386058347121982
0,0505313080991382
0,0430924477410997
0,049442399892308
0,0454632469524125
0,0483741976434869
0,0396553901154005
0,0579199966208102
0,0442303149113515
0,0562914624804015
0,0494131697020497
0,056282554249896
0,0522441203972946
0,0453911257809319
0,046992931516343
0,0577717116331949
0,0510068356499711
0,0623753662702338
0,0432824310417055
0,0525210729870655
0,0413891697510453
0,0427164996097042
0,0599559667402206
0,0512739211482428
0,0446119124930923
0,0455499726529561
0,0478498317457091
0,0514742681945098
0,0407088461629701
0,0516725887070522
0,0413354979553434
0,0509816571977953
0,0339430756635142
0,0638184153161428
0,0425907611707804
0,0551810075514051
0,0456539849047114
0,0508691409505302
0,0365958109133604
0,0574304652583102
0,0346282520988759
0,058926028186408
0,0573731000471435
0,0569454407308636
0,0450786665848819
0,0447441199805202
0,0475435510827288
0,0613751597525131
0,0377467376903698
0,0629442130468504
0,0407457171160206
0,0546244732650128
0,0410397979173043
0,0558470339512783
0,0363450266059558
0,0544986498009938
0,0404569269559289
0,0471890772492778
0,0449632815768642
0,0529752944193889
0,0335125914030787
0,0619476213808303
0,0312454444305551
0,0825678659285846
0,0523741238444462
0,0265449303643556
0,0715455448066502
0,0418074745602147
0,0382347716624882
0,0707900178706091
0,0525160261749572
0,0544935396464718
0,04644015722211
0,0426739658526151
0,041041725938618
0,0640268248598766
0,0265249468900336
0,0702500522605222
0,0508259212938464
0,0608760652198116
0,0358685235345385
0,0617681601426515
0,0111669307411519
0,0715444542409744
0,0446341787479183
0,0578883854435298
0,0373698336822939
0,049087641279849
0,0206601794988194
0,0702580334883722
0,0423814219415986
0,0619260296610293
0,03363212262774
0,0614985813263511
0,0272063286314878
0,050899617387659
0,0608037309571662
0,0621065395570385
0,0375010106132674
0,0336921625479687
0,0470482527622218
0,0819416966858299
0,0529436799486354
0,0550687515913535
0,0204924382964496
0,0587096358776872
0,0529553103321944
0,0471005754464743
0,0372789742453847
0,0722685247348002
0,0337470226284326
0,0551616396847655
0,0322695030968038
0,0390975947255849
0,046863052954738
0,0649002804183899
-0,00717762442311937
0,128302669421803
0,040707115671335
0,0912922745331785
0,061983608975057
0,0461332312060996
0,0407381108844852
0,0523449251194646
0,0434691622500488
0,0398559191885085
0,0485768939096148
0,0336638488650122
0,0504594831327612
0,0618122672102625
0,0421046876604453
0,0533782730359252
0,0598943111545547
0,041160517629686
0,0225038873822559
0,106944840262385
0,0419312803256101
0,0536500648763802
0,0441416590888241
0,0687892704169095
0,021534323201803
0,0622221117192128
0,0524654213721757
0,0526794113626304
0,0422624566422822
0,0436998581710897
0,0388725945867608
0,0701251767792533
0,0430903619502102
0,0628367723425148
0,0330005502629962
0,0374149898880196
0,0351966364110199
0,0936046042326293
0,0573153196567278
0,0568620820058568
0,0399041455200418
0,0312024947260033
0,0803222179092018
0,0601761487215368
0,0467764136254912
0,0557973438556876
0,0334908392263815
0,05028428035793
0,0345090164684093
0,058087070961294
0,0314335127076906
0,0447220363959308
0,0679059648379148
0,0589103149331724
0,0430836933508617
0,045899594969005
0,0359232005855046
0,023913544566392
0,0825757580801571
0,0715126569921167
0,0545805259991962
0,0549600395435416
0,0398030034925713
0,0607415750425444
0,0509567635884275
0,0498465682917817
0,0398136048290931
0,0546902250649016
0,0565373059267678
0,0511960851539228
0,0479310683482761
0,0581653221348223
0,0533379320119653
0,0533724563972963
0,0512232972834044
0,0515036876875715
0,0523633483426814
0,0547512844871206
0,0465938456918013
0,0641156429686205
0,0270520405484759
0,0588838644953634
0,0606323208749565
0,0598555865580581
0,052137377984695
0,0453008428341028
0,0424730416451696
0,055935373356184
0,0420927326297391
0,0580714070775902
0,0466490587798123
0,0561593624919041
0,0695240988253388
0,0479466328536756
0,0621375423582433
0,0333409942460002
0,0747456883643471
0,0574095762631035
0,0570758656777039
0,048547942761764
0,0606230126155172
0,0388212921094699
0,0555834535087468
0,0742395193160395
0,0568624223492392
0,0471511677134121
0,066414160981427
0,0576672057959773
0,0590428408549072
0,0474066393561413
0,0275197902202498
0,114557074854254
0,0463986733140123
0,0570982016468767
0,097057079361837
0,0582957942706254
0,0639979979724738
0,0408459919031328
0,0136911561051498
0,137867058245116
0,0872036118417104
0,0543371560545595
0,0498630175997623
0,0799050601559366
0,0444479836559729
0,0737879650399436
0,0426550559865942
0,0901204051798454
0,0483208471841073
0,071869687234843
0,0932682024073828
0,0342999543189972
0,0755187996252797
0,0627573353931502
0,0700842622185747
0,0638339029218639
0,0657184244124051
0,0515783485250878
0,0728757316919394
0,0595138913963512
0,0767120008551056
0,0607950301691859
0,0584438434611323
0,0890151261328872
0,0700877687728073
0,0666046908342635
0,0600137827119989
0,0825179848336052
0,060832200541319
0,0734541109861059
0,063437911138688
0,0915771662199914
0,0524140440297835
0,0775983431716956
0,105794157720588
0,0776667456676591
0,0690754639281402
0,094153238576178
0,0743150846996284
0,0796632931899968
0,0686692609907323
0,0850877005301046
0,0697413859407502
0,0849397028657903
0,0686115430148108
0,104992797850232
0,0806402352014562
0,0978045560407911
0,0745787773773911
0,0942721572163518
0,0800506952900877
0,0940679669373618
0,0783603300687152
0,097627094876881
0,0982269628590268
0,0798186081217441
0,0965491321963641
0,125813276798332
0,0575456961624393
0,156685701810931
0,108586312897455
0,120052024231566
0,0994618309325105
0,119017707456934
0,112453096748697
0,117325364479612
0,11477981463775
0,1240735703732
0,105913903470492
0,138448780590566
0,125688220078304
0,138870090574584
0,113690272961259
0,166686295885056
0,172053240164917
0,154584260272821
0,146103681091042
0,120434968806158
0,185602754815235
0,163403228910484
0,169932877359822
0,179070464540836
0,1542371458462
0,174200492489116
0,156635668751464
0,182821048164574
0,163455131731465
0,193735198745405
0,173298144083083
0,203174077632048
0,181269021495525
0,219478903019425
0,18677213799878
0,209374953991832
0,237037939663034
0,228446740912448
0,208050258542476
0,228923516583361
0,193582212571664
0,248617958171917
0,20593263463666
0,291784950938928
0,220706305926636
0,261180429070314
0,2571475817753
0,238227382214573
0,244527983120115
0,243907196141416
0,245474593095284
0,270264886428765
0,262996380120421
0,259878007834356
0,26498854203902
0,287957618545404
0,276100819719208
0,275705905346164
0,278808698053953
0,288089004340161
0,295459375796515
0,292694682578126
0,306710356063629
0,282708813022438
0,297850455642795
0,329253479068031
0,33619868092487
0,302201954572953
0,303984212771983
0,307382415148773
0,309723114511065
0,328386001761635
0,312385119505331
0,337197913145836
0,311234581715079
0,362975210055878
0,320485707604431
0,363935833599633
0,339924391804297
0,329385902076925
0,353655944263924
0,351386173487747
0,346657673380328
0,389734831242919
0,350398987360747
0,340030808009235
0,369902176449967
0,377841161779991
0,354326091316372
0,39703806751552
0,361188996508182
0,382075174716872
0,348848112550435
0,411430431180168
0,372412428194637
0,407235719708545
0,377787636813798
0,397696278843656
0,382464017913485
0,406866874037173
0,383290194703878
0,443185657978489
0,400367533698694
0,390655387867828
0,400864753385275
0,413083500969366
0,423919685488114
0,40257291292195
0,43794250205599
0,463583640905224
0,44288639075224
0,453258572856864
0,407103924894765
0,440268190070776
0,421583389458038
0,43870886367213
0,425930027956902
0,470263326115129
0,438375322455651
0,465859082962035
0,458953440513644
0,463272420829297
0,457276395391116
0,489341362083858
0,462838877707659
0,480373378865878
0,468639102389316
0,495607462849134
0,45766044512655
0,481783025869798
0,506174553829108
0,526633252802187
0,486724509755382
0,553200898747403
0,499860894418445
0,531086674374646
0,476808623328653
0,538118684792255
0,484152034881635
0,558374849551406
0,50549764150409
0,540398911949682
0,512521542102877
0,55681766190084
0,502429086631011
0,541287670527927
0,524158874831705
0,544561005623387
0,515612041375274
0,557451666769354
0,545909926979961
0,571597840552087
0,502475832099648
0,586519839229121
0,528379560418767
0,603850986503205
0,520711443401468
0,566608340157357
0,565718832285473
0,620838109590442
0,569815719491983
0,602184710226282
0,554934718926561
0,593386618889923
0,546113002594864
0,636727478475237
0,59040596400284
0,598735231851818
0,587560603716668
0,623993316938863
0,606379746535206
0,660277274132705
0,629927085985658
0,632336528503453
0,592866752096535
0,637626179811608
0,595064314924244
0,645390389142252
0,623749318127448
0,654899946010612
0,60027524084279
0,679581176717027
0,628333717478391
0,677912171631252
0,64420692600679
0,688594432211505
0,641312943408727
0,669602568049709
0,633450307921486
0,71609598310557
0,679183274784035
0,740026181220659
0,667724284402133
0,705407571044001
0,6925645256877
0,704783932526931
0,676813801133194
0,681885791741442
0,688155361312796
0,721684257722181
0,713892615960821
0,759151760505564
0,686413926942358
0,773145974726247
0,671227843213001
0,704017685372876
0,698078874353283
0,798461242401779
0,721718021799665
0,776942633543996
0,737822477708306
0,773138727523454
0,733964377197774
0,802980871657473
0,749526587368433
0,776082052777726
0,752729591410296
0,789154855444918
0,729500901810074
0,808137209496088
0,756576502547075
0,813408734553291
0,753119515518827
0,835986538274189
0,760767189575778
0,798028666454379
0,760602842256501
0,817746699350461
0,771895922733829
0,837331449816643
0,828345683998159
0,888593362725138
0,805829105178562
0,897152171393889
0,795836379616005
0,878371598929466
0,801349030670021
0,875784656003468
0,789019082988794
0,888818817429116
0,80459625519646
0,858311528891221
0,842628887297443
0,864455621127112
0,812202116878054
0,874869691167576
0,838810932949425
0,968541657961015
0,937846855531422
0,939874303030021
0,846182511621758
0,907284474486301
0,844088547770241
0,928265521249645
0,933559569576637
0,994637982789935
0,874625284611854
0,878431194139065
0,88087071906913
0,955625840309103
0,87330450952038
0,966039073959663
0,860096040960851
0,992867033624676
0,897101502608143
1,02941252321939
0,967352887117025
1,00694707321112
0,983374831196991
0,973965795320756
0,901646550515215
0,979560026262373
0,919589686961862
0,955288796450648
0,996816691361242
1,06384503511406
0,985442732272492
1,06888839483314
0,944052585316647
1,02431581627757
0,99591826383156
1,04904734169972
1,01140778455099
1,01669850169882
0,98574983638607
1,03028533801257
1,0810920515587
1,03920699005791
0,951687535214643
1,07862108914891
1,04815268742119
1,08296906632242
1,02126823112916
1,08184821050409
0,992112781263388
1,10063601109061
1,08611968238092
1,09905800354235
0,983655987206361
1,04734164422336
1,04627563387165
1,14290928586796
1,07078860781498
1,0875026686836
1,04745220495304
1,09926653523783
1,01495174789468
1,10615444004075
0,987692717523614
1,10367570992609
1,06815965456273
1,13560345933654
1,03111027056125
1,19961495019679
1,13251636747143
1,09119262830689
1,05114548373553
1,14595776069878
1,16230787788196
1,23681146903147
1,07384489041936
1,13147166855698
1,14551997924206
1,21768849981683
1,1249721936468
1,17334331113961
1,11818697402493
1,16659778206073
1,10828654447658
1,16974056756384
1,03535274068434
1,18206622102509
1,14995631016238
1,18253432176218
1,14343126020282
1,16633753007315
1,09096882932636
1,21597895769521
1,12139333533366
1,2082298561118
1,13372887529942
1,29807145504666
1,11724830082135
1,20878136465922
1,14598966733667
1,1798312711022
1,16476796896385
1,25436373968652
1,14492010160205
1,20523804022255
1,08899148088541
1,23531611340021
1,1434169679495
1,25528016525241
1,17039200780719
1,21826483874942
1,12640212131136
1,22693510895282
1,14385445970463
1,24897955729992
1,15888856579994
1,25165767944304
1,20191565763637
1,15182851929862
1,18805329835009
1,27701449456587
1,11514003259493
1,16869259687433
1,06421678193475
1,2393963035606
1,18302921137324
1,15599630223294
1,12654628733072
1,2127788382757
1,20706163730466
1,18756015450782
1,10264302274608
1,17784735122468
1,20656550850936
1,18885779753671
1,18036539598267
1,25432855950704
1,15516389145874
1,20793458469278
1,14717419342316
1,20986247120204
1,16199058874904
1,22301139667584
1,19836936958238
1,28969013912336
1,19029601858065
1,17626450702513
1,23370508800105
1,20432367583699
1,18968032456656
1,22283809567396
1,15825431260418
1,19587515852681
1,15572078203333
1,21296425572702
1,182517610991
1,20588907826443
1,20490133475364
1,22654875509522
1,23449840798874
1,26783837846399
1,15578994004968
1,20289982191935
1,15525346487635
1,13999613702901
1,14833589482281
1,21730219089465
1,19259602092517
1,20274316199145
1,13594526619183
1,24072812927433
1,16216231547988
1,19633191914555
1,17826333854945
1,20624440385069
1,15751641549781
1,19659802445576
1,1835761212734
1,21014835616832
1,22359968010865
1,24678684642405
1,19142037313963
1,19718425989268
1,11794813229789
1,19546136034758
1,1799980902674
1,14744841227596
1,16224582237119
1,20589803315973
1,10452067268256
1,19438902562712
1,18275909971484
1,15427536378048
1,14879969042433
1,22706536213825
1,14389365932693
1,1554681113631
1,17501430585545
1,19626193849276
1,16281850551791
1,1703891086675
1,12375713024714
1,2731676637702
1,23966958557748
1,25433876052772
1,2112441377795
1,19419812281934
1,19361574197873
1,16519680072994
1,17761675090659
1,26416544560632
1,16803428132308
1,17392039093089
1,24137362406825
1,25091937739087
1,13671416279038
1,18050343665613
1,17534669993205
1,19526285601783
1,18677856460649
1,21216340462682
1,15245118502068
1,12791963876144
1,13643717072503
1,18249280600048
1,16695262199652
1,19683791828395
1,13244392202836
1,20449205813168
1,19186189787703
1,14493024314301
1,178898753753
1,19085791467039
1,18450676401343
1,21487188063066
1,16324187760676
1,16050412907832
1,16387975469273
1,20265063920173
1,1845972292262
1,20789106868962
1,13498661087753
1,17185068872692
1,15356916512283
1,15975217331926
1,11236028673211
1,19134498451775
1,18145703788882
1,1862151791493
1,13701126657609
1,13095399310088
1,15291415641477
1,16876485720654
1,11656082526173
1,17963344993542
1,16055358458719
1,17598090814673
1,17797680644102
1,11523530501386
1,13148724197872
1,15831383536626
1,13690452945737
1,17035113480643
1,11530986931015
1,14572894831532
1,10090733498624
1,06838041327553
1,09090132469482
1,12823681483466
1,09560702575656
1,11388349474032
1,11981508334014
1,08019130598401
1,05247788161477
1,11439309903896
1,06090303094
1,06553744777899
1,11832719208915
1,09929737906395
1,05929422679635
1,08051143044101
1,04683577807203
1,10273760129143
1,07656704155701
1,06448684921316
1,06912285004844
1,10725355885086
1,07253542862603
1,05323579457143
1,04294390021941
1,05294669193905
1,02880094161949
1,03928320302801
1,04096990874368
1,00225312102077
1,00702489094806
1,05832762048103
1,00593139352918
1,00261770561314
1,0016321228565
1,02071713262438
0,989221488412238
0,985963306131524
0,985355396055228
0,972376722175173
0,965064190206884
0,970359943248787
0,973449883411223
0,991028520264699
0,949492770507608
0,953869274235828
0,957019664711575
0,954676968506707
0,953144160315293
0,959035538538732
0,950529074400796
0,931901477866435
0,926716317899265
0,935411692368281
0,907042710792686
0,907016299809018
0,916003751017157
0,913747068478501
0,877646299620605
0,902376522678202
0,884161229215405
0,87579209675463
0,875165044684117
0,876470669122425
0,835291220134274
0,859310668984656
0,859726625962258
0,854251186898941
0,842956264558562
0,861164531366933
0,868552962794996
0,843331586058958
0,850320473079799
0,85286020285797
0,824347164111647
0,837528625702788
0,808263051329475
0,805649253101497
0,79838646318358
0,793194928497154
0,776643374740907
0,790915994820993
0,799712002117052
0,792610852285933
0,772807162875708
0,771390142359802
0,764807810958761
0,76839083321988
0,764536999427803
0,752368566502289
0,743688936915956
0,746096637334761
0,733953081517138
0,740160719321585
0,73305070872843
0,738439886858492
0,73510859571702
0,734266005479048
0,715525862231086
0,704143310303008
0,696559123552651
0,697744722684037
0,687047726627992
0,693425975404366
0,694182139077156
0,678354106992636
0,666919388656149
0,671276805798196
0,68457294944714
0,672823368945996
0,66031938494569
0,667986825077178
0,6529012489135
0,659952357005779
0,652981315158862
0,643913058593516
0,64068654054234
0,634645177569098
0,628119475768182
0,624792178478429
0,613266591007892
0,619934187882585
0,626091374527727
0,619851269790277
0,605145172756174
0,60620856208781
0,599785965957146
0,596753798872764
0,596011575027903
0,589809629957199
0,576309555189313
0,571206588815773
0,574531628096912
0,574396680162701
0,56253615364235
0,55806395251569
0,548291642030829
0,557269160737605
0,555370815483696
0,552680800519049
0,541048461871898
0,539640623937201
0,529510687971412
0,523255094489039
0,531383037445951
0,534012215760349
0,524544082286176
0,512854036924063
0,513151951621659
0,520479821805414
0,505116791112947
0,50244506541588
0,504583179834783
0,495673153376654
0,491744306142864
0,499205566786347
0,491839294909859
0,492523641426545
0,487613100078483
0,484312181563163
0,474668710913128
0,470740287397294
0,463411205715528
0,466222566274131
0,465839639385448
0,461758340147481
0,453438622900688
0,44928119045707
0,445243339893531
0,444864946085272
0,439878575383261
0,447172416668287
0,442427580672279
0,439459017862491
0,435169044537061
0,428698009354752
0,428406907124873
0,428097894774917
0,413383481101222
0,419383094582395
0,413887576326892
0,411696726074565
0,412409168870714
0,405079580884646
0,402104631136663
0,40449458260323
0,39552864931465
0,392446171568155
0,391749820542428
0,392957068397303
0,378830272125881
0,385927724748976
0,380497660840299
0,381918284669127
0,377178438584914
0,38005626951016
0,37594051813895
0,373158103309959
0,370478515174747
0,366741915859987
0,363761724878649
0,365469786715834
0,349786196426517
0,350852866251143
0,352955475738002
0,347266814635402
0,346660695109977
0,348483550239375
0,335745573483153
0,341807281204975
0,337321979850682
0,331454909930564
0,327431291245275
0,330518240469784
0,323883878434636
0,321477524647791
0,322557988706643
0,321350666771883
0,321146912458979
0,320438554394086
0,31778340666098
0,321459415236714
0,313117221057935
0,310421176182912
0,308980277037458
0,306504268576266
0,302340662875012
0,302898590733918
0,301615826668174
0,294056476455397
0,291939398815021
0,295538047206193
0,291677531960408
0,28569755725641
0,284232893492531
0,282733665636339
0,282820506083644
0,284349790169967
0,279466088529012
0,278224164909296
0,273773812187235
0,273703353935029
0,270266519094179
0,269663280997104
0,271375028367531
0,275003153575891
0,267567175705465
0,269465195052118
0,260575083820677
0,262135641418043
0,255926026412953
0,255316316152434
0,257263029328557
0,259407330703478
0,253743074103645
0,251428987216069
0,248158277036115
0,251372618252349
0,246889289564606
0,246633103007746
0,239231251097099
0,244337591625306
0,241355176602483
0,239849046197574
0,237366560028572
0,234273817312651
0,230512956020773
0,236915828134186
0,230090358203097
0,228110189046719
0,231036813548985
0,232236421268481
0,22570489143817
0,220117267572768
0,219331446384259
0,219895119085482
0,219678268401292
0,218442646422854
0,214943525400872
0,217866502596225
0,215267509875865
0,217762999052208
0,211106168917958
0,21155282913757
0,210942250753359
0,207599693706524
0,205983710558347
0,206965782013296
0,206131381615825
0,20596404686765
0,204674656273172
0,206821422968778
0,196580474340329
0,19654454726384
0,193318292579392
0,197220487319858
0,197710794571742
0,195883553433734
0,195858005500851
0,189746578007146
0,183406816605947
0,19428525890773
0,189690304449718
0,187395821288591
0,183480978395139
0,185469144305081
0,185550550895038
0,180045652738815
0,176082364211429
0,184932619130715
0,183014791719099
0,177340804928426
0,170361606793407
0,179864007325805
0,177413193613921
0,176620831525242
0,174493348295853
0,174021425253085
0,168166096976614
0,167766645868316
0,169497134554257
0,164167119674746
0,165014932801427
0,168621932200532
0,167150219094391
0,162809733265226
0,163759610722301
0,164525314008891
0,160751135304772
0,161552158498828
0,158032606839802
0,158589666037658
0,15848047698048
0,156971080906008
0,154761597662326
0,150439737810942
0,154556974722381
0,154525803047045
0,155231700412555
0,153857567271308
0,15070076406806
0,151204255344634
0,152510531454089
0,147733484720569
0,146312481459083
0,144462640963316
0,147966316253794
0,14977246685039
0,143660923386637
0,141087404702819
0,14031060874661
0,143300748181382
0,145055435021213
0,143457047536507
0,138210828543703
0,139725805176855
0,140908301674797
0,139495640276816
0,13752251773837
0,135469445490681
0,133387485229496
0,137051193232102
0,1369907605315
0,131336855098473
0,136568518566765
0,133619899010225
0,130512135099546
0,128275589676638
0,131443861732074
0,129933908812309
0,129389984927572
0,130140907552517
0,121849798945256
0,122788171572999
0,12210423719174
0,123244951265294
0,123210369629166
0,122354197926836
0,122388565723751
0,125382720359721
0,126680078831722
0,124574469454552
0,119908473760235
0,122261253922715
0,121077290748204
0,118044141891368
0,117300528957552
0,120352554405225
0,122195275450693
0,11462448172959
0,114537271764591
0,1167662772914
0,115475310485639
0,114942723704028
0,11510725079318
0,118134374006472
0,116760122330295
0,111407315246414
0,116441284234057
0,114131514635013
0,106493666876066
0,107830575673174
0,112863432972054
0,111332834886085
0,106217481809268
0,10590650044769
0,105223651099324
0,108766417963968
0,107229338132214
0,109595239435474
0,106522332863643
0,104426143931591
0,10377750401028
0,106514001205215
0,101899797532232
0,102662817228448
0,103622265424684
0,103513053873904
0,102800317665098
0,10244740162543
0,101352638531188
0,103439166237573
0,102425879109147
0,0972454349355292
0,0975163448831604
0,10522264394564
0,0980770765880903
0,100011359285243
0,100174730642891
0,0998586443132968
0,096689125207299
0,0996524606688778
0,0950458605536122
0,0975538121925502
0,0982415310957521
0,0954990211954698
0,0963156126458119
0,09390678383591
0,0967645806481594
0,0932129120928741
0,0907891151282672
0,0960393675571173
0,0968007209043276
0,0936888797447844
0,0943713484365068
0,0920931492735173
0,0917376450847422
0,0924011783488402
0,0914207294567541
0,0907308322453807
0,0905048627625477
0,0878308107870807
0,0863420011193325
0,0890014112134811
0,0905680022814456
0,0868383169876088
0,0894577866050161
0,0909436532614297
0,0896191086017398
0,0895975191649641
0,0843030893079454
0,0876822141010865
0,0864363135892593
0,0832889461355053
0,0875079606467362
0,0841547024426427
0,0846133357474978
0,0851505529695166
0,0833654528939822
0,0859857651568602
0,0885809503802303
0,0852271290333404
0,0841758953714998
0,0816746775258164
0,0868605445252051
0,0826774703473422
0,0833207717871806
0,0835168243852103
0,0844137045299973
0,0831850401746785
0,0829732257971428
0,0840983543760534
0,0823123964331104
0,0822635081404648
0,0835762058809344
0,0820254605932374
0,0786906379415872
0,0771530722763345
0,0805725244728916
0,0809941742400604
0,0792832234097476
0,0762376695597701
0,0796612877445233
0,0783163156772532
0,0785972910122594
0,0801393711815083
0,077266626650924
0,0806817430305516
0,0819209430733637
0,0785528217874288
0,0775069535645249
0,0767012021618772
0,0757541746149703
0,0772368390034515
0,0749013644582017
0,0762277955649363
0,082129019250485
0,0732119132202547
0,0768900806240074
0,08026537265742
0,0800547070312361
0,0758917195960723
0,0758470419921814
0,0729359468075126
0,0753521630639208
0,0741755712834679
0,0769279176369395
0,0741087598728764
0,0721601894577268
0,0739172907550775
0,074813861019351
0,0727844243247114
0,0760335503965505
0,0712262250607268
0,0740710180468208
0,0741916198420171
0,0761714518631257
0,0743757745117896
0,0720995766187313
0,0702245888099334
0,0752063720315141
0,0728278486729026
0,0703536481101721
0,068808263341195
0,0779860781200913
0,0760878896310666
0,0730322833552291
0,0734625531272885
0,0721472366175709
0,0709131832585265
0,0716965309172444
0,0726507971464473
0,0727078968135612
0,0717379593164496
0,0751634865397474
0,0670118173295873
0,0698168077754107
0,0697495128699954
0,0724403588450254
0,0687888267153597
0,070606984164111
0,0691801134568539
0,068469650275907
0,0692738963018278
0,0694509299191128
0,0660858690409543
0,0703517735791084
0,0653839451975606
0,067623457364299
0,0689243585749551
0,0714224682260763
0,0662227407736322
0,0691476805109424
0,0683001576285929
0,0702586880733875
0,0681591629956049
0,0667972701491517
0,0647637186267281
0,0694212570795687
0,0679877414235742
0,0688832268648627
0,0667310499368266
0,0653105874027694
0,0687366297782413
0,0682248123093218
0,0689880790525024
0,0703235872586904
0,0691334331861856
0,0702430283935411
0,067462681131724
0,0688515399361496
0,0640864258282361
0,0636586365189238
0,0678701841355146
0,0637730680828189
0,0650829802169743
0,0658825007276985
0,0650605918455289
0,0648209738865283
0,0637636777753804
0,0661186957533546
0,0631018962966801
0,0668846482958273
0,066952719181446
0,0663304704998992
0,0652236162444316
0,0686485894371056
0,0646757478345203
0,0664471120905341
0,0668422328959408
0,0698088659859712
0,0660486582539039
0,0621515582884334
0,0628660629001496
0,0646611166386947
0,0617675412815481
0,064626671382712
0,0655768810597461
0,06667902766705
0,0659066678998415
0,0644791777368198
0,0628464117450991
0,0643347736130688
0,059512979131797
0,0655799732524884
0,0607382848640074
0,0634815592500841
0,0655033848657504
0,0632423151654929
0,0656992749123917
0,0637025499996491
0,0631912180783692
0,0648269482314866
0,0601020576542128
0,0627960088139213
0,063270582866034
0,0658270729341577
0,061462293721798
0,0633560651462981
0,0613043360715073
0,0643734315325925
0,0657517968076519
0,0633148376700739
0,0617214025346468
0,0631803642052111
0,0630272462527641
0,0635513116379504
0,0619845810263674
0,0667539566306657
0,0625113436873646
0,0613039963972676
0,0628822316526838
0,064049210437361
0,0621860025542156
0,0633120380028782
0,0641486062962759
0,063781172139449
0,064491133492121
0,0618805265855777
0,0623653718806941
0,064423393665754
0,0609476417576633
0,0668892564170047
0,0620560042087936
0,06349290262797
0,063055402575622
0,0632007907837499
0,0619595864890688
0,0622610572780096
0,0617694813346909
0,0629984023533266
0,0617977329139329
0,0604515682890527
0,0621945715550992
0,0647716435445381
0,0615527054144968
0,0650211710334225
0,0640216457690368
0,064319643793344
0,060938840705198
0,0639552687246699
0,0605991785743553
0,064012444110155
0,0646695666047389
0,0614363334187614
0,0609536469467609
0,0648860998237624
0,0624333386352608
0,0620781894670418
0,0619492251912802
0,0625694575252403
0,0606161803593478
0,0597967958487535
0,0581896538750542
0,0624555611822154
0,0610507719067226
0,0632426843323484
0,0633633176675445
0,0606161643344305
0,0596038319633244
0,0614651957999828
0,0612438685592907
0,0634281046470047
0,0607881152694301
0,0623879499262434
0,0616962962782812
0,0619511640076122
0,0601879799028758
0,0627987884981635
0,060178619800425
0,0628280362558233
0,0608146674392729
0,064172695501347
0,0619205524664347
0,063634954010504
0,0612047239827412
0,0649681396127511
0,0618631558152811
0,0591044779229629
0,0643873032188911
0,064158530764442
0,0619563164056754
0,0640253505177897
0,0617608103236488
0,0620721671373837
0,0638043716528148
0,0634589663192812
0,0634190054042378
0,0649361787760023
0,0642302036757815
0,0620975688243007
0,0626635692489263
0,0616068808853663
0,0635011005492126
0,0669190324712322
0,0605970725124308
0,0631459265759666
0,0636694011571426
0,0651166245155117
0,0608312489938106
0,0639301346656987
0,0624996270694603
0,0621429623984812
0,0647076320656635
0,062194550218409
0,0602361323996607
0,0634596073552741
0,0611193653926379
0,0636978812969445
0,0630246341717757
0,0627128587360055
0,0633886295167247
0,0650635451258894
0,0601256950908054
0,0634622353631385
0,0621736167850306
0,0633927087393734
0,0644664419918784
0,0637111546717083
0,0607038241777775
0,0642178238403069
0,0634860889142228
0,0657616039459507
0,0626460059216667
0,0653562260220087
0,0645543080194686
0,0627080172080155
0,0638595981273169
0,0661201863519877
0,0633198159498898
0,0652216328176195
0,0627736385199862
0,0648627602336159
0,0641569154199635
0,0629323037250222
0,0626728457400671
0,0647342940167011
0,0638647547386818
0,0651589428712901
0,0624615893684251
0,066815477558782
0,0676442866664177
0,0666129265406275
0,0641634007084066
0,0662114619738521
0,0647399340131147
0,0675581959557696
0,0651679404218099
0,06577720789978
0,065110120355583
0,0662801301322904
0,0662160008748465
0,0652947654419626
0,0645447099933446
0,0666206687550948
0,0654934401343696
0,0609917472944023
0,0649208818487971
0,0666846807534496
0,0653973855950184
0,0653714063068656
0,0656299134508494
0,0663466574465278
0,0649340365293718
0,0661371992515875
0,0653581482564762
0,0675724702711223
0,0649305354677329
0,067189011614397
0,0661820576195329
0,0631509739160803
0,0629444020686633
0,0641580372536389
0,0666841944137419
0,0648467363434558
0,0653666077438416
0,0672722233390744
0,0627296542601185
0,0649309890539419
0,0637158404024355
0,0680085391887122
0,0645563689627914
0,066401479180079
0,0659334835694943
0,0673044766171441
0,0664139276246168
0,067731219720328
0,0649339786443755
0,0675340803623181
0,0668590425825997
0,0681861932369143
0,065436402834608
0,0653602413931725
0,067295681778245
0,0687362231949214
0,0684677777792157
0,0670650755693681
0,0681289607110738
0,0679535537499938
0,0666731840855192
0,0674751191385484
0,0672429875277209
0,0690099395152988
0,0702400756141621
0,065996221040003
0,0694917643099876
0,069307279949844
0,0672709606028695
0,0705407709081492
0,0704408860042712
0,0690532748594694
0,0686573617552446
0,0700654873179167
0,0698082484821405
0,0710659945221491
0,0683491067445258
0,0696990033097078
0,0688573997669873
0,0707150913545778
0,0690141648374956
0,0681425448727715
0,0674230998280406
0,0704866006427282
0,0673220828526007
0,0724601415625774
0,0698373695158875
0,0691090657623809
0,0705063765775403
0,0690445361684856
0,068026087445076
0,0679342189164425
0,0708076552003111
0,0705718282146065
0,0707495501842906
0,0708038835701933
0,0720886832451108
0,0712352410336357
0,0716142252947246
0,0683413155208043
0,0720136957420398
0,0720494548321635
0,0696686109272608
0,0711246621524561
0,0721163072086731
0,073019336860445
0,0706795497241338
0,0705974569840249
0,0709845340050866
0,0712295138720687
0,0725079695379353
0,0713614680992584
0,0718536524068934
0,0715410786910827
0,0713872313504953
0,0687115348242772
0,0706190154538563
0,074025512976941
0,0750010697330563
0,0724763437450466
0,0723679563414
0,0738529103265686
0,076427621626706
0,0753545321674083
0,0770682295982321
0,0747302418690822
0,0762829354916829
0,0760898694646608
0,0768514318796435
0,076483000237274
0,0827320739153927
0,0838337864587467
0,0828857227773165
0,0838661528639926
0,0835946381912962
0,0881019510570736
0,0914491683869747
0,0896773096357041
0,0905908967536736
0,0816089006813011
0,0851797153557442
0,0853443191467273
0,092499611101031
0,0931414414769686
0,0901192291819641
0,0904954014607605
0,0971248941471291
0,0872083885998177
0,0966545501733921
0,0940439810459807
0,0923685484979996
0,0932872708254496
0,0905010281689818
0,0881910045338891
0,0968266698472028
0,0842326031624855
0,0955610576539378
0,0830669015478535
0,087625293550296
0,0829425580366207
0,0874869607095885
0,079365994128438
0,0936831364930615
0,0790661280587481
0,092497840041057
0,0799887326085602
0,0945093056428848
0,0762672118021066
0,101032466163617
0,0764257548356123
0,101848867315277
0,0778611419382505
0,107352299973101
0,0750273447653226
0,11612835248952
0,0744563807466067
0,107739620714759
0,0675179018509603
0,109127354004801
0,0705511885721
0,119534667937355
0,0700433295300704
0,120107253191736
0,0603224096575277
0,115056069592781
0,0644123632081508
0,121340367887874
0,0678981560774737
0,111368756009372
0,0721745572355154
0,118405537870618
0,0742026694573905
0,093710832696726
0,0898817509888637
0,0899410019206391
0,0975069179618032
0,0778373233256918
0,107666072771063
0,068447318389752
0,110251646641002
0,0675122164008588
0,110985505229163
0,0673151281598226
0,104264190380809
0,0765941470874483
0,0962083091011487
0,0824551780471067
0,0885699753270838
0,0887100823442009
0,0857354748922018
0,0881576210745403
0,0879347340355979
0,0828276022705782
0,0895067612128045
0,0820117178115946
0,0922199426708531
0,079678175852238
0,0923548100926084
0,0821818184926613
0,0883396817329914
0,0841855511045647
0,0876489944468256
0,0857494520475163
0,0902791888261377
0,0848288565346238
0,0876575347357769
0,0816084839756057
0,0884289220147818
0,0833672903595635
0,0877597631462489
0,0831619953106039
0,0888245901539677
0,0839092403230926
0,0903320133071998
0,0853243104581244
0,0904726893898915
0,0839519904960437
0,0888334470742119
0,0856635484109855
0,088918887489797
0,0859101122774143
0,0916712284646177
0,089395079370317
0,0930560443203845
0,0879696118652495
0,0918913644599366
0,087822558617669
0,0930119110915531
0,0870434387777914
0,091796706411662
0,0884470271097099
0,0963666663412844
0,0899426726233356
0,0941143568605849
0,0897191671414718
0,0935323222853307
0,0887731821553149
0,0977887797386654
0,0900412951819033
0,0931719173645158
0,0874942412900561
0,09667676997296
0,0904136174790577
0,0944120230007019
0,091746141036638
0,0943222860021744
0,0905697502739484
0,0961968184702656
0,0912291889651682
0,0965595096409463
0,0922615569493859
0,0966045514903357
0,0920894680616289
0,0961000674424978
0,0886706235720765
0,0980115784947071
0,0922697582655161
0,0960469190694856
0,0933420837338996
0,0982362358096956
0,0939486954758452
0,100866549260617
0,0962581178404808
0,0983801896510478
0,0956445535235051
0,0969741664329394
0,0930016154806065
0,0987071265815962
0,0964688506426779
0,0994020133733287
0,0947197242226849
0,09840468323267
0,0961794361780346
0,0994729682545202
0,0960706554302189
0,0986159888124605
0,0967826009363186
0,102542545649627
0,0980976913938197
0,101215696671059
0,0970030129361645
0,101686341487807
0,101025427400459
0,101941040614452
0,0968350252860861
0,10010084001012
0,0988147853174091
0,104405675573552
0,0977519909472708
0,102943636768029
0,0982886323719919
0,103534060189439
0,102661806545894
0,104359977948934
0,101023327192737
0,104374311522812
0,101083600705982
0,105122066381016
0,1038837600486
0,104077964934145
0,0999371334201107
0,104024328220225
0,104399077303833
0,105460245127398
0,10128665421668
0,106826577064866
0,102997726827042
0,106738720031092
0,103688493598644
0,106932058803176
0,104697249783079
0,107152587413708
0,10460984472868
0,106322687265665
0,101217159959441
0,107811546089464
0,103165267852318
0,108542415540303
0,106215610712317
0,10688639618335
0,10411341125485
0,107885287373682
0,106674914911592
0,108985989521321
0,106410316738814
0,10877423175431
0,107045812821569
0,109740060860896
0,10506953878788
0,109534652246823
0,106766778694036
0,110228660369309
0,106740620048202
0,110656730269009
0,107994808562547
0,110606612026147
0,106153373371632
0,110012287006282
0,110028619565824
0,111409703839793
0,109111213708458
0,112864589786844
0,110114216406774
0,11288151931135
0,110123215531183
0,110855236832432
0,109786148432684
0,113648150757151
0,110590429465582
0,113661200680175
0,112307076803192
0,115448171405685
0,110896392057654
0,11300801957611
0,112902175435638
0,113598379593815
0,110184612096147
0,11548690700851
0,110619583977769
0,112110948350891
0,111794023662348
0,116799697093392
0,112434112742
0,11401571092889
0,11267234664764
0,115968873668598
0,112253094117011
0,115313372835214
0,111880328127129
0,114801491363532
0,112853581371465
0,114239852724869
0,111846408155981
0,11639104016639
0,114113814056163
0,11382866634102
0,111499305154621
0,114817453075996
0,113379330020777
0,115290820199572
0,110790886889617
0,113397772321011
0,109697225478431
0,114619353590204
0,112679299857009
0,115040274783599
0,113062248749632
0,11482662891815
0,111987291717639
0,116478367354397
0,112665879705944
0,114882299791134
0,114161223872004
0,114154263422843
0,11356651574045
0,113221579499336
0,110335646026198
0,116144043571665
0,113950829789966
0,113723059446399
0,112681688196761
0,114899842086801
0,113222107712785
0,114800666258693
0,114683864875069
0,116555134223998
0,112212476135735
0,115201428006013
0,113035189050561
0,116179738411661
0,111051909125125
0,115342845542404
0,111711058447482
0,114553556939335
0,115461552868184
0,11661460547817
0,1106125136841
0,11326353066639
0,112266459916432
0,114091925351926
0,110782320590526
0,113217690247338
0,110766039681476
0,112652443416937
0,1089834981259
0,114222388397105
0,111925395890555
0,114013021248538
0,111253156540082
0,112822945712448
0,109123839124469
0,112842414132191
0,109683529922445
0,112116700570151
0,110012023088346
0,113753308165194
0,110229641482268
0,1116076766304
0,109064196908574
0,111121471147621
0,110201045951962
0,112933185676375
0,107552914818312
0,112659846557264
0,109320862555333
0,110060579516828
0,10961642921771
0,109250276824412
0,108103481161555
0,112306086918936
0,107157977092063
0,109542384838828
0,106904191158243
0,110214102905436
0,110487733029943
0,111526446951837
0,107437163945011
0,106837012543232
0,105268007926828
0,109091029004804
0,106719344840453
0,109112889896956
0,104616508966711
0,107185309971691
0,106117638557635
0,107407423451455
0,105442964355484
0,108094532084537
0,104177151027758
0,107261256592519
0,10376170907294
0,107462792599293
0,101502985175862
0,10473016597687
0,103781944255123
0,105047801798082
0,101726961624883
0,10570621742443
0,102423968341655
0,10441586109699
0,100370646718905
0,103062714433293
0,10062708759826
0,103646177693969
0,101571826109334
0,100884511793025
0,101927936645686
0,105288204476258
0,0989453954769086
0,103726097753083
0,0984168264148438
0,100908395062877
0,0980915718012864
0,105225136914997
0,0993986516009629
0,10063649298246
0,0979694771977234
0,101130472304387
0,0980796051506762
0,097496937669205
0,0976934633133185
0,0977498115140511
0,0964522516113763
0,0945733075505925
0,0964515152776871
0,0996416737828338
0,0953546513503799
0,0958463326760184
0,0944061260701784
0,0956436328060086
0,0965283595584076
0,0961865777337035
0,0957436819503771
0,0954546970933249
0,0953845387398762
0,0956594689089312
0,0939153268823816
0,0939409293987026
0,0928861298712487
0,0951849187395172
0,0937941166073519
0,0939135997101045
0,0916495400099064
0,0873801347249625
0,0993113542493184
0,0914040297574859
0,0919001081400185
0,0922426709240366
0,0922399037747087
0,0912513953302974
0,0903190128671455
0,0916364855787367
0,0895213916503125
0,0916891238052587
0,0894748922037649
0,0890917386581415
0,0895324613218952
0,0890592062685919
0,0863937688579096
0,0905352791425345
0,0866478420449146
0,0870109688391233
0,0870946179063178
0,0888248090401414
0,0871527128009616
0,0875780000571311
0,085890397048876
0,0868019768844667
0,0863293980387706
0,085223657474214
0,0874964991452506
0,090830127315462
0,0856977593481307
0,0876294120765596
0,0847706055892481
0,0873360540782011
0,0834683756675629
0,086815155732838
0,0841725783716959
0,0850306892852252
0,0830933957092929
0,0851423093337945
0,0802047250316772
0,0837817579257764
0,0820646799170078
0,0841277910164457
0,0827671891508452
0,0824008606901834
0,0791789021578695
0,0840788493556126
0,079936862517026
0,0826962661961509
0,0788884115763982
0,0847301870660569
0,0792170945342163
0,0835487738988641
0,0725035461720533
0,0900206634504958
0,0794855289314282
0,0817450791098184
0,0797164915246695
0,0796898766457032
0,0789645602377714
0,079525866912182
0,0802415373609158
0,0800815669945505
0,0785875744059605
0,0785751803980828
0,0771111982870764
0,0798734319248076
0,0760070927552296
0,0788844703920785
0,080415890561217
0,078891327836788
0,07880596013441
0,0807003161388519
0,0791544674368247
0,0754689823201783
0,0780486102783617
0,0824388223909157
0,0735407822265134
0,0797690688831507
0,0726444875658158
0,0808374586556063
0,0870345296462001
0,0716697634056948
0,0823693854576285
0,0711641376080909
0,077747301721381
0,0739900357147513
0,0773566104713354
0,0720580666111621
0,0792963577421617
0,0761244283343298
0,0773667654671891
0,0756245385256052
0,0762777977184462
0,0760879955798269
0,07350765453173
0,0744421656152791
0,0751733420903628
0,0715909288165109
0,070823494113845
0,0730285011149792
0,0739516401356789
0,0737772087722345
0,0764644955029623
0,0696828910564341
0,0762237985623985
0,071883272823644
0,0749520916934531
0,0725869863324426
0,0756948940934151
0,0725404686143526
0,0841398676987706
0,0731004269671524
0,0712341606303473
0,0753500402524786
0,0717761956926208
0,0752132535633405
0,072269051824785
0,0744322243077201
0,0715869057921775
0,0741935331841811
0,0715990903373015
0,0756454705372064
0,0714324010994314
0,073600676537502
0,0707002433200276
0,0747105417195381
0,0716591056205226
0,0747639059042161
0,0718978788995961
0,0718988114658041
0,0724759920315545
0,075056512209563
0,0835942874814514
0,0725626052020652
0,0793532299079553
0,0732979048961049
0,0764940191376754
0,070274212187375
0,0712675395596143
0,0697519971600594
0,0730666819767794
0,0715371822277582
0,0722575278406711
0,0718279761797642
0,0724791592988407
0,0704437879367421
0,0739993930865015
0,0727272371735046
0,0716135622373863
0,0722444562231508
0,0758569808231682
0,0725103273334868
0,0703465990232918
0,0727452289445024
0,0730079845561879
0,0804867308880282
0,0701543851664546
0,0784313109024277
0,0608550480442592
0,0968838986705206
0,0640712039549967
0,0781202390932578
0,0717868739993232
0,0758796993493756
0,0732784491655879
0,07575981532543
0,0741125547286174
0,0753563550565668
0,0711724043004382
0,0740948812708358
0,0727509163015304
0,0740954851681535
0,0732476538339389
0,0752307895203678
0,0836874578371232
0,0829523850786316
0,069966381236518
0,0781466429062215
0,0654636270060137
0,089611796412935
0,0785283121132936
0,0730151418387482
0,0785844031631206
0,0738594126198349
0,0765320852097108
0,0719632696063775
0,0772022301921194
0,0763316962189556
0,0806679925150056
0,075681649097613
0,0777625899637977
0,0777002574921633
0,0735269427069565
0,0776247074586461
0,0756690613898472
0,0816410590833798
0,078530486336496
0,0775151626962057
0,0820505364935304
0,0753818333217951
0,0790525773739405
0,0756822153055942
0,0823093070643966
0,0773816865111745
0,0842546228050534
0,0813306716977276
0,0835915570976027
0,0851723749378481
0,0802812803459925
0,0764694336931691
0,0858312014580322
0,0789933181514367
0,08814967222568
0,0633097521343969
0,102239243514224
0,0858062148767386
0,0905794791862133
0,0856954826190782
0,079864610786369
0,0856715757287421
0,0798936858350659
0,0900636790839151
0,0801963436803127
0,0985900419332209
0,072099625225637
0,092665051481776
0,0717952640370817
0,100047582877078
0,0869666431802449
0,0946015744510149
0,0849965291914341
0,0906677026392031
0,0859769088305992
0,101601858664362
0,0799711417059171
0,0997258923493222
0,100397838973178
0,0908230275546466
0,100139290959847
0,089952449271648
0,0930846968737294
0,108276483538117
0,0893214101972315
0,105417622558784
0,0910867247564649
0,101063327326124
0,0905834102598147
0,113132981510908
0,108703058432788
0,0975311687542664
0,10369848792822
0,103026463940775
0,0991949470103403
0,115738715938389
0,0999740546949997
0,112071755076194
0,102478493971538
0,11367869982716
0,0929794762909598
0,138890989622078
0,0958256688084268
0,133028396695973
0,114893899595419
0,122620562708169
0,116880773618416
0,123735233073982
0,115831954197082
0,131333198249842
0,11976031361505
0,122122740690104
0,117914663606547
0,140013266355944
0,128128474832494
0,125018429241969
0,134061509319072
0,123247944098326
0,132419538170137
0,156474294401449
0,147218203130947
0,140402789705138
0,138449695488049
0,147128880601834
0,151330445502151
0,139228343784226
0,150656124220418
0,145497653421763
0,149883000252463
0,153148583493773
0,153097693533458
0,164140151780897
0,155550650132929
0,168452466327233
0,155999254937505
0,175867130607588
0,183807217172479
0,188806185425462
0,183221342372069
0,16900935482449
0,196075043500041
0,181514057012611
0,196682993669883
0,186059178003321
0,19621914830407
0,201967118286482
0,199643991213248
0,205163394644602
0,201304148722479
0,227749474698334
0,220271671511547
0,2309626249774
0,226584311453359
0,218386594997376
0,236272896815127
0,225012716036346
0,278610137671838
0,228931172448763
0,266756310366729
0,235702891772534
0,288823729010382
0,278365891202175
0,268236216965307
0,270905387803992
0,281522678930425
0,277401494411488
0,293768517267753
0,292388661543227
0,311678581928938
0,305022109136083
0,30996649636153
0,293399807161472
0,37413472988634
0,350195552002617
0,342468398836971
0,337335376599305
0,344963049289225
0,34958008209821
0,359667065440964
0,350263034364044
0,372424696540118
0,358940482918246
0,401051522962549
0,392043657366447
0,382607361502067
0,397437418353332
0,39695608046895
0,425297175536936
0,391234792223699
0,446454259606758
0,414175477795876
0,43364466882918
0,430001389555975
0,446403448182894
0,445792056588061
0,451886065140682
0,478191362706507
0,46446916434668
0,477637440464667
0,474178994074927
0,482282911274981
0,493356250722146
0,494102198048042
0,504419665479817
0,509834110222708
0,573706579402624
0,558199418730188
0,555725035608684
0,51989444254365
0,535151342743385
0,527454320550464
0,538628990284387
0,547920273687681
0,557938088729999
0,584324138387684
0,55470955789469
0,562378485256667
0,573684960114232
0,559111538810458
0,573660438752737
0,583133022630904
0,583815431900633
0,571931805577673
0,592482136645749
0,568820172397308
0,648488251944922
0,584346754849009
0,5703535238692
0,575561769483651
0,571346597860353
0,567857872504473
0,572492267365482
0,566755237592072
0,574607247689075
0,572306901874138
0,5412451304443
0,547574561576101
0,556748583905038
0,558496213885514
0,53047268266098
0,523800283906758
0,51967421820798
0,522501230716955
0,513863671184025
0,512913951300263
0,532948852670166
0,502548447983773
0,481395159025797
0,485826551787131
0,465000716582856
0,468583056887815
0,459847750735239
0,456996887174786
0,446444108765538
0,441617519939941
0,429964371114894
0,431019588514022
0,42067126573839
0,416172708646451
0,406480423045399
0,407182839717148
0,396048498165388
0,393416101269404
0,381933700156345
0,38235107345926
0,379410994303961
0,373028730377058
0,366916761599147
0,365493658074379
0,359266855249734
0,355532696872445
0,343986480617483
0,350376292087255
0,338581455083504
0,337839379340474
0,329149130483625
0,326687869787946
0,321809379983031
0,323228147977882
0,313389630621544
0,311230360180491
0,309680745116233
0,305471147506812
0,301337963879585
0,295026075404523
0,296715577989806
0,2899500652764
0,296499652127405
0,289063070932008
0,304079213563769
0,281813484868439
0,281609652521292
0,282361502076315
0,273198116899921
0,279696182376271
0,269685526025183
0,293316485298541
0,267713830278885
0,269512948908094
0,26378380616246
0,271775055792769
0,262197869731273
0,264550023104946
0,245925934612319
0,263750834077557
0,231113418122914
0,281122787820616
0,285693227392668
0,284973643169398
0,252366685489719
0,237811197436784
0,249747507680543
0,251447519639662
0,254530337694089
0,232257813625438
0,247100590271758
0,229809543972847
0,250675583584757
0,238250442304838
0,23457773338823
0,232327285321438
0,23246258099298
0,245470822616081
0,23649065730461
0,232144217199812
0,244278336027966
0,23981957578758
0,225333039227916
0,259103977240089
0,236288709665139
0,225767472777162
0,217361786052292
0,22228565002005
0,228280984990667
0,231081832679474
0,234107717963031
0,217300176904419
0,222424794684004
0,215115832551341
0,216130801898012
0,2267654806152
0,21335989325045
0,229856979689926
0,209665592989094
0,226882726113681
0,19586535524616
0,228122153970168
0,213318703356531
0,235990557848337
0,208371715944199
0,210470689242737
0,22074336961392
0,226067928023507
0,216460692970022
0,206432199637073
0,204755295409334
0,208176685739995
0,203949378620686
0,211986923206839
0,202051816328358
0,212385157612649
0,214273782472365
0,205455759471247
0,225690946301587
0,228672781850045
0,208552953982599
0,195831637563204
0,191994496936573
0,206482643239956
0,190669423101093
0,196901375093857
0,201432777659622
0,199170203642917
0,202055917067792
0,199114320493428
0,20668820132614
0,190034566483835
0,194450203443886
0,193879055807485
0,189339696844349
0,204807260793134
0,210151474628305
0,192579766850279
0,195725769086423
0,197651658907731
0,201401949609263
0,188172316798582
0,193395503835624
0,183223781372138
0,193833968555806
0,190855787110968
0,196359527930186
0,188438429037148
0,192142752346492
0,184032431232699
0,202643423853191
0,186200325790917
0,200486176126899
0,174087587633922
0,211154694567271
0,197212851824382
0,203771254765967
0,191121290694898
0,188752184115306
0,190913427416867
0,194238839874449
0,18516852974214
0,203574176775163
0,188372569674404
0,20025834861574
0,179911236810447
0,197368707133163
0,18402311139675
0,198453721751592
0,183717963564585
0,205656590945692
0,197959400822183
0,201036845615065
0,202627494281333
0,19082388701608
0,197387850499956
0,186740609724142
0,193131667954593
0,187127883090554
0,183795006346426
0,194011221585571
0,19014487694969
0,190794580151689
0,188692251299403
0,186780962824779
0,186416526024144
0,188341156329428
0,186280343270023
0,185854334160284
0,188440545690509
0,192486854471792
0,179083489300683
0,195009109459738
0,194083912359955
0,203448855334674
0,185401255730684
0,186336838481505
0,192004169170672
0,181866581893756
0,189220422585289
0,1953341990474
0,190448971647638
0,189715166609197
0,18330087079382
0,192377587482975
0,17871954069286
0,193900266319606
0,184413552561295
0,194873891277331
0,18507048684852
0,182588607374842
0,20021556603771
0,192043512060408
0,200311262286483
0,179364280877798
0,197185149585766
0,182190257556633
0,189029763167346
0,182459525303629
0,189093177873561
0,180860732051922
0,189930393898275
0,184858617090128
0,185877598325891
0,186862259173535
0,179482296521182
0,190067309007279
0,186876184673913
0,188227865596487
0,186182972824961
0,185229321241846
0,183342106249957
0,182563672856424
0,186754786662101
0,189805730730882
0,190140345921255
0,182331906269189
0,19274390361528
0,195746508156651
0,192209943363408
0,182481289524421
0,1823530784226
0,182044884292474
0,186068044274849
0,179815284554423
0,19054143094783
0,187702969258627
0,192872832972619
0,181401733940523
0,185985841283778
0,178905059773949
0,187110716088437
0,183313010398758
0,188451588706915
0,182966047427854
0,18611982919287
0,182274931585125
0,187899947225079
0,183179961397479
0,184487623303402
0,193923081213103
0,187628417701422
0,185965251259128
0,18612664412729
0,180831889942791
0,184804943780564
0,183812932183988
0,186530407490826
0,175944553355093
0,18876794425006
0,173843955389663
0,189315142932858
0,185136964557532
0,189695399596041
0,186799474534906
0,18153189639913
0,186347091444097
0,181091186360862
0,185223003000033
0,179631208105466
0,185249871614275
0,183080800049514
0,179413424072174
0,181497103983203
0,179875334807651
0,180556143086635
0,181312782504208
0,181107211186603
0,180643038574922
0,180238436360369
0,176777297058309
0,181512092799368
0,178439611261991
0,181785551506224
0,175805511278814
0,178753954689344
0,184798709692767
0,183372708183539
0,18460058242045
0,179160376142502
0,188464971630148
0,178722085434718
0,183921431385543
0,174871985636373
0,178155828012301
0,177432402751618
0,182119235364816
0,178494931023981
0,178403387477545
0,178217717382691
0,178020693222302
0,176128653549971
0,181787403422605
0,180643918920873
0,181648140104376
0,178992669744047
0,179237452571931
0,177696949907654
0,176887308033899
0,179716233336969
0,176875348979826
0,184098258073503
0,175756471095478
0,179136397406095
0,180105734440592
0,175715352915879
0,177668952152654
0,178243442850779
0,180239474333006
0,179084156680441
0,178199857435781
0,179830174031382
0,17893064427013
0,178425903287897
0,178497959029475
0,177187947304335
0,176284000575136
0,177696382990866
0,175492283591049
0,178350359116023
0,177298822762268
0,178147602285773
0,176712070328034
0,176460196869455
0,175041397290466
0,178569339715422
0,173098808445986
0,176728451530462
0,175847777685067
0,176873392025072
0,176233780459748
0,176260639816555
0,17869392401469
0,177609824866908
0,174087553287061
0,17628664696444
0,175277495618218
0,178276140446444
0,17352601510012
0,177419168546085
0,174119190451703
0,174040979297307
0,175189497082989
0,176097596855641
0,17546441353033
0,177269941053683
0,173844952972039
0,177772956144405
0,174799280849395
0,1755248330601
0,17405218651666
0,176251162566672
0,174385660031149
0,178506892936617
0,175593319033861
0,175174328923902
0,175298337956178
0,176749213583444
0,173857453347998
0,176479953024032
0,177259399256442
0,177213455941472
0,17718465493553
0,175851173492393
0,17622888553369
0,175695642553732
0,177165198066468
0,176026467166547
0,175164783827234
0,177302229218628
0,177238484477334
0,17757716414133
0,176781739588509
0,177841866065922
0,175995360069492
0,176032214497909
0,173346149711123
0,173727552267544
0,176789694555954
0,176710504342787
0,175721459107155
0,173770053121496
0,17369260132682
0,176947799861904
0,173649346793746
0,173150221270295
0,175375037228807
0,174672150984366
0,173343886941841
0,172314510467035
0,174622932299965
0,176175640144056
0,173432972815302
0,177190696013543
0,173703242837736
0,174316482097387
0,175306613280398
0,17526051956191
0,173851203977283
0,173665817741211
0,174322654649265
0,173074153877969
0,174582445796022
0,173157754416244
0,173122415038513
0,175202958902292
0,172002368803204
0,173809446289961
0,172712104419002
0,173041673930948
0,174277055018048
0,172776956643181
0,171804228629129
0,172694635990378
0,172710021439631
0,17223120133035
0,170183119969559
0,172085631338792
0,172186556310739
0,172647280634555
0,169801199834262
0,171523427581913
0,171012686520918
0,170891849794334
0,172041781349344
0,171930334312509
0,17219037929499
0,172037411824136
0,170070985075645
0,17212964526827
0,16983647258745
0,171202322269672
0,168938010681275
0,170522499550662
0,171055211018716
0,170080068356545
0,169450787824798
0,169365832903122
0,16955407327998
0,170458294704117
0,169361190279237
0,170563440306584
0,168108832674973
0,167513045729296
0,169532177990806
0,168899482556915
0,170443012843796
0,170547892210577
0,16896460967716
0,170003887754577
0,169435872783217
0,170914927884215
0,171601539485223
0,172196057984972
0,170954509869159
0,17150622775352
0,171936511558799
0,173179829840105
0,17305829782743
0,174691185317102
0,174789649096054
0,173763472505524
0,17463942477471
0,176983942689182
0,17686416142526
0,178368238185202
0,179078206476838
0,181455554801513
0,179848589636397
0,183091740377974
0,183676924794149
0,181093837879798
0,183846703245722
0,184751880951769
0,181825080429112
0,181922711746143
0,181167952174228
0,18092930019427
0,18237909679852
0,182755926669893
0,182253044845054
0,179505360954518
0,180228432700667
0,180880300169484
0,179568323454566
0,180005232089701
0,179362486548791
0,180116608426002
0,179318385503893
0,179371339438126
0,179710029363483
0,181149371259595
0,17977949646258
0,180492036020404
0,180215711825452
0,178267762145997
0,177962821613543
0,179575670397138
0,181942581615764
0,179550496416123
0,181683932181068
0,181163927531164
0,181782097653759
0,1829874964296
0,183801147082887
0,185181309646836
0,185683133806898
0,184550047298827
0,186522010914223
0,188397529543181
0,186514082150325
0,189185341433898
0,188857178623568
0,19156739347226
0,18955801982463
0,189791998120045
0,191442270312047
0,190393698128283
0,187294191708349
0,189779527128408
0,189286842699016
0,18788124113584
0,187430646389336
0,187037137276932
0,185746741476863
0,187476475596242
0,185371269529127
0,187792235835432
0,186458712922267
0,188166248043747
0,185773085458464
0,189892257473289
0,191045019965548
0,190816830733112
0,191447679223549
0,192219072086237
0,192344771470816
0,193947253848311
0,19457267676751
0,197874122869957
0,197102061231101
0,198795307907324
0,197889604184715
0,198813388841816
0,19871677420273
0,19894718200999
0,2001919022919
0,202536872040873
0,203923408185061
0,205043177266467
0,206256742977718
0,207988866728787
0,207501652106467
0,207001983824539
0,209153401470838
0,212533646788757
0,210399670562788
0,212579386883831
0,215564621046323
0,215675722164505
0,213405204157091
0,216106581102127
0,215071834936294
0,215293742339088
0,215826633049985
0,213584444130654
0,211473355038809
0,212845675326352
0,21050112241621
0,21007924026002
0,209355566118027
0,209701562879999
0,206732784930332
0,208062166085548
0,206473871544437
0,205177678221014
0,203285859415919
0,207263856488299
0,205292537303902
0,209681808008208
0,206305003338445
0,206180744863752
0,205961150715117
0,206875480009137
0,210066933771755
0,208243680965403
0,211509160575973
0,211138190710652
0,210443352696892
0,211395905018423
0,210671672468892
0,214285913751749
0,21275043699775
0,213084514432554
0,212767581362987
0,213770571344844
0,214671080324636
0,21475664841412
0,213768053189501
0,214563536804629
0,21432255363153
0,212627749451505
0,211952838405151
0,216008187257588
0,216032000787878
0,214570496285372
0,21521048235369
0,211410236618153
0,21270290945424
0,213482536902763
0,213255003846719
0,216260695480156
0,215619875580623
0,214340880163574
0,210430763478874
0,213942763141412
0,213392436092957
0,213181311177167
0,212883658012899
0,211821570412101
0,211714734852755
0,212091136522766
0,210961380644708
0,20958130381027
0,20795608728671
0,206717681728967
0,206462690438057
0,20729498987127
0,200553057410968
0,201428358360949
0,202170497912088
0,2005542132125
0,200547249034001
0,197567728445763
0,200247092711306
0,199937164717952
0,197403003644313
0,201768792049223
0,200683761558401
0,203958816208365
0,204221699578292
0,202202994118688
0,20378023648351
0,201496245274816
0,204194446691123
0,204689448227454
0,206389785080032
0,203868008099357
0,20608696881721
0,206124641940974
0,205171945141469
0,207807027307016
0,207836283690002
0,20793765375644
0,207810234282946
0,20814631682754
0,207679266625079
0,206029133617831
0,207217164941583
0,208372843980675
0,207469914638829
0,207012486088367
0,207700021341235
0,206815116536013
0,207818553678275
0,208846990828802
0,211044329544894
0,210123364107341
0,207938505504011
0,212812153250638
0,209003012896702
0,208425389847153
0,211260271458076
0,212921987997085
0,208943178599881
0,211589218559302
0,212795224273125
0,215838111192435
0,216899874989531
0,216171914691916
0,217410255582013
0,216879755579759
0,217321211495294
0,221404387846764
0,220015789313073
0,221492300728099
0,219967117671093
0,220534895339201
0,222389722105434
0,222952075895432
0,22467343656449
0,224383396105794
0,22591650577963
0,229774647339451
0,227040709883496
0,229921995335586
0,23437584074987
0,228864078773489
0,234792795439273
0,234700825743452
0,23430210673511
0,237579865416992
0,23631476396259
0,240981677275123
0,240286544292658
0,241779270110051
0,240164739070353
0,241817139552241
0,244412243479085
0,246555961468667
0,247269303188806
0,249445313127797
0,24986883572349
0,248419785315977
0,24938495177829
0,250873107501501
0,254466366733646
0,258606602003118
0,256711011130903
0,259110525159628
0,262275714626406
0,261655990206229
0,261800686757236
0,265396962364248
0,269318437072822
0,266208847239037
0,270510676682939
0,267576049363058
0,273621784204212
0,27842565613741
0,273974395916475
0,273115944413412
0,278234855983502
0,284669625270953
0,286898778779191
0,281532059578045
0,292055056553907
0,287132281415047
0,288995581116252
0,292321917702456
0,293331069673847
0,30147742034166
0,302966716816092
0,300165575403399
0,302081576483768
0,3012201533413
0,30231002959629
0,306334928771045
0,311577588028379
0,31060196832957
0,313855737772242
0,320747197313361
0,318247125550498
0,319960551857387
0,326467110630116
0,33049375164727
0,332152390337977
0,32796525533299
0,329226470877493
0,331585099136092
0,330718052778474
0,336528040484361
0,34463543120088
0,34370949835524
0,348699491834045
0,350287392715607
0,353036551708922
0,348130576259726
0,35904819815214
0,360563685678899
0,360378615884056
0,364364883106239
0,364824443677377
0,372517144605269
0,377372400477949
0,373028684710877
0,378734890370938
0,382836399139683
0,380264075809879
0,380016971668668
0,391879227500042
0,387059583915558
0,393413590284548
0,391231529706061
0,395677431031118
0,402933016316085
0,396839205770275
0,40180159079367
0,408569156817531
0,412108962034345
0,405596610023262
0,414170837406107
0,430350334965029
0,426060583886052
0,426405498071377
0,439846029302488
0,439152830756377
0,43213162565565
0,437648158214998
0,432244076307127
0,446240273820307
0,442068843314559
0,447726471029993
0,4582401902014
0,460372326562876
0,457492023453563
0,46237836323671
0,466547431272543
0,468522983906428
0,471307586719481
0,47476371170744
0,476143868552558
0,47744793924063
0,470400070474047
0,487459462142778
0,479113478908117
0,484776810459149
0,486386782447977
0,500077097771008
0,49640211354673
0,494372542954533
0,504453797629091
0,507918281537346
0,517519084845166
0,50802566045969
0,514312343037926
0,518241803323764
0,518193370584751
0,541945486330369
0,536190425370954
0,539515041515209
0,543020034614333
0,536585336487317
0,549133509613685
0,553373492386521
0,549067451623095
0,553256880743218
0,558930909291129
0,568926410392027
0,561077867750783
0,562489203109589
0,562668428524763
0,571743604698504
0,578157202398014
0,585152647639696
0,585961213916172
0,565799354182542
0,57494188927461
0,603388578481305
0,575423446247494
0,605725214130926
0,605562644216839
0,596554242693397
0,606821370786915
0,618951805797899
0,622025499180319
0,615518342593503
0,610731039752806
0,619353384028055
0,612762656942176
0,631605030742636
0,624079594124046
0,666670639196902
0,639252400747687
0,647294231553036
0,66014939711892
0,686059245939072
0,675218434835253
0,656656340332204
0,653465892044398
0,676169458034933
0,650186892358623
0,66892731800208
0,671293606726375
0,673502571211586
0,662471921610951
0,655591497962178
0,6834128310234
0,694771806505018
0,667384479158314
0,715021427509686
0,729019095049505
0,684840430212218
0,712612087512763
0,726141704029263
0,693532698601605
0,716350096618893
0,73451644466276
0,762548768776141
0,734249829182119
0,766573911562822
0,755167568089877
0,758618113760491
0,735112856982392
0,780235947178292
0,778614378966276
0,80733865406674
0,800803097278451
0,786239237869879
0,75876808955842
0,762482478341209
0,759317612003381
0,758523688813384
0,75722204643571
0,80607892012856
0,79781363292483
0,822534221183815
0,800366903889974
0,815661135025057
0,759666081422102
0,824844855750526
0,812026306944008
0,860776018901059
0,87518933401326
0,806819605768699
0,75743876363443
0,889159102713192
0,844068218014993
0,846930811416423
0,820916265117546
0,847407412742843
0,83103281627262
0,839853673802967
0,828007020117449
0,84193110748137
0,775032836143252
0,828115046150443
0,873567685282581
0,836016041977865
0,884541547917775
0,900070775150301
0,840670400868058
0,911796015026714
0,909928620388274
0,864108310310036
0,906710616109519
0,942697708367645
0,955478268441786
0,971302280846996
0,946762470647393
0,897499107372771
0,898652111786041
0,977648350759634
0,86685189017945
0,875205923895202
0,879875410503273
1,01156969233287
0,951156946677345
0,903892444409068
0,991211662835454
0,951211489683376
0,92158343658681
0,92267239479285
0,954202477424062
1,00097373073729
0,950281748877666
1,04483593237686
0,939428926769888
1,00561700366802
1,05922063436463
0,978460580852504
1,11104941867504
1,1116247163036
0,92789355209384
1,0014005317204
0,923389764374813
0,918840789149179
0,992898864883531
0,892754622792773
0,924671423294348
1,23603089513514
0,955277296869403
0,855603192625057
1,09887885973719
1,14370584981561
0,968658674867167
1,10352833262496
0,874928941410681
1,07705301600326
1,24867410509475
1,02942761915152
1,02570154065604
0,995226200440322
0,851027296249735
1,21626367716677
1,37487320357799
0,955460772001946
1,14496007720674
1,66381384440317
1,51974769067217
1,12737193877028
1,31120036509789
1,10525295127839
0,644665022297427
1,1743712021094
1,04273864891214
1,08018628863877
1,08636835827585
0,692564730782198
1,05678942163477
0,933633229183294
0,966524053679403
1,9737486029361
1,1491903686143
0,816335364391677
5
5
1,24646759376266
1,24933224241277
1,20314371563732
1,47092874444251
5
1,55405582464298
0,601567763752794
1,57436647328355
5
0,93063156930395
5
