3596
4000,36533379555
650,420452594757
1
2
2
0,0502709666998485
0,0477982643823236
0,0580338947448581
0,0550324987693469
0,0510546146408339
0,054124682691865
0,0520015872313692
0,0595808074072616
0,0558913493143179
0,0502841097130253
0,0578763486244438
0,0532740778558817
0,0525281980388496
0,0486775317164528
0,0428801378301472
0,0616663894050744
0,0565335012431749
0,0511462688799893
0,052980560314829
0,0561055399953989
0,0519336720274779
0,0529890836294238
0,0570290055129988
0,0599133608492028
0,0552399981263209
0,0509112524366471
0,0478692171119738
0,0576929708565024
0,0551732440976334
0,0555242082197495
0,0547085765799748
0,0565959288182588
0,0570555618530067
0,058721957696108
0,0532529502397937
0,0491276972068982
0,050625229855317
0,0537050113796281
0,0470825460295128
0,052182555814212
0,0521283850827528
0,058517508730175
0,0567150586595041
0,0535516515503903
0,0544708500883158
0,0640589963607199
0,0592020138888565
0,0620028522221554
0,0610338802186543
0,0588730323152611
0,056911776957219
0,0505480306563649
0,057743516747652
0,0665325616042949
0,0583608185730005
0,063279572549732
0,0508844565207421
0,0558796356016982
0,054298182472691
0,0493319609737424
0,0584670855471956
0,0607606817900528
0,0532095494158805
0,0480719346548181
0,0566690662979481
0,0598189197232109
0,0534807762416829
0,0538206740162563
0,0507842598449543
0,0592432476496476
0,0524467999781353
0,0633598870630563
0,0636803829865177
0,0617034006957525
0,0556791699243153
0,0589213875662616
0,0497667476539128
0,053187420140203
0,052530710113207
0,0638147754880125
0,0705615290512325
0,0658273422946689
0,0537591630858803
0,0434386854585167
0,0615045732500782
0,0683043481234895
0,0393453849262869
0,059230650069379
0,058472795890134
0,0572949226386842
0,05377489420836
0,0555361962005344
0,0508501202255827
0,0551103984616684
0,0494423552099988
0,0590225014968938
0,0542878622022103
0,0619835979839535
0,045069306823317
0,0632761412484212
0,0432106227703729
0,0731427325417619
0,0690559928050799
0,0510177854819874
0,0732566741119466
0,0569148774195152
0,0453208698759246
0,0720292733398265
0,0665240921622751
0,0593753025559778
0,052908946197881
0,0477221756813771
0,0504378355871542
0,060206599209811
0,0416093865870625
0,0664533950218505
0,0780065229889123
0,068878071086155
0,0530603711998148
0,0596371397790607
0,0204320943308276
0,0713002152403433
0,0651891091735113
0,0573474650649859
0,053443865294771
0,0543714703469457
0,0263617703222137
0,0751719434024736
0,0612868121912521
0,0603834365219958
0,0431890791215142
0,0620868026289004
0,0366891037354736
0,0529548152860944
0,0739434746715725
0,0666875047488807
0,0473240152368043
0,0409197561521056
0,0575267791272261
0,0888508418046235
0,0688925222265791
0,0565863803887749
0,0356162382754829
0,059419165649539
0,0718703190548936
0,0589366099682516
0,0503809316605311
0,0784705735537716
0,0490804679022223
0,0579314773274707
0,0466391797173645
0,0473366745734845
0,0588009112258027
0,0656357356217441
0,00168189564231001
0,0990770547621664
0,066046271180321
0,0846466280152591
0,0844025988411449
0,059690029563285
0,0440179471839037
0,0565919582959034
0,0505338225451114
0,0498066516631918
0,0473214679087215
0,0424615843630544
0,055508164232849
0,0681153610612601
0,0462217034975956
0,0614127053457703
0,0733868059097074
0,0495927956140724
0,0331168955167636
0,106582667983518
0,0620577857943702
0,05811026584172
0,0616947126063086
0,0725603761722923
0,0328769945716172
0,0690081201993493
0,0702038690940218
0,0655879532021767
0,0521415140767537
0,0494616979766424
0,0458935213142742
0,0777560543078439
0,0490452560475931
0,0600337964755956
0,0385348577894567
0,0468444155200701
0,0573179315537124
0,105744797925993
0,0649256823457671
0,068119118776767
0,0436685016816702
0,0395305238247898
0,0795284405410561
0,0760801188566812
0,0558551412129465
0,0678095398095697
0,0471016968201471
0,0551818764408119
0,0421333391348108
0,0628737921690847
0,0350513708691037
0,0474180616650498
0,0815002057225718
0,070875337934817
0,0472793346728215
0,0532800536212762
0,0418345225647302
0,0459490587619372
0,0903911263417136
0,0810293854297988
0,0630394022708671
0,0521751344612727
0,0437890570598514
0,0735718339161076
0,0623876639726048
0,0572160697864696
0,0508849815202129
0,064432107363603
0,0541388231040558
0,0603215178902866
0,0509345575086329
0,0578330205788701
0,0545300268565752
0,0632485148207854
0,0556983368365136
0,0622168857879636
0,0591797672070772
0,0671325861754343
0,0526521540688313
0,0610755364670071
0,0377071505825225
0,0746088400344617
0,0699464233522644
0,0683028766463794
0,0575048316815788
0,0591505496207977
0,0534429176880066
0,0635064042121792
0,0518820231110251
0,0628263222789792
0,0458378920102812
0,0710513555532016
0,0730072270334067
0,0660365816088596
0,0603041468186971
0,0490111226638925
0,0763747675185669
0,0737038183880656
0,0635654033329051
0,0545243809126706
0,0634084075216044
0,0535399617849815
0,0496552595180693
0,0908434462925922
0,0639693681693368
0,0531271093989575
0,0731175103454142
0,066458996848595
0,0723883121328127
0,0464706289608705
0,0471817498564013
0,135881713416809
0,0638977235530503
0,061610100461285
0,0986795375150645
0,0765823447409208
0,0700770019519721
0,0470851759540217
0,00605861181910862
0,119770190415288
0,107278385656568
0,0670801543194739
0,0513902548228654
0,0824680862752779
0,0610804791505338
0,0809115555591735
0,058879737574089
0,101313632972974
0,0538570352385442
0,102250851841604
0,0940315355449711
0,0678113896697625
0,090983750684782
0,0835581926998121
0,0754304214282573
0,0709953353901195
0,0723111875696604
0,0610458683822091
0,0740274654215425
0,0644649900786224
0,0893742394161387
0,0709864322782201
0,0654294235453303
0,0938016777352831
0,0884080305675466
0,0723685599162374
0,0811229544010283
0,0888722861745561
0,0669968495059671
0,0787057813884965
0,0804294818162235
0,0990706103048264
0,0661657861991659
0,0818991236010317
0,125494473524541
0,0937193685212989
0,0869780565668431
0,103490234801662
0,0943211634104486
0,0886818796862812
0,0808455550597432
0,0923512729957457
0,0828569838177347
0,0890522990880933
0,074937119962282
0,122011139032245
0,0896000638985902
0,111949501645877
0,0896903096619781
0,101839497886498
0,0951027124643287
0,10938585533192
0,0988912013978573
0,111984920438713
0,107139911801117
0,0928457865123083
0,10997522314252
0,139073156429534
0,0865348368552719
0,17347482939638
0,138577004636501
0,138304079254794
0,118089009981403
0,135664985291078
0,136626581914911
0,132706935189264
0,129706481972483
0,136323574930847
0,132124971767776
0,153209733673877
0,140904245923714
0,154436637041703
0,131549436952046
0,198534142873518
0,186348193544971
0,175876790978068
0,16540504157397
0,140294898836522
0,207944267318632
0,190555065756191
0,194568624677931
0,209547910529116
0,185402541659473
0,197409619774794
0,180686533361325
0,20070901584246
0,196289321609677
0,213840243568864
0,205829580314465
0,228994695662698
0,205731855201636
0,244059935925886
0,210640235208436
0,239751104384674
0,25189726177919
0,244260037519664
0,235129430947807
0,259918701702438
0,225713142748626
0,287442500528981
0,237782798815479
0,323712824428311
0,271990895034215
0,307068256283967
0,28292867156553
0,28377247983819
0,27224924404184
0,285316124911595
0,271534141303317
0,309125071823518
0,300803890628443
0,30864741310193
0,297596236780098
0,331851533988235
0,317507667373108
0,326386389534168
0,305188358874212
0,330652356070963
0,333278636578014
0,325011660668041
0,328790868365601
0,332260977405406
0,369195400227647
0,415221658609128
0,372288501613498
0,336518245468062
0,351795471068815
0,354554073912809
0,349702710018683
0,364787308453336
0,364357018333635
0,37382716250323
0,365524722170425
0,422685692687495
0,354310851834452
0,412810127148361
0,383074250423925
0,386036481296741
0,392865670890892
0,407109534409105
0,410609768204281
0,43112379610611
0,400400611206332
0,400072766651574
0,434439358102601
0,414987449276728
0,39113221085519
0,454781508219732
0,406305138979819
0,425630427791531
0,436961477364605
0,435350988586421
0,400930283716396
0,466184613721817
0,434489737281437
0,461167342748523
0,437574331148018
0,478247090882895
0,450232534988946
0,511480903474658
0,457794235285406
0,475690393621661
0,457594540777978
0,477701771317641
0,467167146062854
0,470554827820801
0,500743551916485
0,493520291147758
0,493978440124026
0,513968214263821
0,463501873199487
0,513857342299564
0,474791368057745
0,510884880449246
0,477368493838665
0,519702403225251
0,509897522111695
0,556470291717837
0,50885095683174
0,527427179317022
0,509024799694015
0,547672471699025
0,522421087177141
0,541378332183947
0,511182220045853
0,543306212954821
0,538049709629337
0,555069936434238
0,546809661304304
0,575954624353828
0,562886074291758
0,611381052830543
0,529319772092126
0,613400503263922
0,54123554700495
0,597801620450905
0,558614692929654
0,640436117928203
0,581319283899944
0,586576162285949
0,56757414838614
0,615454783100262
0,569186556734949
0,623852993096854
0,596359968790797
0,647526577006298
0,58795267000631
0,645978786872591
0,602452722356703
0,658141312755333
0,602117934466111
0,682098174819989
0,601183181146401
0,672594374190621
0,62168864135032
0,680067797528386
0,617642570113062
0,701089558161526
0,624021378250994
0,681634475105885
0,637391858219965
0,697225122142942
0,66079042734404
0,747308362851294
0,65559454302824
0,725878872471369
0,659324825186844
0,709849331443264
0,653317023857524
0,736408989962823
0,718498966672525
0,762702603232227
0,692034609411045
0,752738145111304
0,701002564499858
0,756404481772981
0,650910038758574
0,77332119647948
0,72363905453227
0,786495614636618
0,736368504658996
0,804393508583424
0,740704388460643
0,813923261542075
0,734658731762729
0,779256386918623
0,726759176432792
0,805295414160948
0,763198932776522
0,816311260232599
0,747713306124489
0,809424175559953
0,763767980346469
0,850781268598952
0,757370916987745
0,824905444719174
0,751027655347049
0,856926924683398
0,784278155389723
0,883699432886127
0,82946949532432
0,874557929513678
0,781692731882233
0,830183413898672
0,824794310810566
0,864259025462171
0,782010581863494
0,90880228668317
0,859102536155633
0,926833735078073
0,798664705488056
0,900320868492109
0,899687623536952
0,897797264194169
0,85558867266727
0,927583209354178
0,810886076260131
0,939100194965109
0,856476969956551
0,980473777873761
0,869261045848724
0,956126349711642
0,912469527767077
0,948599999803825
0,855621225110072
1,05929923958051
0,892372146379082
0,944634643942682
0,923513969290766
1,00135212854607
0,908332308056264
0,972592211222157
0,877397016245002
0,973961098232289
0,905776654774777
1,00194664351245
0,904576934519505
0,99036106945855
0,897533430734063
1,06882888215638
0,979162474721188
1,07748840647259
0,982378002560355
1,08771293053721
0,952799159984709
1,11741567208924
0,986904546472973
1,09840077382565
0,960250873678606
1,07009199660127
1,00361413853856
1,08925726935743
1,00517651783919
1,20142358285186
0,92268482796695
1,10649366659569
1,02245594732161
1,12581285199331
1,04939244076574
1,10866940667342
1,05774907601055
1,13488323302109
1,04597837655589
1,12331501594642
1,03452051680771
1,12818434659893
1,02147815476612
1,14341710087857
1,06162566509669
1,15815921508815
0,981034237974655
1,12948816216485
1,03000303885509
1,19270244721765
1,08394102083138
1,14703189894795
1,08037648911299
1,18520443840091
1,11642479197583
1,22370435008367
1,0713883046076
1,22983044118636
1,13557644793116
1,21125875716714
1,15459795436299
1,24954650937611
1,14122387954911
1,34564322403593
1,1980905655332
1,28082229483757
1,09047746257138
1,17908489524423
1,17453822257107
1,25801991586835
1,12574727265464
1,25869635817143
1,23676249563599
1,21632841245661
1,17361534042534
1,22848453697438
1,18662555112228
1,24936847429707
1,18903543023642
1,21256930890079
1,25604088460371
1,35537518219691
1,15535043157279
1,31002265848502
1,1454787770404
1,35194893289688
1,30150758137499
1,3121249309024
1,20971600005777
1,26478611036631
1,21084059068556
1,26724422442747
1,15561594223467
1,20705315300845
1,28920683411542
1,37636420960861
1,16167953896058
1,38205580256504
1,24965083013731
1,42987862428348
1,19812396232785
1,40338033670312
1,24832388921115
1,45033896213034
1,2582986098885
1,20780736461201
1,25311189792974
1,3512502903888
1,3237530699778
1,4664063835958
1,1821004030748
1,30546933253917
1,4226306668103
1,39822220618116
1,37740407304166
1,43260737165373
1,32835613011038
1,31304553541878
1,29340312800185
1,40527414006759
1,28852806840511
1,37038976319225
1,28720551628272
1,36312143289694
1,27190765443916
1,35974762807754
1,22083955572959
1,39071085369889
1,26241882235686
1,34875599340479
1,30399390582265
1,55743947075636
1,34881448705789
1,52996602491305
1,25824178568858
1,38782388398866
1,30445504744837
1,36314251583594
1,23639979508154
1,39979801905987
1,23460194346408
1,37369598166701
1,31352018406606
1,34209586787543
1,35214479465248
1,30151181500062
1,33536692796827
1,39170239409454
1,21026048235335
1,41337017844731
1,2343121722601
1,37280834775156
1,33360030847317
1,36171699941397
1,31418705493089
1,52065289083103
1,2908712545936
1,36081069204769
1,29616760730191
1,41973279780481
1,27419299817781
1,39321954229633
1,4336262178223
1,30389757426146
1,30362067659455
1,45164761382847
1,26309812088082
1,38739140575348
1,26881795588347
1,44791795410818
1,30026901661475
1,54361096502089
1,35056278457936
1,40475907489678
1,38102544993809
1,35882953534932
1,23383187342649
1,41953682307722
1,40887300928606
1,45343479888559
1,34237345485919
1,30558545982984
1,24796674951983
1,44128182788765
1,24292286690455
1,31678359209445
1,31764708292977
1,37477586965644
1,33570591251827
1,30146603348576
1,34978454291492
1,3425976479958
1,27077377789161
1,44297257445993
1,32044861486315
1,4040062004535
1,32357165957019
1,30516729847574
1,28704025243734
1,37676464735645
1,30787164369619
1,32530917795045
1,23461045648029
1,45241756949867
1,30414011165871
1,43070098984089
1,28324914827156
1,33136661625919
1,38687182309624
1,28253455197646
1,31627436867193
1,3642526305884
1,29634354566234
1,43659364119301
1,30826810120946
1,30816349396012
1,2925802609562
1,2947422578506
1,35296368580574
1,38158217840752
1,26480615413201
1,40333917786483
1,27197309060711
1,36553496248791
1,32309202305069
1,36601388274434
1,32205856384859
1,3495991661747
1,36868323956125
1,38372399692973
1,30603649722954
1,38811401208681
1,34286473514276
1,3302252670114
1,239418851086
1,3918106904722
1,288809615607
1,34297663696377
1,38002652738865
1,30131699130644
1,31318095177319
1,33443659170292
1,30380047175868
1,37202987682343
1,27201617140366
1,31429673091179
1,328656036013
1,39824480265302
1,31187798943307
1,3857249648071
1,40350506764974
1,3874420940813
1,30935861379321
1,37361641178234
1,24738363376788
1,35506197809722
1,2845036847041
1,28877765072116
1,28168284199296
1,31561791465089
1,30314314000389
1,34047887903763
1,30482275139899
1,3562548746344
1,24267297982513
1,30854847018025
1,29412480024443
1,32238206412196
1,20058437319608
1,35601337584074
1,26023578472603
1,31650952770784
1,2786620525858
1,23666934538342
1,25063493171518
1,33776355353236
1,22550555132934
1,29955646610219
1,29045733142995
1,3101643568165
1,1535782680207
1,29305438827824
1,25943824437342
1,30743217652465
1,24679066089616
1,27840386523533
1,27389468003611
1,31620857179
1,24002754735096
1,2592641776547
1,26234465612273
1,23043757996416
1,17895488110028
1,26577063119706
1,17584292964411
1,18854545833141
1,24600078252457
1,26214744185631
1,21457627586626
1,19101939653184
1,1837733571618
1,23901499794866
1,16492738915325
1,17807503232488
1,15873450175543
1,22548588269382
1,1840938002435
1,16739174966701
1,15743879878766
1,17098750509302
1,12585101493326
1,17249930274366
1,11701092092599
1,18612353604805
1,12363521990044
1,17821792621415
1,12960122762672
1,16573206085106
1,13352142802042
1,12520825124012
1,09983701529758
1,1471136020329
1,07098736053766
1,12616397513006
1,10880386742791
1,1152191317356
1,09684610093561
1,10854383428679
1,06562422221306
1,12102518154419
1,07201342700173
1,08267008409748
1,04711722246992
1,04156456721575
1,01922867068524
1,03455418182756
1,03115725437449
1,06331510914496
1,04971611870726
1,02079144231048
0,980501856841905
1,04646717556937
1,03141832176308
1,03628374433525
0,98205633300074
1,00261107054029
0,985823857091244
1,02577310294048
0,975063649265017
0,966893431585448
0,938184749657145
0,960960991807616
0,953203232271497
0,962666704697306
0,940940883642997
0,927369309411319
0,960562209187858
0,953666285703094
0,893083706317467
0,931089000619343
0,92675821181351
0,93190368442013
0,884459200108882
0,895375382340551
0,890182271090592
0,890166780785491
0,879099882476289
0,933833928209221
0,862179634581576
0,875558075410829
0,857731953772571
0,879398463672812
0,848828421452813
0,864546469465029
0,835738335299393
0,851769700716717
0,825892053126757
0,8271129706617
0,830730152874743
0,80297323542468
0,809188468564548
0,822031518424195
0,789837571169214
0,784908340305305
0,767388016039684
0,782502524023641
0,771103447932211
0,781593670120462
0,752512395132104
0,780882968799576
0,769647315028081
0,755984697699749
0,745284613875083
0,762770698230147
0,737658915991907
0,757003805919989
0,734695653819044
0,731492058083371
0,732461716302987
0,733368083395565
0,724418804653153
0,729598514111368
0,718516264026806
0,721435114595852
0,705128289269138
0,707013065544064
0,68046673253401
0,680727466378715
0,674103621318231
0,688938165780238
0,668821624251621
0,665996908625089
0,660368771168803
0,653473904703038
0,651206394361893
0,65697371072065
0,634668243276638
0,639272206869975
0,630796096301327
0,636614858895183
0,603743152145443
0,617354313673461
0,617900678223731
0,616451272825167
0,603098775318876
0,612457242061113
0,597663140831131
0,595379994292921
0,585186703136264
0,600206979990656
0,596684560320017
0,593592933775191
0,577768317041815
0,576692220541917
0,578085873503243
0,573229070106821
0,563864763210814
0,571615781593972
0,550286426302432
0,561621683458094
0,549669586288265
0,556661688995832
0,539552131914675
0,540452042542618
0,527361637275167
0,537533440773603
0,526743404315891
0,534892771708372
0,516123620844233
0,517783746781481
0,509084086519279
0,513855676460127
0,49745825531473
0,499780373182954
0,492128547095121
0,491538943011305
0,487464079210192
0,494904828573558
0,489368858295445
0,48468517581484
0,476697863978599
0,485921661669836
0,467890586178574
0,465014581864279
0,462267838139117
0,468689132135849
0,459484773820036
0,453794243361282
0,436685044233232
0,449020728276236
0,451257977733568
0,443881443806116
0,442396841592064
0,440462617421208
0,427093197702125
0,434858261388253
0,427709969210856
0,427780874356832
0,410471674413663
0,42624556187279
0,414177994587346
0,412072592863299
0,421848111334325
0,415658171251696
0,402597253809696
0,41263072281999
0,394246670861452
0,399162886127909
0,391874372103247
0,395687433212662
0,383924650635393
0,390074217853058
0,381224439135277
0,377721076422049
0,374829480548235
0,376011088408554
0,363159723203225
0,374061728425262
0,363936944505973
0,361433141978134
0,359285764648202
0,360654773945215
0,353961269061622
0,362181266701208
0,353884077045913
0,35228297282047
0,346547207103409
0,349164071002243
0,346005139764917
0,343277778036207
0,338758731766438
0,339093720128021
0,332007334838437
0,331682593221921
0,327115302230451
0,330952706008799
0,324104512720369
0,321537505151355
0,315724223069191
0,317688053788067
0,315304727265367
0,320589645262929
0,312466551570114
0,307626076292363
0,298080176066264
0,307044998556241
0,30143139464261
0,305612740272981
0,299470958152902
0,303559178718068
0,297418522692303
0,293755878671704
0,292609548788567
0,301354730656977
0,289037244342823
0,289839182546062
0,285284164611813
0,282321505458984
0,281730910306345
0,285583874506826
0,2800859442666
0,281336927896565
0,272408238104527
0,280601433054711
0,266541876194276
0,272239373810427
0,265631541323629
0,267001647732806
0,265091549614938
0,264687570415883
0,259277889166225
0,25854476446794
0,25368399050887
0,254318129808401
0,249503728000584
0,259000458194989
0,249535011621103
0,246231862337376
0,24375379560803
0,248278609034987
0,242834527623117
0,239436419343557
0,238831910917263
0,244165275448307
0,233597162584667
0,239026726029808
0,23708339243312
0,239303730239923
0,232812941907595
0,23498317359678
0,228148141176301
0,230464003881937
0,225525153045073
0,226932115914259
0,225061631807722
0,232517470820081
0,225966864302313
0,225045314938585
0,222571144882077
0,224103719208208
0,216484195384457
0,213915249805752
0,212672082862721
0,212889218573654
0,210050571187079
0,215666407342475
0,206194888147393
0,212312667929963
0,204466641154507
0,208933998439617
0,205399633681067
0,205367125750523
0,197625015568288
0,206619583519298
0,201898497669991
0,197036965642366
0,191696373761292
0,198181415449735
0,198919698713822
0,198505664908224
0,191945881626601
0,195165301984038
0,186136363753569
0,187092464423348
0,188092234482153
0,185860395144934
0,185674020602071
0,183168242183228
0,181745957044617
0,180025818717349
0,180106577655926
0,186932819362794
0,177577339561792
0,179008065230257
0,177645294093543
0,181019379151186
0,179373896572635
0,176819018493299
0,170820122056397
0,173527915003612
0,175430013125874
0,172849273657119
0,173743026053497
0,175843005567627
0,165824099678564
0,170259081624842
0,170397772397612
0,165605694882211
0,162704980245963
0,167395561733405
0,160065203661929
0,164281115768967
0,16156936409211
0,160824205583791
0,157958856967515
0,158895003926059
0,155596087002676
0,159153596830614
0,15461910438739
0,161020341635216
0,158807456091911
0,157068921633368
0,156242659661944
0,153051179124996
0,150316950951352
0,157345994810938
0,153237679896351
0,149611686772462
0,150761082039811
0,14863556998075
0,148811029473468
0,147587982938744
0,147148499696515
0,144483393734775
0,140987163325703
0,145231805494068
0,139747237174539
0,14151019081815
0,137772712301577
0,13853114183753
0,135953998750721
0,135797304636799
0,137538771407137
0,142109962835648
0,136092754755342
0,135586169969522
0,137303408555522
0,137901557457728
0,135848780595533
0,132497386255317
0,13124018423397
0,1295163686247
0,133641455977951
0,131059128276615
0,126214864759533
0,132232298817384
0,130667365186244
0,131381766551816
0,126872275300161
0,131974120348158
0,129702600814415
0,129908540083594
0,128055948033611
0,125989760866571
0,120021310288634
0,12328774897974
0,120893889525329
0,126595234541491
0,123695662194187
0,120463850081106
0,1202597127448
0,120702109445863
0,119152974727848
0,122415747163799
0,113387411775662
0,119826102264386
0,121687573795194
0,118759919818477
0,11271770555582
0,110524665917649
0,112320903215609
0,117508563393487
0,11501248089255
0,116095965407045
0,113429872742821
0,114563175068626
0,118588834887983
0,115478665360376
0,107305745568419
0,112429168295993
0,110062780291301
0,112999569696901
0,113431881425883
0,110895989799095
0,108831836379783
0,110638251020337
0,103862503420406
0,105008346985014
0,108466922729186
0,107822442594793
0,105723093838274
0,10693993409225
0,107560359314726
0,106782615224014
0,103962229067734
0,104483057224249
0,103573321443229
0,105924622304417
0,102499305690239
0,102930201356996
0,101508886196339
0,104629937142613
0,102023457623824
0,10026318920466
0,102473330120349
0,0985288989688182
0,0979739314030447
0,0993650974343582
0,0995241983944014
0,0999147518521841
0,0989580664027023
0,100710729255295
0,0974533100534024
0,0956007968055675
0,0960093747250535
0,0985965679888455
0,0988321763346957
0,099880998874875
0,0970417490948234
0,0949961182557905
0,0957978538447072
0,0967616177999439
0,0943570806545764
0,0964925575505929
0,0950674897170889
0,094586327362267
0,0950053527778936
0,0942891719985866
0,0942132868022928
0,0915361127643028
0,0921104035571166
0,0931007055539274
0,0927585800590647
0,0957200206062921
0,0928980162570832
0,0941679210801011
0,0946224757720535
0,0917145668824904
0,0921698767683205
0,0927837229305552
0,0903316572638997
0,0894096799616687
0,0901249491896036
0,0890958871104969
0,0883742338701868
0,0876842246347408
0,0884365762439602
0,0886982264895014
0,0884394256531477
0,0889548980667949
0,0894923730389766
0,0868094767286246
0,0861672417634794
0,0890460476240508
0,0868077268695765
0,085197189918041
0,0883599886620673
0,0848560570495768
0,0852881150877396
0,0843219018172613
0,0857019121536051
0,0841972923399041
0,0811203681127321
0,0864472132872385
0,0865105663722504
0,0845292240235219
0,0821154746924087
0,0831974404249106
0,0832241509048502
0,0840523033787329
0,0853680223122927
0,0850161512567785
0,08128856927078
0,0832060750851744
0,0843720746250012
0,0826562948466109
0,0838070428811382
0,0818767603526138
0,0795171097717365
0,0832686611662825
0,0827804305563037
0,0820702109581482
0,0815468685375551
0,0803186540166268
0,0829234717107706
0,0810364229580606
0,07787600872155
0,0784513011345701
0,0823499023960034
0,0845583400537067
0,0797989097659264
0,0793751430102073
0,0810784652775542
0,0813860800143139
0,0806054315749231
0,0835494126087497
0,0819156929106779
0,0797689641087445
0,0841396901322135
0,0797813467285268
0,0768208230976234
0,0790363660955745
0,0788418167847023
0,075189175040565
0,0771295469378472
0,0785413413323968
0,077326160275561
0,0784404606408439
0,0767039375010327
0,0746266404119757
0,0776015375546803
0,0758717369803732
0,0753206345432927
0,0766127008903801
0,0750305680227965
0,0740766223398806
0,0752186932838089
0,0734408162276571
0,0754366632691792
0,0764688679217139
0,077067574949321
0,0742886634808302
0,0776973635548729
0,0785509668105632
0,0759315693523294
0,0754723327326823
0,0758922342389194
0,0759795647837411
0,0746229479484201
0,0723183205551287
0,075733941618538
0,0753104918605374
0,0756771636123004
0,0749882026657604
0,0747541316780292
0,0745956515013552
0,0744387002197912
0,0733312498639902
0,0725741776343742
0,0760346953011547
0,0747538877665209
0,0726867772561286
0,0739754843794916
0,0724698094260978
0,0746692873941877
0,0705991656333671
0,0715986399435733
0,0719663507636601
0,0721200056505085
0,0729427930945453
0,073612485504087
0,0713033661340361
0,072531389084426
0,0733744157785186
0,0752082624277354
0,0732389887890998
0,0702849407344421
0,0729397190438407
0,074537958184531
0,0696046761099859
0,0712250187196026
0,0706952196129947
0,070738933343624
0,0723255577284075
0,0735759630517591
0,0721514259327892
0,0740742732276205
0,069380589329347
0,0735342777425179
0,0703954323461006
0,0697604257290998
0,0692522215487576
0,070309775079341
0,0731300996530244
0,0695931063810748
0,0701110717337325
0,0720101979428792
0,0698849256281993
0,0692678581542805
0,0683492530128493
0,0704832133904776
0,0699475665242173
0,0727613439389755
0,0690419219952281
0,0700162865951793
0,0708043878238444
0,0690890846037442
0,0689502689468262
0,0712769266477711
0,0711766732772075
0,0707276392270961
0,0704758792899079
0,0711316698708581
0,0678087713452145
0,0699615568401377
0,0703358405160066
0,0704288018959843
0,0682578423675826
0,0704490883983391
0,0684276830486643
0,0723706297086708
0,0703859369637847
0,0681472925395392
0,0667792240826108
0,0689944023717962
0,0704184447903273
0,0711070754870426
0,069504046265556
0,0717403357036636
0,0701658687198775
0,0704947147203817
0,0680950701746872
0,0709196694755286
0,0680419843164223
0,071970668363205
0,0696034757778971
0,0698862822836216
0,070553213402565
0,0719742613025106
0,0688400101122178
0,0709460576109733
0,0715415996094031
0,0681763529196458
0,067348509186865
0,0705468050089532
0,0680718686369764
0,0704717160458788
0,0690827160043738
0,0694484871547048
0,0694224018096106
0,0670789760655349
0,0688065711152768
0,0708394615656943
0,0691350008426828
0,0671519569084803
0,0681531013793125
0,0664004156391955
0,0660056229326648
0,0679301344135634
0,06700947149221
0,068839277014179
0,069712989919885
0,070292999613669
0,0652054804263766
0,0673263168509544
0,0651315260926573
0,0682870226746689
0,0689449156427199
0,0699017155212895
0,0680121525954616
0,068599274327451
0,0692336212296196
0,0698545230763262
0,0678306837974144
0,0669985393262444
0,070096378303086
0,0737330779881518
0,0690903035940626
0,0717015404099005
0,0683251418064809
0,0707889591764268
0,0679409357426055
0,0678086611886062
0,0679339861842909
0,0724636397940836
0,0655836430893099
0,0717859164470004
0,068530188896646
0,0699553173355622
0,0710558225925682
0,0692814749473592
0,0686441511083246
0,0734752858753887
0,0712497801835702
0,0730984910140596
0,0667943875578194
0,069209785441784
0,070972217045639
0,0745073693808939
0,0691734063231821
0,0702518792415659
0,0702939213690872
0,069455558084486
0,0697593548348286
0,0689087120350244
0,0681768710958984
0,0706394958694188
0,0685870724976597
0,0677335463838983
0,0679673767344124
0,0701558534523805
0,0670509580905943
0,0694840743918941
0,0690534523107307
0,0682625286148849
0,0701114288036107
0,0741961473764601
0,0700835236379617
0,0703671630326528
0,0706998254818154
0,0715990854405517
0,0693903919261258
0,0713653239709804
0,0721979695780176
0,0701710170628144
0,070979851374561
0,0725010951116614
0,0715951799604293
0,0721229280677173
0,0705444635625951
0,0714909387920104
0,0683863491690146
0,0715966880428997
0,0704586492857978
0,0716317522401432
0,0704543455746247
0,0713811953805772
0,0693066190257158
0,0702931620876616
0,0699380724963783
0,0716848605805012
0,0722735045632383
0,0711222547523245
0,0725302226081397
0,0737581423616618
0,0741316887945933
0,0715791315254874
0,0733198696991004
0,0728777275708701
0,0740748936700745
0,0743913912018823
0,0717744835475535
0,0739580052439298
0,0731713806988814
0,0715018471176141
0,0721026787580906
0,0726510309527028
0,0700351526272104
0,0734806796036028
0,068405856199697
0,0696200575557397
0,0722574786810415
0,0738678700667672
0,0721964747708287
0,074017964086565
0,0712032035966407
0,0739251819642646
0,0712878264697698
0,0759132908624078
0,0744998410598575
0,0733756159259819
0,070985408090449
0,0749283069418644
0,074669550792467
0,0711354860336774
0,0713398026853883
0,0743817466277455
0,0719529419462932
0,0722149068027916
0,0726829897803805
0,0759439421548384
0,071632062626983
0,0740592548071169
0,0738286812660517
0,0728771480056522
0,0706000379457172
0,0760848366179422
0,0741394597807947
0,0726774043162776
0,0730363697590836
0,075097484348581
0,0742045637213844
0,0758703109311067
0,0749572220469539
0,0770089037664463
0,0723673956396978
0,0739713973295741
0,073957565948644
0,0767505591608197
0,0716824077281326
0,0764875338091818
0,0761346911556623
0,0761972471325109
0,0767680948819382
0,0746369677542812
0,0747962098457076
0,075869987360491
0,0771000473435228
0,0770361546912647
0,0753627635908567
0,0770514142836695
0,0765238185768258
0,0764383912435992
0,0756245653826222
0,0768440496252471
0,0775913094247152
0,0749046675196247
0,0748339140799026
0,0788179333951921
0,0760386507624745
0,0786808977470279
0,0762162740332699
0,0778911973941663
0,0756869844202607
0,0755783476388993
0,0757794319745569
0,0799760364345192
0,0765520137393296
0,0789568349066931
0,0748079148349235
0,0776185220105183
0,0797515019967018
0,0802719861853704
0,0769006546578174
0,0749991289643925
0,0786348663272193
0,0792018077770151
0,0770344923898961
0,0791886599508883
0,0786201181732245
0,0773367396036435
0,0787074499228971
0,0779075421230899
0,0788273073429649
0,0808141628451969
0,0796437156636455
0,0799059465357924
0,0772874971599455
0,0800808527596303
0,0782827339035575
0,0812304506054257
0,0785874754282855
0,0788161119630227
0,0786308090769131
0,0797143650861719
0,0793496958969246
0,080953574115423
0,0797967928001862
0,0788220944628142
0,0807248860008234
0,0809290838601681
0,0816692606774105
0,0805821251553688
0,0785288893759013
0,0822965986453877
0,0821078556727323
0,0828327743955082
0,0856497755080151
0,0818061593910995
0,0846976123481084
0,0862327260596768
0,085034757404435
0,0889151663914413
0,091232703210811
0,0920356896344733
0,0926008188019072
0,0910106021166157
0,0946370929643395
0,100777746504252
0,103585817797811
0,103600986416479
0,101790581612358
0,102406127958445
0,0938272366357695
0,0963138578960386
0,100423696995368
0,106101389179099
0,0993949435822995
0,0998187188227507
0,108671225014849
0,110897295655348
0,102961947944004
0,10733126177887
0,103358120111571
0,114184859275128
0,107094415530725
0,107530645225961
0,109929756663276
0,10283243473144
0,109816685224519
0,101855082722728
0,100350302136539
0,102796802795088
0,0956209530610248
0,0884944059275285
0,0993763972503829
0,0925080311501895
0,10164490744137
0,0919891514570728
0,103476643338787
0,0908663126426689
0,111581816641287
0,0895839325058787
0,110871581125687
0,0950785061641882
0,115596084556135
0,0898831171556746
0,124161935960062
0,0894471420076744
0,120623673566296
0,0807022629710639
0,120302778846244
0,0811760194167256
0,132306059917593
0,0842403991409239
0,139411175683259
0,0706900476969237
0,130461089742632
0,0736102143783382
0,145463611119651
0,068472455357351
0,132173718157312
0,0723518668988919
0,143779736112084
0,0789479978921279
0,124581003632891
0,0875619390675112
0,1168072761315
0,0973245307464182
0,0955369108386318
0,108604834982242
0,0877099541737313
0,118463785807211
0,0811914216084825
0,123323798022275
0,0786327287826778
0,118065376676176
0,0868500344022351
0,106467019547616
0,0911508099532096
0,0980848051069536
0,096189187280075
0,0950812149064575
0,0985765821990674
0,0976084028994077
0,0953494284604104
0,0985486849833019
0,0948277569409981
0,101799489429376
0,0891842869737815
0,102544010931312
0,0929386080856906
0,0995258093031073
0,092739673764584
0,0985769959167292
0,0954991185359471
0,0995124603115721
0,0946443136511807
0,0986675587571391
0,0918696243518878
0,100386529055411
0,0924612146561899
0,0994981280809542
0,0950618288903329
0,0974465033445349
0,0936668524474494
0,100240617564413
0,0973404202900714
0,100330459464772
0,095678439915495
0,0994304822777342
0,0968937493398626
0,100725056601987
0,0976773482631547
0,101206172574867
0,0984015029863845
0,104244494743549
0,0989905646674308
0,100684938833235
0,100188531640668
0,10257762349904
0,0995927570937461
0,102157269730076
0,0993437323279101
0,104875252262852
0,0996823900052288
0,105034638465859
0,101222666508159
0,105896794522068
0,0996709304243738
0,105861306149745
0,100928314477747
0,105775726083586
0,0994955920960262
0,103883183541718
0,0998041913307894
0,105281115541228
0,101657328800806
0,106327334446269
0,100233385698411
0,106982016555266
0,100772933685948
0,106808771117171
0,0996323843229709
0,106951317936557
0,102537689052436
0,104998934828717
0,101343314645852
0,10930211612395
0,102346694952019
0,109319219187225
0,104300364148876
0,110319883451086
0,105888164272808
0,11120622047365
0,105856001720454
0,111581834867569
0,104684641434766
0,110600566355662
0,107221166050622
0,112669492096106
0,106873398348337
0,109845690006214
0,106952522152919
0,10969535122134
0,107437041901821
0,110125983945142
0,105044142012279
0,112183962736901
0,11038511563194
0,113440010459538
0,109111188071007
0,112931418948631
0,109802306882747
0,11200872834847
0,110771562491061
0,114762201906239
0,109551844271335
0,114574364270942
0,111408217298073
0,116790061974442
0,111792932281814
0,115709849183005
0,111510482446029
0,115411295711483
0,112461782042797
0,118190122782015
0,112449399019
0,116711609170007
0,113864382371197
0,117705542929717
0,11505775866885
0,117686726088978
0,114334284246671
0,116895465167875
0,115910852872125
0,118858597936264
0,116312931602316
0,118759226912006
0,114660322436543
0,11890371491575
0,116380070461565
0,11963379107927
0,115521431474773
0,118705274222085
0,116310119487967
0,1196003115309
0,116791380702914
0,120056536156738
0,118210701763945
0,119449492469434
0,118228455078313
0,12286678754364
0,116318718149399
0,122302880803008
0,117905090022039
0,122037920443749
0,11717787175519
0,123457657566952
0,11953951593073
0,120870157574764
0,11878916498781
0,123350610756451
0,120094497493042
0,123783488375327
0,118250555304682
0,122334075107793
0,121243771669516
0,123749428673326
0,121395850224215
0,124173764939429
0,120302516885391
0,125010255641875
0,1240561079417
0,127070727613109
0,123633587736153
0,124187305944943
0,122655309941734
0,127023944358973
0,122572071786348
0,127928198143394
0,123351976421385
0,127059150315623
0,12561672648355
0,127019370227158
0,122253426218376
0,127532583180829
0,124665992639825
0,127363551481815
0,125543240711256
0,127781408921532
0,12322873789093
0,127376831774562
0,123223262045977
0,127923638598987
0,12511300413932
0,130421947967337
0,127204542795322
0,129080779271355
0,126168246638202
0,127994505113442
0,125536293454111
0,126858871319188
0,126660597221741
0,127785181414588
0,124673014251277
0,128604798037298
0,126461711703227
0,128215431564732
0,125225890916589
0,127708615924834
0,125198494509757
0,129191987034954
0,126780499757698
0,128516141295567
0,123810007427093
0,127342199068296
0,125300829497813
0,127587916808506
0,125894318907014
0,127832752560415
0,12501940293776
0,129129554416156
0,125646340366993
0,127745954184404
0,128320900238556
0,12783945402172
0,125426024149263
0,127533254378859
0,125255003433498
0,130880107673991
0,125826224746626
0,127796830550954
0,124295207792442
0,131389593110959
0,127892677269642
0,129535013983262
0,126768939703473
0,129016830884546
0,126393600241708
0,128324223660741
0,125091182838756
0,130562131627987
0,124542323579886
0,129633253650141
0,126130766687001
0,127053076818141
0,125432923643836
0,130699684356143
0,124148447586715
0,126064282445137
0,125679467956179
0,128763539058834
0,124745692409891
0,128860285524254
0,124847730304635
0,127472313956148
0,122929959639581
0,127449322322612
0,123999526743182
0,128439035845034
0,121925069125372
0,125250905093725
0,123206570993651
0,126950166697353
0,122538273153127
0,127597142640533
0,122929176609001
0,124933093608553
0,122720752835838
0,121636522474984
0,122176689689328
0,126451454897643
0,123655220617257
0,126167951708712
0,12067766896327
0,124246082796554
0,11945921495183
0,125696206053633
0,123379517303268
0,123587576611698
0,123981048916633
0,124330204032638
0,121090430659324
0,121526503554473
0,119326336295942
0,123691910895341
0,119513741915058
0,124112058186314
0,120019927466995
0,119478907864726
0,118683051238069
0,123099867689764
0,119115106217798
0,121404516815541
0,118357418958742
0,119122270892855
0,116934573573144
0,119189637404015
0,117446627075579
0,121659329791488
0,115926648758723
0,120145833841911
0,117328034835392
0,120173742070556
0,113927008102675
0,117493793883292
0,114439168717686
0,117646719857759
0,117033124436557
0,119513760751486
0,113170754083874
0,116700714956889
0,113997286616089
0,115909864044604
0,111564087049777
0,113869147918894
0,111749913328398
0,113220090391993
0,113797472713035
0,118258759079115
0,113278207812175
0,114799817000817
0,106590601431823
0,114002940120976
0,111453814019126
0,11490576352929
0,109863816092321
0,115351022902057
0,109903014527176
0,112778346339125
0,108942304907772
0,110972031305901
0,107600853479867
0,111514188573734
0,10805785329086
0,108368925576411
0,108148522741196
0,111364432052277
0,107180656618939
0,109374996246492
0,104784476563043
0,106879253623391
0,107035062894016
0,10710220701023
0,10681863404425
0,108969248131267
0,107562205578723
0,105892423968917
0,103977336319717
0,105281912720352
0,102934263482153
0,107065980627212
0,103391809651483
0,10444828797688
0,102928045071262
0,0988982086487258
0,110301886329119
0,104416523765032
0,104683320539792
0,103117787982509
0,103793950328129
0,100713081540494
0,101525568386677
0,101802592334241
0,102472582070492
0,10310431238604
0,0993796596494634
0,102326225459786
0,0995605966102582
0,100366952288885
0,0985099863974949
0,10146410099552
0,0980665019368964
0,0996433681042446
0,0972529194934984
0,099634650658821
0,0992700207014568
0,0996600331097911
0,095544725757033
0,0973967598162772
0,0985402625424299
0,0968558285380364
0,100090027587695
0,100365919737253
0,0944421682538607
0,0976987882977254
0,0934578268799901
0,0965947400990409
0,0937662713289636
0,0967381868736508
0,0938316577015709
0,0959450507732523
0,0920611472789157
0,0952522033024876
0,092019150449587
0,0943567306921736
0,0919660987573961
0,0942728239235401
0,0924861205770049
0,093592394934049
0,0894327890853319
0,0937352465238149
0,0900947988596787
0,0943045964917651
0,0926155076883891
0,0946254850896753
0,0902587006248375
0,0944546280179416
0,0819145135517855
0,107328361439957
0,0873141747520743
0,0940293411827067
0,088466929057938
0,0897525005428363
0,0884397901989013
0,0888992893010607
0,0888845178629989
0,0908368305030939
0,0871996373891225
0,0910926041421458
0,0881753729129433
0,0910348805676569
0,0868864667627151
0,0906662002056709
0,0883883586955757
0,0913581872409398
0,0862562950747751
0,0877189062716771
0,0880704985958461
0,0868112225128025
0,0893853333505228
0,093892366492828
0,0830197736867103
0,090545731261422
0,0785356391636684
0,0937468022589915
0,0948328730935636
0,0794033601653892
0,0903141979423503
0,0829065219372128
0,0886792199590564
0,0819216469760527
0,0879235923169552
0,0808063418615986
0,0904021977267579
0,0836640023420307
0,0893395728729253
0,0865478013446841
0,085074535887416
0,08207206016172
0,0843082017773052
0,0869407435237799
0,0844650378042956
0,0849125905807194
0,0859463082120984
0,0829885195475488
0,0826053440856747
0,0837383034502749
0,0840207330761067
0,0811320441694357
0,089976214549531
0,0832758605448463
0,0862945214374856
0,0819527396601366
0,0838310074611835
0,0791368710480221
0,0965306345542329
0,0810218391398732
0,0824140505174238
0,0850256724408285
0,0824901254053058
0,0846363184822818
0,081288663234139
0,0839285314138303
0,0823583121820956
0,0860111343372585
0,0815788009790558
0,0830527902464258
0,0811034756131975
0,0853768367812719
0,0807866197338304
0,0839153765598047
0,0788378809632046
0,0848032038255174
0,0806625370937308
0,0838417290340155
0,0803149233025679
0,0849831001135782
0,0985009302688513
0,0832997577607027
0,0901947548114977
0,0837921210064056
0,0851660635543988
0,0777199766864097
0,0835036305882724
0,0783464785042138
0,0844264296795067
0,0808552805580711
0,0834869842161053
0,0800936430730411
0,0842485108692251
0,0805373250906242
0,0846991162914976
0,0808346497242955
0,0832589563117804
0,0808879187864052
0,0836066121642294
0,0771372697832227
0,0810836941868453
0,0821353752983605
0,0821483148137482
0,0874149400822234
0,0810961672992734
0,0853622064596262
0,0693049814007501
0,11214168015588
0,0733833148364718
0,0918277602388162
0,0803258929080182
0,0879874636763428
0,0794619691273551
0,0837249522755499
0,0849991032913688
0,0862779073865092
0,08044606752027
0,0850791044629292
0,0815861997193251
0,0866030758034791
0,0840200118350495
0,082347078291726
0,0958523418880987
0,0955870058378324
0,0808109936106824
0,0912437509211768
0,0709374990270612
0,106417409427654
0,0870467376025339
0,0822697158891473
0,0904852060664014
0,0855186468687683
0,0873994283906403
0,0826330109305352
0,0877508937525405
0,087150877180715
0,0896803165636266
0,0810416528771238
0,0885755928909698
0,0868263914211567
0,0867150986140583
0,0882912618421222
0,0828043210713427
0,0959325105124957
0,0897358460965955
0,0858417810315041
0,0922468632357056
0,0859292965476373
0,0891555916223444
0,0871907761568717
0,092453110296818
0,0858910638709841
0,097305879388315
0,0916985959902399
0,0969117015298664
0,0993702204837
0,0909738889498923
0,0880993660659422
0,0987367034370079
0,0875609366476144
0,09964312320435
0,071240032420926
0,124828912016654
0,0943602333174786
0,107313188666263
0,0954036122749331
0,0936496913447133
0,0967799944676665
0,0933525201379417
0,0948517702899124
0,0909595839750371
0,112218253025168
0,0826631274459843
0,107940430234805
0,0835521815756848
0,113708637494644
0,0950583197974943
0,106432775670643
0,0951325158243092
0,104112523433058
0,0952721236056928
0,114025740388627
0,0889037788927452
0,117821572220438
0,113181251352866
0,107597938335209
0,116815276310279
0,100167084207654
0,111668924254582
0,121217243081713
0,1010189868965
0,118703332072483
0,101872662015905
0,115986322829895
0,0988463510043217
0,129968730720415
0,123619681037447
0,107700419979821
0,118749887687584
0,117841015075361
0,121536921243217
0,134553527013697
0,111936637163381
0,125111049992487
0,117974637749844
0,1287496770269
0,10581059193704
0,163528287043671
0,106185771723427
0,155252132420938
0,123190560105216
0,143628401249637
0,130337066307605
0,138462601791218
0,127603757450715
0,150054140538728
0,13384300554263
0,138988089695113
0,128054531629198
0,166395411624652
0,142198481606717
0,143045826323532
0,150792018950616
0,137953465941706
0,14845487009751
0,185141051614858
0,16229406266099
0,161103498168498
0,154923917337181
0,168023224175212
0,170751484689674
0,160886242490098
0,172096787269073
0,165872416225247
0,169700884049459
0,175612867343798
0,174323673025873
0,183945212433988
0,174189236890812
0,190958267072202
0,173419038943549
0,203165492647435
0,197997419275953
0,219103516560236
0,201608971083387
0,193866075092501
0,226234240808252
0,203933288053653
0,218302372381226
0,209048467968452
0,218563358297301
0,225565137708348
0,22580876496332
0,231264478060173
0,227328134979168
0,258489177763393
0,238961075227565
0,266014923553748
0,253398439953389
0,25154797756665
0,252310139997223
0,280173661022535
0,32087593695145
0,255142518124629
0,298097938875144
0,248187581990609
0,341288894308099
0,311426565761853
0,299439512709517
0,30611754167872
0,316898346719216
0,313044521651703
0,332440299077615
0,331978629364494
0,346927367928632
0,344209870168527
0,349970492549125
0,327662624125566
0,416765513629035
0,390828574453689
0,388577958410249
0,373118235060321
0,386848404285854
0,398102380885755
0,411812403529871
0,393144672715962
0,418045558451293
0,399596483534638
0,457244991182282
0,433421095455761
0,432923734801115
0,447680606338434
0,442863007731104
0,46949061969998
0,439868965980729
0,517603912411981
0,460463669564483
0,49772851813029
0,48333283406896
0,507382241271627
0,504419989928656
0,51308149849928
0,533275867413578
0,522519663227454
0,537321719105524
0,536282617539631
0,54846780848194
0,55629259233054
0,561095708088058
0,55840458876198
0,563601211123051
0,620736557777557
0,597729008217873
0,638168607267206
0,581427054456448
0,599569608333507
0,597525809300959
0,624002623607781
0,625988809430138
0,631185019063637
0,660756362961883
0,616448243770724
0,626668840852258
0,635910160165202
0,639608487309747
0,646658712996529
0,643849290848013
0,647813651716203
0,647532761567561
0,679607568913522
0,598555974721178
0,738381332221764
0,662543313092026
0,649454858427834
0,642841952820854
0,642796625854157
0,638373670721532
0,641121389931577
0,62547704224136
0,634897475138071
0,634060537432935
0,618922962755405
0,618023418478693
0,620547618481766
0,645867465597067
0,60049182268544
0,58934152965197
0,592964483409092
0,579415498723406
0,579330475234166
0,554007784559902
0,609681433361227
0,562989779814428
0,533245223658797
0,554936396442467
0,531334786073326
0,531987631870414
0,517767436537644
0,51112942283353
0,50097808607851
0,499414444203223
0,485432452880172
0,486680481589508
0,468960313458649
0,468975020009196
0,462040785105277
0,462764366511634
0,447765267371547
0,44340770874344
0,43158239867368
0,43076955397741
0,428806216692024
0,418040837306219
0,410768638169264
0,40839121328318
0,39916028184837
0,398743621653851
0,391073934149034
0,38665235017372
0,376072969995358
0,379414037792273
0,374741456788459
0,367866606054148
0,363403079513274
0,362079688296924
0,352855802957367
0,352994070839854
0,348295406910255
0,346476512794292
0,334996409447792
0,333078657304246
0,334770827223232
0,323332214223569
0,334955143841222
0,32411816268954
0,35689994504673
0,31788006405991
0,319215657563517
0,317663350521987
0,304483307117528
0,307656790171813
0,299304080375126
0,33357461255418
0,297436248060429
0,297899528797352
0,293954972625973
0,302797533121267
0,299633750632275
0,301892444911136
0,27852657214705
0,296120437095099
0,248509211624264
0,338349000774095
0,29174694237619
0,335715205093382
0,290278746733278
0,274238325647455
0,273111168342179
0,288558755796953
0,290496459119245
0,257579535520551
0,274309484625275
0,254860224147538
0,286497205754579
0,265513087559508
0,262261667527824
0,259345050243922
0,259138300143701
0,272314737975578
0,263882119757532
0,252445016991328
0,267431614192716
0,270153312090305
0,249405573089897
0,306828848937528
0,263172646743682
0,258635805832294
0,247335569457028
0,24926439653545
0,253788360378565
0,248546917905857
0,268704439486275
0,241636973239919
0,247845906051839
0,23659119574342
0,243754465516417
0,25342621562061
0,236731640696118
0,253411917985962
0,240120511245122
0,259794840457897
0,214746796946855
0,264559604935575
0,245666246706468
0,274255506036253
0,236906383895424
0,235599765754979
0,236587095619934
0,253627036953371
0,248223156213867
0,231977466382499
0,233259098623357
0,234290411724205
0,229696814797334
0,239074408116984
0,225779123435916
0,240373721540264
0,236072452395766
0,236644987110906
0,25938276658516
0,251553727014912
0,230819477777661
0,224027850608316
0,218441523682425
0,234137746667017
0,213218083514077
0,225238798891649
0,218844222793892
0,231045614767284
0,222184964262583
0,224308442482114
0,231198904201203
0,219789139036226
0,218605249303769
0,216424840616734
0,214804950209201
0,231094182114715
0,233777323952715
0,223627184043741
0,216916724075567
0,218759795430302
0,226411409679263
0,211846588893634
0,221964895473684
0,209066173565921
0,219932120669617
0,214155095813966
0,222037082094939
0,215993035186497
0,212827585613912
0,207875593550755
0,225154243449887
0,213931003896526
0,229757810004295
0,198267464892533
0,240828222204466
0,212844054250906
0,229463886375112
0,215556659931903
0,213899097502875
0,214476148573999
0,211517773171362
0,211569232726383
0,222686791549513
0,215071602315498
0,231610133141312
0,203068039190547
0,222878879172035
0,204975751009972
0,222857241620346
0,205447740833346
0,235626261473473
0,212725070916862
0,241811834934562
0,227633139696613
0,21575801877409
0,221277041871195
0,212110735345989
0,215547888322406
0,210983911021609
0,207782536438842
0,220628926567855
0,21971930743671
0,220285781445392
0,213390577180317
0,213212420365861
0,207725160676509
0,212474028381155
0,208362414566154
0,207118534746687
0,214239616917193
0,216677876143831
0,203893790512509
0,224752888585809
0,214452764491026
0,229739923692157
0,208297583702036
0,213617062564378
0,219554667660609
0,210976100193547
0,212737625519292
0,216856764257187
0,217199398552424
0,214750051481381
0,207630481584645
0,214862064097699
0,202936234658484
0,22383635002568
0,2082347258701
0,223153289373294
0,202477658487719
0,211324296163524
0,215567357580276
0,221701239378332
0,224961381662912
0,208946776064649
0,224427103062037
0,207807380829016
0,216562193797843
0,205264290492788
0,216377109350876
0,207175734325882
0,215073326287007
0,212694452842414
0,2132727767422
0,211638195535289
0,204592650086808
0,214027206765871
0,211870539989396
0,220383223715546
0,209273122986238
0,210936063082714
0,208379554448791
0,210024667322276
0,212811836890356
0,221751015185076
0,219478649314817
0,204798462790464
0,213546953697966
0,223681501935839
0,219952442686138
0,208601123393476
0,204194867528056
0,207512677854225
0,208197479926132
0,201230235859551
0,215268657711268
0,213662795055338
0,220811890275928
0,205007741922623
0,215405041450424
0,204126561791656
0,212801065257284
0,208051283846162
0,215491337844273
0,207393469269474
0,215175240040486
0,208995051446624
0,212285594399621
0,209394004290993
0,209213306807835
0,218290484069231
0,214504749467694
0,211893618129548
0,211919609924053
0,206837828827409
0,21266802110053
0,209960420923958
0,214214403332341
0,203108249590638
0,21575287412702
0,199245060849897
0,219923311525992
0,209688193099051
0,216577582422831
0,213345803939157
0,209045595435825
0,209296195084813
0,204308931573686
0,206901285496777
0,205259417350577
0,208448632109198
0,208649610562414
0,206699292983053
0,204415531539677
0,204248675986561
0,203327045535957
0,2076114228567
0,207601446791376
0,205382680090367
0,206188553066244
0,204260736408838
0,20459290013796
0,19901664214967
0,205691566412161
0,20177220914682
0,20457895383613
0,209045029934387
0,212942596045792
0,209924531528144
0,205370751463934
0,214372941862735
0,202971930065402
0,208548695315923
0,197531643188777
0,205237134551564
0,202653740856967
0,20215025103604
0,201239641344041
0,20201882547711
0,202175869942784
0,205500878121097
0,199109428475706
0,203042864899005
0,203115191135103
0,204011500797208
0,204533583665185
0,20143739247037
0,202022371400115
0,202473280350456
0,206810604999158
0,199891405375268
0,209517030008257
0,198978441286376
0,204391770418989
0,202833634145261
0,2029740586913
0,204123070859242
0,203151381860854
0,20103780480088
0,203235094811982
0,202037187748966
0,201940852069286
0,203985012183564
0,204415913942842
0,203015695251542
0,20164010907693
0,201815670785592
0,200389089768021
0,200981385264727
0,202418502471604
0,200331599762116
0,202791460536544
0,203445796822883
0,200932818266778
0,197306424322532
0,19992482280498
0,198144419827111
0,20152651083912
0,200598793978055
0,197876747330351
0,202318751874936
0,200642919640719
0,200012946282584
0,198796557450237
0,196947750257384
0,200620917352807
0,197407066413544
0,200017760148765
0,197845486182527
0,200479176727212
0,198263024200117
0,199966308170216
0,19997657412679
0,199291220723191
0,198807797337695
0,199910309875838
0,199124872476407
0,198247350493128
0,198616939914162
0,199189245135712
0,197639633125476
0,201133662114815
0,197983768751778
0,200228906644783
0,198594953886827
0,204080476265819
0,202839111124043
0,200283890978771
0,197585446579117
0,198448106851699
0,201900826216836
0,199433682274649
0,19973816186198
0,197884452227244
0,19987727925192
0,200329091018973
0,200860075026039
0,200565136772436
0,200496629658967
0,199968884443093
0,200049384025752
0,200683353028573
0,201265479638568
0,200212911337445
0,198417611645719
0,200110813995225
0,198225742030222
0,199230493196938
0,199088996705338
0,199828741505382
0,199454471520142
0,198462359115564
0,197683443839091
0,197524671383577
0,19836837054453
0,198756012935216
0,197316114601667
0,19822342306611
0,198907036685164
0,196622111157209
0,199953628186493
0,197435986172891
0,197467408047417
0,200260704285496
0,198526714758308
0,196751387238366
0,197216870679527
0,199438427873441
0,196233334662413
0,197473964073843
0,198012744338976
0,196378249170746
0,196431014181628
0,198589722656454
0,195817576368215
0,196920001168158
0,195629820015103
0,198562687761474
0,196712116607452
0,19580327134841
0,198080740917489
0,196252657300741
0,195374648086769
0,197374763049323
0,194808346043713
0,196093570178852
0,193342236922653
0,194673760579725
0,193470917788168
0,194752336787145
0,194175410907718
0,193548224573575
0,193941152600088
0,194140088211433
0,194927639250246
0,195233251937338
0,193884205814408
0,194139046216756
0,191960585611017
0,192831295803869
0,193845652232455
0,196733488550681
0,19207344782844
0,194421468517407
0,191727133096923
0,190816535721547
0,191630942269332
0,190876954590521
0,190463722091427
0,191769231813368
0,191345672830876
0,193112213652565
0,189513269304007
0,193279525199322
0,188873784171468
0,192363920284814
0,191851200397836
0,193188580473322
0,19424243972268
0,191693975970809
0,193341561497065
0,193794546969124
0,195185925679076
0,193116068138688
0,1950343658578
0,194236561806976
0,195272018001621
0,199451042311966
0,197223753358871
0,199934478708081
0,198876414184428
0,198804489899912
0,200450161914593
0,20388225014989
0,204025131437327
0,204757997476741
0,206429585103094
0,207256547712206
0,208501132129783
0,208350048948793
0,210362116836583
0,208110165919019
0,209969532629548
0,210889077936297
0,211293020425754
0,21068839508025
0,20806489119047
0,211312893878688
0,210888802860234
0,212557802350926
0,209309261862486
0,211162492300027
0,206859296249108
0,209366994633611
0,207459505378487
0,209311360602589
0,207760945414298
0,206359915714711
0,207525963831115
0,205434509005667
0,206045706794858
0,207394458610612
0,208557978177073
0,209152546834784
0,206994599520669
0,207107075643984
0,206885581387429
0,207643172266728
0,211044018885282
0,210615121812271
0,211478364130489
0,21062056030029
0,208801419602237
0,211049055041052
0,211364993145788
0,213520233361281
0,214152632703396
0,214600541344693
0,216101551246152
0,216939295731797
0,218522541407505
0,220798542911204
0,219261680925217
0,221703451235822
0,221803444728264
0,221272445803674
0,221987630641757
0,222056281524295
0,219365739962518
0,219474266796317
0,217960140558362
0,219014353150648
0,219472591738344
0,217706474371273
0,217580002967573
0,215767681052001
0,217488062733717
0,218576388330963
0,219168070505481
0,218917870693147
0,21779297649366
0,21983514695093
0,221908153260389
0,223298580494892
0,223780239418097
0,22696511033742
0,222731402283138
0,227411130167675
0,227424828912496
0,228928043524156
0,232247111481548
0,232794424351
0,232066619894362
0,233868360926755
0,233061652796082
0,234546237600176
0,23723229923205
0,237439136960526
0,239381099430112
0,240499853040547
0,239750188324326
0,242014888214305
0,242952807217345
0,244681476234667
0,246387555033842
0,251414535685819
0,249003953464055
0,252371032998974
0,253476105652023
0,253159010507504
0,254804899852413
0,255744701381449
0,25479809651498
0,255637474411615
0,254707149760512
0,254385669651818
0,253175995972292
0,252286510379205
0,249017100356161
0,248154390928553
0,249341058691264
0,247188922604456
0,24741277347568
0,245047371452887
0,242291033760159
0,244058090775715
0,24336649450286
0,243527757995142
0,243152292894565
0,243057861745294
0,242519253853466
0,248824967029104
0,244471909579744
0,243399654200213
0,246397249852533
0,24799244650239
0,248352299483357
0,248337655800694
0,250277793879672
0,250938085355271
0,249920991696242
0,250035769200666
0,249338623279057
0,251233901604673
0,253630932337273
0,252591474050637
0,252791362690734
0,254145144460327
0,253212317736195
0,254248774881117
0,255638147684303
0,254942286713873
0,251487498707649
0,252542593044815
0,254713184683505
0,253173814699146
0,253695850377345
0,252336732659867
0,253039048311156
0,249895514672255
0,2547244790698
0,252315061452652
0,255543343616255
0,251283567594219
0,248437688024166
0,251962130252736
0,247757071503183
0,249146183895335
0,250782008745457
0,248357773853673
0,247829025195025
0,24727268316366
0,247920473099758
0,24730491391582
0,245972366864453
0,241181257445667
0,238466372572894
0,240157743140112
0,234342350055485
0,235520026263694
0,237738537275585
0,232016810364232
0,232123552100959
0,230938802522581
0,230754151546643
0,231525296238361
0,231241412047761
0,229821078769567
0,232085050881102
0,232283720068056
0,237235402606038
0,232710260013598
0,232889085815336
0,231562684357481
0,238077846896098
0,237044470986926
0,237224179712702
0,233884747282916
0,236071881379073
0,235194603003601
0,236063856757889
0,23549006225609
0,233933396201576
0,23815682461618
0,238712872969514
0,239206802438355
0,238811461545494
0,234641945764067
0,237813298901214
0,236566347241071
0,234719973437357
0,237995776976894
0,237686105333665
0,235044614884204
0,236392562558311
0,240271787598142
0,237968152556559
0,237192580913138
0,239516532937664
0,241991325005402
0,237762040474332
0,238014761115252
0,24127178749748
0,242462817936052
0,243379391987493
0,241067790526573
0,243649514368743
0,241738520086361
0,245400744629141
0,24654247318994
0,244315955307253
0,24820459302578
0,246205180269615
0,249635360858484
0,246344386810813
0,249627334809942
0,253696674430952
0,253010537948345
0,25476155883489
0,255097262219282
0,255543029849814
0,255132200655946
0,255423195315889
0,256754318878746
0,260300083368491
0,260209935277615
0,261371270156384
0,264594668468992
0,26525449131021
0,267742613801805
0,267140695535537
0,26820272735827
0,270275474124265
0,272291029838166
0,271082168714882
0,271811503107581
0,270031549090392
0,273288232553636
0,276590946768542
0,276716732716926
0,279090420896264
0,280418110336221
0,281562219502365
0,282953643099667
0,284559404289293
0,289379009753394
0,288714712468172
0,289609109069025
0,289072503500744
0,288730260326997
0,294913063100018
0,293847450935895
0,299373578971152
0,303869801580356
0,302413631325316
0,301777325603429
0,305310587516963
0,30590689026058
0,308333874174957
0,310007830705313
0,313347739116314
0,314607529569329
0,315773319494008
0,317893002787386
0,321585764838768
0,324107288469116
0,324725960704947
0,322547864061727
0,325729188370458
0,330812968756321
0,332791485202906
0,331668231342785
0,338050537475166
0,347369260475006
0,345642628298863
0,343887838591588
0,339950437444082
0,348766731068398
0,349577798768974
0,351752526971986
0,359230154530035
0,359667386916363
0,360116590005961
0,361646145165478
0,364890594910435
0,363735630491083
0,370711608718334
0,36999816753391
0,371367929410867
0,37436446787403
0,387207083284385
0,380104746528354
0,38373763944137
0,392557609448033
0,386254132472427
0,396325485117363
0,398615151788848
0,394655952555052
0,404480484919007
0,39815521803476
0,405901581800122
0,409451259471271
0,410543693405295
0,411776412052807
0,427418433990405
0,426809691375358
0,430976343878991
0,423806498278222
0,431770132357174
0,436302546983478
0,435963863011288
0,438443231687434
0,429358364862164
0,438044773802474
0,452529914503121
0,45168598592025
0,45670433490743
0,44965490664403
0,461938686069732
0,455770916595272
0,460956855370441
0,467525335859272
0,480981034711714
0,476295778943363
0,469990086096537
0,481562488049512
0,495131165852424
0,491780569581114
0,490498117057632
0,499305439939044
0,500318822891931
0,494185232599017
0,503998417128827
0,502249597763705
0,512098634546861
0,512435513661107
0,506392967962755
0,500801492004253
0,522342478288313
0,524159140326854
0,534284323073279
0,534587482935622
0,543346303459942
0,526042778281784
0,547299463510645
0,539758720347371
0,548940970822894
0,559934275722668
0,557929837766394
0,553339755284862
0,561431059148621
0,547550270352967
0,568267842467632
0,574132097334295
0,57342696394621
0,583091110027347
0,597513855236238
0,579280658700085
0,611219621306394
0,596704044269439
0,608415757529218
0,589262986049208
0,61289416088781
0,620286686362013
0,618786809218288
0,602459058327221
0,610536734979991
0,623716217379122
0,620970270466254
0,644423322438994
0,643232260292322
0,621383434479424
0,65156215000833
0,651281529411734
0,636796338133016
0,647026479840935
0,659210230142526
0,643346923973751
0,665038827134651
0,64773349317933
0,664000318517443
0,670560036548856
0,6850516524509
0,671103158197261
0,677063432089999
0,685596860577081
0,685347575225203
0,686888967279442
0,716323371715005
0,692665814297672
0,710630280066043
0,703352194708662
0,707027990635419
0,73973587621972
0,74379062533451
0,702810972477288
0,721790280000485
0,739801637439541
0,740686216262946
0,72667373126229
0,761163075784904
0,76411318361615
0,748107944002074
0,76329833108786
0,772151406349381
0,736803412981278
0,747865952986868
0,753450569697786
0,828004907000758
0,795186149264798
0,786237775785917
0,764139582518817
0,768676213891987
0,812251722328555
0,798059175727609
0,805907921789512
0,804347565860469
0,775424344977308
0,844938896285267
0,852048180214222
0,869940604071317
0,778865197915528
0,83295815903798
0,807769660128513
0,810579595008549
0,869619999996896
0,818118624681727
0,84571963266046
0,901032079148354
0,82657913172071
0,83990178295301
0,834400593551385
0,876215137992992
0,858877338435734
0,869203468816594
0,855360674040507
0,883985973414261
0,861395235607348
0,921255418064454
0,950847622369938
0,966273491877522
0,881325598431621
0,91515647241132
0,948786618997435
0,915314991330664
0,914578761733978
0,938680054827181
0,834761151131462
0,984570493345384
0,960610521805423
0,896849444853967
0,881145753378477
0,879759468139205
0,925679833712436
1,06224225057383
0,925446777117605
1,03657829024641
0,918834125578567
1,00423611422254
1,00075993954996
1,13383658931103
1,10539530344561
0,953441216352725
0,96540967178246
1,01503900877432
1,00793954330007
1,1480373144652
1,00489268276658
1,08521394258097
0,946047795292407
0,957915324996937
0,999514740491491
0,9342352803736
0,982672184260536
1,02848585319337
0,913192088477266
1,00372561377801
0,922682927094437
1,14481185225202
1,1470742586161
1,10252177479003
1,01025828801563
1,01147179633604
1,00284193436543
1,25944128467982
0,991598316615746
1,0361706344691
0,9260597980983
1,03085091251004
1,13627091603356
1,20664842604659
1,26248174138254
1,17307237031076
1,07203160928208
1,17546770244156
1,11538674331398
1,00420259960427
1,05740567651096
1,23398386623413
1,2309317779818
0,978262744713621
1,00858890713367
1,35111389481032
1,40655837062457
1,46971659893736
1,03747576655544
0,951421766412034
0,951861709271795
1,11232666982531
1,25623810736685
1,33652767042829
1,69141684850175
1,51353143244373
1,3842755669525
1,11241926086731
1,06056457809795
1,56841322572855
1,34187737541075
1,34081637908264
1,73986954233023
5
1,6672832249614
1,56124472250138
0,986269559563898
1,20660992461436
3,40790926478499
1,01516880338562
0,951229808258489
1,86200616809734
1,47255052831689
1,89097849557855
1,18141190343783
1,14696678142062
1,09047249247113
1,52197655355308
1,28894847991891
0,907611731184744
1,04626069143361
1,23453148838989
1,06965762943004
0,916560330736566
1,71498102755522
1,73440095164073
0,835179568822513
1,86428393289996
1,2390612930134
5
5
