3596
4000,36533379555
650,420452594757
1
2
2
0,0576352575092377
0,0513918067921451
0,0531567068700246
0,0514834251990503
0,0501377956957533
0,0560702861097646
0,0557542132175338
0,0528585783073048
0,047141621491099
0,0572649863838687
0,0539814512734002
0,0536950174389765
0,0500217480615378
0,0444260980990463
0,0504159073927571
0,0559614471008848
0,0518290469320829
0,0528953058754335
0,0541084595301118
0,0494406912822535
0,0506943257353547
0,0508177572034755
0,0534092547171376
0,0577055290718192
0,0555136930907265
0,0559232591756981
0,0458588247601874
0,0538646706608495
0,0533598169894038
0,0535235576893545
0,0446281058452619
0,0495660515739271
0,058632939141967
0,0549869558876561
0,0564451773345427
0,0540885243834029
0,0469450422571381
0,0501618517636891
0,0468874668605284
0,0523281987779935
0,0551316684864118
0,0513778178732789
0,0555448812194265
0,057529755951746
0,0539136984995292
0,0569643388946379
0,0561338541167215
0,0575698663840424
0,0547676558791367
0,0572089401244173
0,0588615132080413
0,0506717822522907
0,0584256742291175
0,0641615376127487
0,0544104704538333
0,0635578308489077
0,0573113927410551
0,0521554351858078
0,0452739142879153
0,0486952521296235
0,0636149460115138
0,0565407684713614
0,0502083520620564
0,045688463258835
0,0532663977799866
0,0562459295733729
0,0497956999835271
0,0519135227292961
0,0529705240010654
0,0539424614166147
0,0489416438967544
0,0578233885770183
0,0522682654259424
0,0523908674269805
0,0631855215514905
0,0565760941644476
0,0517605237230958
0,0562278926737784
0,0458300773837468
0,058269623470404
0,067451085361069
0,059455081782437
0,0519990431712024
0,0442712613238919
0,0572520751224528
0,0673968932227094
0,0407843872248758
0,0593335004339022
0,0562235412316855
0,0575047331798613
0,0530920959432003
0,0548942703008227
0,0497283473880755
0,0541989713879774
0,0484838585825589
0,0514105276338562
0,0534457289978014
0,0591600317362211
0,0448110938765107
0,0628269206942493
0,0450360754007923
0,0763480820087827
0,0725607707768113
0,0455193462980502
0,0700438990113085
0,0562278614881139
0,0465195781438967
0,0785169214122061
0,0701928764799059
0,058156556149491
0,049594744314919
0,0419754177232092
0,040959566645168
0,0569152455002579
0,0475019609298198
0,0582948211393139
0,0656697881220986
0,0667007673362288
0,0535937332938345
0,0536681843772768
0,0218900655040966
0,0681270925571382
0,0671278871954083
0,0602389737011566
0,0540974071864803
0,0556148900839839
0,0379375336117721
0,0806397589032998
0,0663770687341249
0,0631945838744151
0,0433866512644804
0,0560223843461094
0,0374997363690675
0,0589215146651371
0,0756945167024561
0,0681098967316986
0,046644542434983
0,0364876790311631
0,0559150773238204
0,089494960705751
0,0596665377559246
0,0499992649849545
0,0266760055979968
0,0569727396734542
0,0765500085546173
0,0587338924801061
0,0437088566910682
0,0687182228640058
0,0532156251532957
0,0526167943285269
0,0389591114974759
0,0483414750589227
0,0601816423886131
0,0656553857349101
0,00799645299632373
0,0938997763420347
0,0742125183869481
0,097975383088442
0,0761064309647945
0,0606184595313402
0,0446592640369101
0,06182514185452
0,0536437804205133
0,0494551317416276
0,0505564907836316
0,0447781139544236
0,0496362561713191
0,063316698919161
0,0499922797201256
0,0593886495074414
0,0646357519556636
0,0547017804948273
0,0334035053472248
0,1057148928293
0,0538617542303578
0,0474685259562968
0,070332840459858
0,069248570237992
0,0335372165121527
0,062472247147482
0,0690775021124073
0,0649239936303127
0,0518462810136236
0,0517292490455476
0,0465520505391669
0,0692483779202281
0,0524589081349112
0,0627497073212113
0,0452387607183186
0,0449100897557934
0,045856635816703
0,103808780933975
0,0683157066404231
0,0702521435993537
0,04145643340307
0,033564478243511
0,068752560891962
0,0779534026467015
0,0529719314633956
0,0623695345920703
0,0529724426559088
0,0509706198670836
0,0436627480998434
0,0624807352646436
0,0335863107940861
0,044172320666957
0,0751735609406621
0,0784941822577535
0,052031564014586
0,0576519132732897
0,0457726881263253
0,0425979914367711
0,0782643509465635
0,0798317613634473
0,0619051302465349
0,0511794699671509
0,0457199413508594
0,0761743092554253
0,0622537087659411
0,0612312052096057
0,0571617763828191
0,0665137649626849
0,0535040168022403
0,0569069585257494
0,0489914349394819
0,0583953051126064
0,0542159983622999
0,0599544727547966
0,0561625962520622
0,0565254448579122
0,0565214586077246
0,0626295207759592
0,0561321209262256
0,0650558155248023
0,045373562516595
0,0721783206946616
0,0711626425265585
0,0700414996655202
0,0586905727695345
0,0597908793963392
0,0476522111056497
0,0567767089968402
0,0486713778882484
0,0635664892396423
0,0471372596089828
0,0626898439889799
0,0679475542727121
0,0714182568930422
0,0613514951777838
0,0458773642876303
0,0771315201434726
0,0680240170248985
0,0620486387353752
0,0566238738368013
0,0607599811084552
0,0442155130500951
0,0519005888359259
0,0898962834549007
0,0622759433870716
0,0491152958047751
0,0763629248945007
0,0677893194088088
0,0615553494590921
0,0404200151703149
0,0434995290174379
0,132338354746434
0,0644819719429728
0,0714681702285981
0,079700767832174
0,0686089558370174
0,0685966092589266
0,0449667283639378
0,0150531962982293
0,152749149554217
0,105121050359507
0,0639896015545586
0,0611595894715626
0,0838955599877913
0,0522864600770124
0,0770024822044697
0,0604339141574865
0,0900569697754042
0,0570831680409067
0,0941852999727034
0,0843174994406968
0,0596177251393501
0,0797453334123502
0,0829514028390243
0,0773752922006809
0,0682195489930132
0,0650012771669181
0,0607575845995364
0,0717688469886401
0,0763154292187915
0,0864571197377892
0,0687699816185678
0,0660188495248201
0,0885030896558391
0,0770691004391642
0,0654440765779673
0,0759072031120406
0,0799674248967785
0,0701164302430978
0,076013817512706
0,0712500211757017
0,0947127742346174
0,0683459003431946
0,0827264883738971
0,123023512523768
0,0892644028820239
0,0809519340993861
0,0919806919031469
0,0885917270574703
0,0902072477930188
0,0744507362865649
0,0899443726382888
0,0764952844248558
0,0836086995814382
0,0806982365559782
0,11194287047141
0,0925606156786928
0,100036920150679
0,0894862069596066
0,102320627705859
0,0888544136056898
0,102516509692144
0,0868744239473337
0,0992804528572066
0,103599790260687
0,094954301300723
0,108928305118542
0,13245674863764
0,0856053077597943
0,167817961919123
0,126558665506208
0,134646091329557
0,111484525287085
0,121421115527469
0,120295294141619
0,128871676150422
0,120452924239845
0,134205057126361
0,123919169674667
0,150011772068896
0,138674957007483
0,147859430578466
0,122070152862341
0,199515158749355
0,17526488319615
0,171536267180849
0,14708226862846
0,141414265629456
0,183716533196415
0,169944168597018
0,186745997689097
0,192371921999201
0,167930913154097
0,183032576929735
0,17069017002374
0,187405015455451
0,175685233894853
0,196369629429543
0,184118759694733
0,208952336176497
0,200881409260555
0,223014384549288
0,196471097183068
0,2283271083445
0,238368820516641
0,234350397760726
0,217039337813077
0,231878836092338
0,203469953091601
0,280311648725207
0,227752449718544
0,302276838110464
0,229197025480052
0,290287824650117
0,262264871108668
0,267584833881998
0,257245952586772
0,255005416723506
0,254193751840024
0,277663683400519
0,267097198878729
0,275286973644444
0,264633817084033
0,291507798646608
0,282755260215038
0,299197794294918
0,271146840202377
0,306570764104446
0,312415054734759
0,300112735287758
0,304012635664561
0,294523261245627
0,316704973268413
0,398306305799038
0,336022883633847
0,313186019233581
0,313423677820324
0,325112406278939
0,32156005050471
0,338642926748164
0,328755568279254
0,344684660279579
0,330429152125479
0,382987916437985
0,33078129885713
0,387505738562752
0,345643828097501
0,350218982518166
0,366596356894803
0,374790657563953
0,359115302731874
0,406173451280948
0,355845803662424
0,364704519730373
0,401085959816169
0,399114064346083
0,36208757352264
0,402980778957551
0,365146476695272
0,391710275490181
0,37786824051676
0,407550540647813
0,381080784980306
0,423717617398681
0,389110893949909
0,415390929273904
0,405636542287007
0,42659922364432
0,397074148308272
0,462518117176116
0,401393328553099
0,426731197035046
0,412270674560034
0,417735968675351
0,416757566319474
0,414830498032546
0,450429417195158
0,452905879574458
0,44466017047503
0,467352761203682
0,414699089838616
0,469805022416379
0,429132851901755
0,477864424325549
0,434786253638617
0,470228218810211
0,453486894089096
0,497782093243255
0,455577801584294
0,484429054448979
0,457242953226104
0,495127096476972
0,461432672458258
0,502973995643101
0,480252000708911
0,502185085946136
0,46474045034245
0,50236823614167
0,536239522845626
0,544760506968375
0,49162888977605
0,542630250474844
0,481772246964223
0,524711250023455
0,504287591285542
0,51754492479928
0,482136479199033
0,550983679041081
0,51590843561357
0,548512263179304
0,530900551663011
0,555114018707081
0,508609480056746
0,548551379487292
0,527688061686953
0,587635483306818
0,554854358783056
0,568077596571527
0,538977058244861
0,594554031533158
0,561511748464116
0,567399609867916
0,555217242704612
0,63157036470297
0,56125348011145
0,589290694063371
0,568248443720691
0,612009177989585
0,590681846272504
0,602896063001763
0,5782536133536
0,615862428599199
0,556561339299223
0,642945735725865
0,587077280702866
0,65138818806376
0,611870745512836
0,634838381651323
0,625749138171354
0,635513830527356
0,643339610231073
0,679904820707516
0,611240305035562
0,702551929712619
0,613106122373862
0,658203030014578
0,637949722862607
0,643831201042675
0,616416418068326
0,710296184454646
0,63275526472257
0,719973181854341
0,677607306054259
0,707564881822393
0,653942986256557
0,7406583633387
0,652889017921524
0,70743248959061
0,668710829527348
0,732196898656999
0,638547145419267
0,758629486424166
0,694469063983367
0,754566654539176
0,683748112185534
0,712564743567638
0,672713892334993
0,774761110011703
0,710577285230254
0,750256136205524
0,715873879174135
0,766703715705225
0,707402219596886
0,768458005277662
0,754873773367891
0,800027547371909
0,706357818771098
0,761209812096217
0,729144035562653
0,830958165307156
0,765697818759401
0,788865256936571
0,745658187871719
0,799857005021887
0,740871680114969
0,855099860870334
0,774504521010704
0,796375104865839
0,771475597718215
0,834224651351167
0,7392864629193
0,784990178708252
0,790404814175042
0,844015738251334
0,811157481071386
0,854067552782649
0,800585561516173
0,855144121469439
0,786502812672185
0,874755690242217
0,80048088475457
0,852705429039491
0,798915285819803
0,887330548291455
0,791899392370257
0,866248580531941
0,841382393737833
0,872729403307393
0,846939269096697
0,927439176454062
0,883142911351352
0,910598785111006
0,884753173761576
0,904235498909623
0,807228864714923
0,952272351606757
0,866025914330127
0,92380197905331
0,893159068809973
0,91959935291339
0,863158380064848
0,90049818064074
0,911506778608827
0,928794427467838
0,864189334769927
0,928512151668678
0,917723667749293
0,985739067371072
0,849599465650837
0,970649751902991
0,902504523989968
1,02405605270565
0,875596771714804
1,07039491190693
0,969234498884815
0,963232732111842
0,926615280924414
1,06437512681686
0,894743462877551
0,975828992491833
0,906434376843382
1,01168762735266
0,966801213963543
1,03944861142254
0,980093973560231
1,00101878073705
0,964014527097962
1,01381775870094
0,990113706822987
1,06359952378005
0,984176077567464
1,03610460800915
0,993979021533761
0,998624087366998
0,999698394850706
1,17669482966539
1,00563240117174
1,06930831686677
0,98831168552093
1,12114713895156
1,0125567405393
1,05717633546219
0,992473858283315
1,10108453626462
0,977515210047835
1,05678855356658
1,03894113692425
1,06212192307895
0,985323630120033
1,05794258486155
1,0467895855323
1,16093800873314
1,05908336563753
1,1629242202887
1,05044893721539
1,14238769148836
1,0631073832967
1,10340927613409
1,00329876002865
1,11876212501932
1,06341338705655
1,21375657066476
1,11046638966666
1,10066937518482
1,0535187823911
1,14490836541129
1,08821824702458
1,2104677690706
1,06028050080766
1,13235389696285
1,12850499246665
1,16565355862664
1,14682908996793
1,16671633538071
1,10463984281907
1,26104616480761
1,10090362542068
1,15087291521162
1,08894464799985
1,18346484139232
1,13232160044708
1,18696488122753
1,08262540194054
1,20721418676952
1,10394962299098
1,20794518428113
1,07692543305541
1,18908284829976
1,10772166674811
1,19045879690023
1,20524111310541
1,2104173589419
1,12555255644947
1,23384970022271
1,0230227942706
1,22263429283503
1,09263888368253
1,22296188299877
1,15040020253597
1,23110932097315
1,11565335401761
1,26837010421612
1,20355534379924
1,22822001975467
1,12557046776265
1,33138972369688
1,14470416130431
1,2008286905019
1,1095717714538
1,19608055135338
1,06211370862439
1,20567813287695
1,09748260877236
1,2168608632235
1,15845602633429
1,19205159143322
1,25018052382537
1,22812314157474
1,11525295637561
1,17731078443062
1,12920719774095
1,25143720011396
1,10858001648175
1,18360926405338
1,15865166256245
1,22656975376292
1,15401691857863
1,26863908682171
1,14332242337972
1,19415382632602
1,13943274180192
1,26496097771833
1,14001434027323
1,17814262268282
1,19281377842366
1,23995253061238
1,26678446143013
1,24184864393969
1,14572384512161
1,24626918168888
1,1261695560057
1,19039072007831
1,13589227776595
1,2018541032122
1,140887400232
1,22192425534872
1,19836623043806
1,21428161222691
1,14660900636974
1,27771490838802
1,1585412418324
1,29558601719967
1,1521611860487
1,27661631542942
1,12077999809103
1,27746038240613
1,09639280898235
1,1566214591262
1,21547869695418
1,19643713213868
1,1456116541146
1,24566101813414
1,12482126228118
1,31328245396183
1,12320981558214
1,19021298511423
1,16177283743834
1,21379728607921
1,12675446658618
1,21380652317026
1,12138444200147
1,22221644988841
1,22366172434233
1,2062553551162
1,16100065951094
1,23618215841652
1,19758148205475
1,28939935932434
1,1172207290395
1,23412159017073
1,12604233303757
1,18953009361953
1,1585637615201
1,25495859774499
1,16498955783659
1,26286661210523
1,14627296973749
1,19683525742138
1,18575674330075
1,19127411223522
1,09550458363189
1,22863433206038
1,1234306403659
1,16511474334373
1,16758955582631
1,17727521441067
1,09594538285701
1,18856421516827
1,16072235017441
1,17616199894128
1,10950065132854
1,24776755299415
1,16888192598792
1,13757205061515
1,20480735392798
1,22562912193697
1,17362011816125
1,19090718835639
1,14276506698721
1,16524544227622
1,12635175710052
1,17068158291519
1,1962225751174
1,20304904836035
1,14443958793645
1,21539266638086
1,1341385971179
1,23524377028574
1,17597177603505
1,22678663865847
1,16155338162605
1,20599955697676
1,14480059319271
1,15907846023434
1,15892487645532
1,14609476237628
1,09049511212059
1,21371187297514
1,17205123016994
1,20419703485103
1,09416417382379
1,15979816048467
1,14885519754743
1,22568743462509
1,15391781962061
1,21286052831398
1,13181217435548
1,13622033692207
1,13203074661015
1,1789201117503
1,10963614356141
1,18206400586773
1,10961872601273
1,08323652472099
1,07879057067409
1,16846472359549
1,11757004882288
1,1824427803024
1,14770448789151
1,13622079667477
1,12811541181431
1,18300503381415
1,13895777255553
1,08219710643128
1,08318901416105
1,19216299574287
1,09572922742139
1,15766479702882
1,12918483698291
1,07866987462967
1,04058738139941
1,13092491744687
1,03075656849784
1,10546994147264
1,12976419212201
1,15282945881024
1,07873436089241
1,0931987530818
1,05848901713887
1,11097089837407
1,07542773176548
1,08430724765562
1,06507614355495
1,13511656894522
1,05019216112174
1,08374401216538
1,05858508600037
1,05364487469552
1,02719128440121
1,07619320449799
1,02678834061254
1,04649894766524
1,0072952562249
1,05275803091366
1,02503530363085
0,978925049990858
1,03016162841369
1,04198670203841
0,982484099066346
1,03665708228518
0,969817057742758
1,0093566243983
1,00502340956288
1,03997547891821
0,959294507680627
1,00069068750013
0,971022635606225
0,98045723582771
0,964095022476448
0,99231698104204
0,95913071617496
0,983795623195771
0,942825910230965
0,964438191698747
0,961693761759076
0,961874550771989
0,954626551172242
0,952347445877642
0,909737473406355
0,954653009630286
0,892044301322735
0,927475990230556
0,889248459601186
0,892082127315005
0,874664173308663
0,89364789674936
0,882024666048249
0,899359092347853
0,875599386208531
0,885106496057396
0,876395836844334
0,876636280457516
0,881068908505722
0,899695922759651
0,858082420040123
0,858231935040511
0,816312977394778
0,867154510131257
0,827911757095449
0,855852847652649
0,803345175948049
0,827982259908595
0,812280916219508
0,834936977268672
0,781947400393077
0,831943544367816
0,793077967548024
0,808136916071962
0,779836776286364
0,790800673667586
0,765754259379381
0,813770834754472
0,784274038421231
0,764594663106833
0,75368183108994
0,775591911831522
0,758803119260528
0,75202265224553
0,733014312468183
0,74078122530846
0,727185977573628
0,732117159816272
0,718035278545388
0,734366042776582
0,713531853338977
0,723119788746805
0,709277467724946
0,723133118890634
0,68487843428287
0,702055867163019
0,688081360637529
0,701209346737167
0,669829979806789
0,673990140722496
0,65441413740903
0,68147079485189
0,672516377800989
0,674665708078417
0,654395392464618
0,656146703106334
0,633865021884611
0,651931451334154
0,650422045449517
0,657387256535736
0,634113082008958
0,627120879567813
0,632154003043535
0,629869524332051
0,611660342765893
0,624438377481545
0,608044557113784
0,616577683736234
0,601494348944946
0,615193280035474
0,597037130358216
0,598329720735742
0,587260095011409
0,589830094877599
0,578682657245002
0,582905168245125
0,574271419208087
0,573111474025646
0,552542183335167
0,566937058719255
0,55427937332746
0,556730037416737
0,549508609359852
0,543284162517192
0,531428423956058
0,552264012507188
0,528587564540597
0,530014600568835
0,519761942012481
0,532209872891774
0,522194921755277
0,524279912005184
0,512328380457917
0,517889471343943
0,503452365172663
0,510071705175114
0,509675104009768
0,507294059482925
0,487444699184747
0,508715653925929
0,49222246037313
0,487399634003828
0,491956625738891
0,494355790833697
0,471950922569714
0,478112387902023
0,470487892559131
0,471253002641452
0,461125864334658
0,468430062223412
0,455286065064251
0,461971177690033
0,457176347676021
0,447814119892302
0,439209544093035
0,445726462700904
0,445494823734296
0,438947466688232
0,428052372591377
0,4339945024596
0,424573137623506
0,437436636657826
0,427764400437416
0,417939720081595
0,40792733238844
0,417791621610491
0,406011882337925
0,413188787183866
0,403223676130725
0,408705136173027
0,399835452082219
0,394640610859314
0,395007052211302
0,394541867564601
0,380636974347856
0,394745503544424
0,381612646440822
0,387934435173149
0,372234379659002
0,383244767933413
0,376654248297735
0,380919948314828
0,375308030279788
0,369053765789584
0,361788803228476
0,370277351099606
0,352248824436887
0,360481541366981
0,356080338945236
0,35737899844449
0,354695241441766
0,355801015391978
0,342881704850392
0,345593193132595
0,336830197007012
0,341107169257201
0,330764951834788
0,341605679620739
0,327684160369669
0,327870773209662
0,327148230130728
0,33115033027574
0,326472304644145
0,323275821618914
0,31725784161655
0,318452821160979
0,309367262585118
0,314062261894441
0,307117084570665
0,313608279366846
0,304368995511384
0,30670371849156
0,30044276356846
0,305868973325386
0,297129196510947
0,30095123238409
0,29407887008044
0,290703649424486
0,294288917313848
0,293143432895428
0,287264111682289
0,290552383387364
0,282734406734695
0,285431870717957
0,272966727955136
0,279856141084378
0,273372548433208
0,272904793520927
0,273851564279428
0,280221353712023
0,265975017067249
0,269793353445252
0,267263401989052
0,270399183276103
0,261800045255716
0,263680797725781
0,255825548171564
0,256069630713822
0,256370953438816
0,255631080787023
0,247826626829692
0,258685737525959
0,246517190319572
0,254111516993278
0,243939565904568
0,253356776775195
0,246023493313959
0,238979642425027
0,240550732166421
0,244950961522357
0,231665970876128
0,237447027655918
0,235650577679156
0,233980115261299
0,231338094093319
0,231425495384329
0,225027251189243
0,226629742181502
0,222168073279042
0,225495803022923
0,219495801454714
0,222588402766494
0,216213234426393
0,216714687616739
0,215412512471124
0,217454345853084
0,211577608017668
0,222277769365675
0,212848488116674
0,211733213475641
0,20851688632885
0,213976917496589
0,207151363472922
0,207331213715136
0,203186471221732
0,209161938160516
0,202999935940577
0,20246267483633
0,2011408638318
0,203796632081168
0,195295229241996
0,200378921164811
0,198006996557824
0,197726156556144
0,191053102255373
0,195045357337861
0,188459626642156
0,19661304470997
0,187856145697934
0,192837681476533
0,187495452651957
0,184521521785108
0,181084672506774
0,186399150288771
0,183091195482632
0,181296267867223
0,175087445250781
0,178718786228309
0,176535785645464
0,182242300301955
0,173075485422253
0,175969518947983
0,172360274647109
0,176816121007794
0,169538601363249
0,171356071814304
0,173581388416371
0,167633706813761
0,166744420230749
0,165648528128184
0,160707617648874
0,16891698882191
0,167311776610136
0,167266604256643
0,161337425740617
0,164377879028289
0,160012543645913
0,160972639050103
0,158837037065523
0,158530313624445
0,156241858785441
0,157070397752583
0,157309301347001
0,158922549091976
0,149886053590541
0,154287353260704
0,154608221591599
0,153303768192398
0,151418629351035
0,149843799890121
0,148868086959373
0,154344533355776
0,149191998946693
0,148366406327862
0,143801966248052
0,15121921357858
0,145826576534409
0,143441560084534
0,138376595512693
0,146410715452031
0,143722012700546
0,146820689383931
0,145249697943749
0,143850449335954
0,142020331599823
0,143118341989655
0,140204024508221
0,13631274605826
0,136568797216712
0,139016320214185
0,13552411680366
0,134542731070432
0,132436799470657
0,131403722137033
0,133301871535691
0,133359331992039
0,126259525871399
0,130734058791999
0,128364710409684
0,127910350202932
0,125505740073671
0,130272532148869
0,126978069043906
0,124650856502427
0,129043291419152
0,129641688381279
0,128598653412445
0,128918236159729
0,126180384544305
0,125087260729169
0,121402212319909
0,119197295230051
0,118193218784319
0,120199838140705
0,118385015970914
0,120415407296894
0,115489929309645
0,121831277050249
0,121530925083786
0,122497807585465
0,118150006453013
0,118833583082161
0,119677020494743
0,118898855023759
0,111557676834065
0,115293390416142
0,113541171683956
0,113300982971249
0,111146980490834
0,110648049501649
0,110871338754418
0,113784275089663
0,109844680973292
0,113096144257567
0,106847659326675
0,109736032380858
0,105576944356514
0,110256370234082
0,109120443800012
0,108042268456833
0,106865928138636
0,107826505488174
0,106608527468252
0,10545356239205
0,10155253615851
0,10646987203125
0,107788651270016
0,10452658742039
0,102609209837136
0,108681491685799
0,102192370829792
0,101879963574986
0,10602195631569
0,105068152686234
0,100022938145246
0,101672316364745
0,0948037686790262
0,099681389447697
0,100462809038781
0,0974589929480295
0,0988676672864351
0,0985704397354996
0,0984953367938063
0,0991116164502047
0,0966331349402938
0,0987720466221711
0,0972504119913541
0,0978666525831362
0,0961395415182212
0,096601104374247
0,0944592331364544
0,0965629491089381
0,0958882535496311
0,0972136577858928
0,0938760816081023
0,0904724956900946
0,0929063694581728
0,0956849784352219
0,0942897401420869
0,0904943211940336
0,0918968481174305
0,0966555768252437
0,0912758818538881
0,0915617819796842
0,0919894871080511
0,0942736803567365
0,0939598164056301
0,0909270044289362
0,0921533067977545
0,0904438952485248
0,0870041819457726
0,0884407225949195
0,086265205505487
0,0887760421321411
0,0895820442922146
0,0897223919191745
0,0873061566546673
0,087801910243128
0,0886145176644828
0,0887855880134808
0,087111815585782
0,0878214156382935
0,0887528616373565
0,0877941659857951
0,086135851186237
0,0852253123842181
0,0853993666880395
0,0873930175011253
0,0870918585670937
0,0873290627813896
0,0837115444084559
0,083269646448727
0,0866178654661773
0,0826028207973504
0,0817240145461492
0,0841134509956609
0,0819651105053835
0,0842769081240601
0,0848493548959696
0,0836707088375006
0,082086103525639
0,0832892282383219
0,0827527302356142
0,0812828430666542
0,0809222699328838
0,0805428368133566
0,0791632681257865
0,0813033360479519
0,078013544399808
0,0766037489287007
0,081000751087031
0,0807044054511297
0,0784218955730883
0,0816590674342784
0,0815825778328716
0,0812044885355932
0,0764780918170559
0,0764905629525679
0,0800990050275908
0,0802348410507296
0,079585068761924
0,0800348261999653
0,0790631345757058
0,0761342233829786
0,0780153711632145
0,0766634412842453
0,0758109456414758
0,0761119232259692
0,0776954168932372
0,0778596476596102
0,0783582863410531
0,0780199633111222
0,0729601018276174
0,0773579545402896
0,076600794776687
0,0741043885478144
0,0735686981361374
0,0735242850208225
0,0773437936143339
0,0773867267577439
0,076207968119647
0,076146313117341
0,0753299513330373
0,075417901586131
0,0759273550165074
0,0751392146077382
0,072627520055334
0,0766242928698837
0,0780262238683148
0,0729797379464512
0,0728364074068405
0,0747801039854851
0,0745174853086196
0,0703874037388485
0,0740626407046436
0,0743521935337677
0,0728039177558872
0,0711120113385155
0,0704219384123069
0,0712852004188873
0,0718716860358679
0,0713560241061686
0,0718702937455003
0,0698906939536896
0,0721203002617802
0,0700934366827309
0,0698741150502367
0,0709731373552821
0,0699404347191086
0,0731725510474975
0,0715580264358251
0,0681206065265547
0,0721238184635269
0,0737862980595715
0,0676723275570562
0,0687334084876419
0,0709618314855707
0,0697931718863454
0,0713325194446842
0,0700961216866486
0,0689878400921783
0,0708388735807377
0,0711260065072745
0,0712320927489024
0,070549297259932
0,0673539538395398
0,0698199417664464
0,069614804408596
0,066888029081454
0,0685423294902586
0,0712244987848153
0,068483790959226
0,0681851015415478
0,0686868768137307
0,0673510299607229
0,0658819409895972
0,0697880425057166
0,070115300453258
0,0693262961896452
0,0722741828085683
0,0720127954793088
0,0666317375979608
0,0706284836014787
0,070868164368549
0,0700460177256692
0,0692771728618077
0,0690302984782255
0,0690613576232248
0,0699109946895198
0,0630715466429173
0,0662409920860108
0,0665748107153634
0,0672033504365643
0,0698833131619963
0,0675432790961994
0,0659096567351624
0,0688591443518732
0,0650846452455286
0,0689869362983983
0,0656551273962098
0,0653871922296128
0,0653705153888989
0,0652148123433511
0,0671492084713814
0,0659634993813115
0,0660032318195247
0,0666801452270931
0,0662676659788876
0,0651785651078164
0,0638481036419725
0,0681817003435208
0,0659859301379092
0,0670580380186091
0,0662692359442089
0,0675362680563039
0,0657921752995164
0,0669415212596546
0,0672244099108633
0,0650731099129151
0,0668719406091909
0,0646032020087353
0,0632596775993581
0,067024775504499
0,0649522952726843
0,0655394516584692
0,0662594047946225
0,0657039244311056
0,0654710931358669
0,0675669919538384
0,0656730541801622
0,067443718179011
0,0669858008167139
0,0627403665311335
0,0655896932996721
0,0643587041946179
0,0633987351502492
0,0679590510170469
0,0665653223568043
0,0673891532066804
0,0627415471196453
0,0646586970946219
0,0630127291331014
0,0654756349902991
0,0669176596036501
0,0655859567584211
0,0658893280605298
0,065997950662606
0,0675306837865094
0,0700867309281472
0,0636890141818181
0,0662873981613891
0,0683606116051908
0,0655338268783533
0,0651450293668346
0,0651068439830362
0,0645904528004814
0,0668691454874152
0,0652582675672762
0,0625657776284575
0,0658729337815181
0,0651376700633795
0,0639098787451824
0,0686545562653459
0,0640943466917722
0,0633003142524769
0,064880757213405
0,0672441449594201
0,0635341379140521
0,0644679722361339
0,0623588330660376
0,0669943496649476
0,067034160262851
0,0639546037047341
0,0636328028949752
0,066801775744919
0,0633435534292292
0,0644490962525502
0,0633881010031653
0,0643510093562519
0,0643195462298325
0,0661571755366196
0,0662477458497532
0,0670711088008931
0,0647033651368697
0,0663380865772163
0,0630805335916286
0,0658299632419142
0,0648769773759241
0,0658004061240888
0,064834962491028
0,065248779536904
0,0657842184709868
0,0650630996662557
0,0668261571366011
0,067071361518986
0,0644216042034802
0,0653240720575081
0,063929433398115
0,0661884462393943
0,0659386791208686
0,0665319606134292
0,0621870735568504
0,0665004671349234
0,0660590547659805
0,065673775931579
0,0667029666357588
0,0653486442390071
0,0669772709646681
0,0701863885219955
0,0666794478042338
0,0667648190194856
0,0640769512275576
0,0678304585384741
0,0621797772221287
0,0706202492015348
0,0656997038833825
0,065662867427843
0,0663272309523681
0,0653712562456816
0,0654059239180158
0,0680421442665938
0,064309876764441
0,0660742335850695
0,0635074550129829
0,0653715452734976
0,0675738096737579
0,0669496303402208
0,0655500172847064
0,0664818166700122
0,0634605568748336
0,0663467313383291
0,0698084362462971
0,0681127552528187
0,0647463245258469
0,0654091835492216
0,0686349993417797
0,0692452067907644
0,0663411617813311
0,0656733853291745
0,0669885453977188
0,0669973303137981
0,0631124179372548
0,0667551973092386
0,0679342159024062
0,0676141630621004
0,0672250861997199
0,0683436159282745
0,0653640136941095
0,0661937114388462
0,0643022615134393
0,0689702221536074
0,0661650416771116
0,0686801551040761
0,0667456593786353
0,0711459801080198
0,0700964722278975
0,0700547105460046
0,0694982283295014
0,0684803363418436
0,0658301404106776
0,0683626767218573
0,0684738396809121
0,0697887608043111
0,0669651342574211
0,0689125228362735
0,0670446786453873
0,0702271268093581
0,0640711717094314
0,0696273748508929
0,0669082973247648
0,0668980740957404
0,0658653151060307
0,0709462254571124
0,0679133100474444
0,0709406531646401
0,0692397540366717
0,0703335974255947
0,0687388994756215
0,07042365514092
0,0680450039777966
0,0720984337416699
0,0663946918374724
0,0694193741598704
0,0701193845955368
0,0677994768899832
0,0660952726440153
0,0693404201930513
0,0691511983249016
0,0679768875958466
0,0673488569500055
0,0712224592885303
0,0692945962099992
0,0684764706843803
0,0685798835330434
0,0693408645357862
0,0692663095552968
0,0716448980052219
0,0682936302294493
0,0682190474789688
0,0673578960767159
0,0694439287364585
0,0681588536124785
0,0720120315663158
0,069011361516629
0,0720473203883518
0,0709175869970875
0,0709980962251853
0,0691849595771787
0,0700518167539435
0,068986669241325
0,0710281258101552
0,071668493775334
0,0700635268335638
0,0718078747754609
0,0717310959588537
0,0696280822794541
0,0720086771953378
0,0710239743055529
0,0724456901203216
0,0716945272742517
0,0740851974619573
0,0690457027090939
0,0741070121801282
0,0716262852575282
0,0743062961793601
0,0707728645616089
0,0712433672265461
0,0710245674562893
0,0740271403424596
0,0717124794380474
0,0731159159479654
0,0722313381952211
0,0744647319169498
0,0709504508105075
0,0708034805645794
0,0713039835276661
0,0739035866404052
0,0724212861034105
0,0740271833016532
0,0717638096518332
0,0714178107307652
0,073729278772498
0,0735257105422419
0,0711889482193171
0,0743838182127558
0,0734333576935107
0,0726153914273377
0,0717528730865274
0,074494978678175
0,0740608381099625
0,0752185093139661
0,074079380078507
0,0719623197742664
0,0732977802301857
0,0754336363428257
0,0732751723664204
0,0711588835421173
0,0731996638453124
0,0759485075756105
0,0739134819057319
0,0745188036685885
0,0734246315997655
0,0767196748880814
0,0760077283483512
0,0737914797939992
0,0729725529259299
0,0779220468046785
0,0740398042030572
0,0762189241531826
0,0747763969492754
0,0760053918052561
0,0766337296815939
0,077742465842405
0,0757034061567078
0,078013697518067
0,0769022231897444
0,0779927726806545
0,0807195346833257
0,0801124707294071
0,0782234561011922
0,0818679039555585
0,0844309117138626
0,0844807131981137
0,0869738016877003
0,0890061468760384
0,0881362330248167
0,0887914477326581
0,0841553901506212
0,096418706840934
0,099483318270805
0,101646023702274
0,0984900076564292
0,0923291219044264
0,0947755087391698
0,0950313031479426
0,100085256271981
0,105301818196088
0,102389540117459
0,103038574167722
0,104534900312531
0,102195990791999
0,102043539999567
0,105979579733103
0,103224957042534
0,108232700781805
0,100091579001932
0,100558449490198
0,105410982584836
0,0963742622265029
0,105842877129236
0,100000486440281
0,0974891687499854
0,099336983551921
0,0925363913578351
0,0828595921701597
0,0920370634113716
0,0890063345777694
0,0973950299955042
0,0924464436043098
0,100714595470585
0,0891310388075861
0,107086726118945
0,0819731845312159
0,104202718435155
0,0877298609804399
0,111758102574362
0,0865872124685233
0,120274289489977
0,0871268071381999
0,119265290952891
0,0759068554241896
0,11623859354904
0,0748338012953024
0,128618839562433
0,0782706208361086
0,134817602011626
0,0640879690496232
0,128407391668013
0,0671962995344824
0,141453986864785
0,0676529242043314
0,132667488525027
0,0665343208505734
0,138899474060309
0,0704378891887077
0,121575095316407
0,0821430597805944
0,113869201055896
0,0899040169601653
0,0931637330281953
0,102613360754389
0,0836281970675934
0,109562305708092
0,0772363316613598
0,116408814804461
0,0713944893894152
0,114021607914129
0,080441401030474
0,102521076646805
0,0884058429052684
0,0919754250301678
0,0896557485004326
0,0894695412623607
0,0931740958734552
0,0919642390170625
0,0879972386759189
0,0916618343540461
0,0855718015956839
0,09617443278427
0,0824858560750431
0,0963747960409088
0,0873867065508291
0,0941136563159576
0,0888040095013874
0,0917729505286253
0,0879508193702757
0,0912693393638213
0,0893467180995007
0,090920960033136
0,0875846123611539
0,0926802415413486
0,0868001756853798
0,0912414823353955
0,0866602248172778
0,0907322549487542
0,0875960706327879
0,093663330176656
0,0872933827712429
0,0936686439432614
0,0899694103740541
0,0948007364443481
0,0905057326782355
0,0915878390231814
0,0900822909603693
0,0927911736656889
0,0922255341641511
0,0961147284936982
0,0896545959444206
0,0954122985108603
0,0927383595935591
0,0951423295747742
0,0921111017012022
0,0951322000100564
0,0921312079804394
0,0974134264357067
0,0936421468984747
0,0957576251539918
0,0935187786610078
0,0973326024514281
0,0937180143083844
0,0998380746645945
0,0948538308499995
0,095270943576932
0,090799183218636
0,0960975957085475
0,0907123747513837
0,0993287322047791
0,0957508015272313
0,100253947402465
0,0959135576592549
0,0991298480813772
0,0943277021616421
0,0983855322134686
0,0933065183585966
0,100818996870326
0,0969063909497516
0,0948335531089818
0,0942041089146649
0,0999900154472593
0,096363994758142
0,0976163122812757
0,0959741676952927
0,0991690143750912
0,0982116498949725
0,104355259661475
0,096832726959771
0,103298167001656
0,0979551312315999
0,103494371991147
0,0984285209421761
0,103487254583373
0,09690574972218
0,103772159919652
0,0990043682477006
0,102328052525592
0,0978089989577413
0,103602468858828
0,0985455896971842
0,106388518816803
0,0996253298243561
0,106016099308088
0,100670863744466
0,103580614967581
0,101639488140859
0,105779171780861
0,103492719486313
0,105053134213869
0,101236225390593
0,104063439247034
0,102630676901596
0,107045258190542
0,103400319285194
0,104825215808736
0,101036274163274
0,108273146533538
0,106141479507568
0,108689167627763
0,103645050447694
0,108086613054174
0,105692000878641
0,108517583085988
0,10686396563323
0,108471578118061
0,106542056401059
0,109628232533501
0,106471176217579
0,110520956918212
0,107953114197481
0,111600539787472
0,104786573778501
0,108886105201552
0,105151475458188
0,108089952760767
0,10660157875836
0,109604897849169
0,107129776004416
0,110189654517693
0,106302009484167
0,110749892735781
0,108456301901888
0,112628478552779
0,111005138083985
0,112278700380488
0,108338765121046
0,113009224568024
0,111373660713045
0,110768349143769
0,109912954637685
0,112380729394433
0,109478476212038
0,112160974266651
0,109589478987724
0,113166169424507
0,111159149585283
0,114097363803452
0,110632329004171
0,114054857791413
0,110881875336194
0,11449460257011
0,110230773602877
0,114365205867119
0,113537349185048
0,115375514556978
0,112782723125603
0,117421518497079
0,113136864909193
0,115373126187098
0,112987523804867
0,114581538361196
0,111383243573532
0,116608998133065
0,115155516849262
0,117745878544092
0,113638986943659
0,11839340439703
0,114461522032846
0,118938341824747
0,11475080961649
0,116580835445321
0,113936238376401
0,116334902316795
0,115170397250371
0,116531392729616
0,114359223787604
0,11911935703709
0,114880413011256
0,119765511636715
0,117458278181054
0,117920432023983
0,114416216404984
0,119046718943279
0,114149282865783
0,121148400944865
0,115100241726481
0,117419504745127
0,116430731969723
0,120426711634773
0,117209612055415
0,118643104118769
0,11410893664793
0,118970027421254
0,11764403288074
0,118723177295461
0,116004569892516
0,118957595387062
0,112930072048679
0,118040942790641
0,113119812244127
0,118283156344904
0,114499537335188
0,11893829436923
0,118501801855616
0,118340317930478
0,116863824390097
0,11752766849893
0,114654357273142
0,119892205902112
0,116298980847108
0,117029606216834
0,117569109041428
0,119955885883271
0,116174016829622
0,11707196728765
0,116034906333896
0,119753647248712
0,116465130734589
0,116551673413479
0,119465869764876
0,120285532943039
0,116669373846885
0,117862246657404
0,116147714609295
0,119142791815254
0,114393860355592
0,119106901973719
0,115969296200606
0,116529498169368
0,118767883778174
0,119600613208158
0,11452280468751
0,118274853271262
0,116404598868226
0,119715584376128
0,114343271752877
0,118822075962519
0,115360323764325
0,11936217967859
0,111955453846147
0,117072878891831
0,113767925855551
0,117067091392464
0,112936883459011
0,11792328790234
0,113289502551675
0,116513757806561
0,115791597885756
0,116710773597252
0,114172380105722
0,116259602251675
0,113312403958065
0,11576902294145
0,110311162434973
0,114709247581834
0,111904280733879
0,113287825311161
0,111147963555717
0,114941749095811
0,110796776849772
0,116057912500848
0,112892129168211
0,114108689870194
0,113173911339778
0,11482534560139
0,109913576487407
0,112270852431498
0,111128816060441
0,114771358029596
0,111018080515223
0,111583327961007
0,109192515514668
0,112908617237154
0,108909526734529
0,111113677770491
0,108481965915926
0,11177561078971
0,108134603396833
0,11214707433073
0,106171274706195
0,109901467770694
0,107795228295358
0,111359372947975
0,108291844248514
0,109087775489983
0,108540001880116
0,110464695391002
0,104814974905575
0,108082579590494
0,10705453543865
0,109571731069315
0,106496521387896
0,111179438167717
0,106200533405017
0,109155888310676
0,1034219067672
0,107339889282865
0,103179568949311
0,106873476596283
0,103950810071018
0,105683625293765
0,105465526588301
0,107656392821971
0,102434475508035
0,107179491881151
0,102417195517195
0,104663137360099
0,102245255135866
0,106241824053873
0,100402446502926
0,10770709059445
0,0999847723060923
0,105081793531551
0,1015674830005
0,103644058716188
0,101121845386879
0,101104268545524
0,100916796442034
0,100993330189489
0,0989057255366668
0,101813242291993
0,100346215368876
0,101391977988586
0,096688445367177
0,0998281852393312
0,0993529444132714
0,0992959392893633
0,0978921016285037
0,0980893950947707
0,0986503105157518
0,0988816755170565
0,095417240508648
0,0964890403790098
0,0958324338776551
0,0984098768785874
0,0962926171575284
0,0963099055278423
0,0938205208809197
0,0910458590207304
0,101352777722691
0,0946266664586804
0,0967296651034633
0,0980490631099916
0,0949598100794705
0,0924195945244371
0,0925296904912756
0,0946030157665732
0,0927980944175035
0,0935450577335307
0,0932043167659591
0,0930265407993424
0,0939641116766105
0,0946601382685245
0,0888806721112676
0,0926600095210705
0,0921082780369039
0,0920458912343225
0,0885865743822448
0,0912916779033475
0,0910252022289374
0,0916454554355006
0,0894483639238021
0,0892086430111283
0,0888161800861834
0,0899938614456007
0,0907585098273079
0,0920511943753092
0,089711345468475
0,0920294760988157
0,0883525726158928
0,0901499308265474
0,0845953093133456
0,0876762669158264
0,085390394068032
0,0887546051789064
0,0863102776912565
0,0876862981436291
0,0859388722018054
0,0898362212314225
0,08515249672188
0,0877418286656495
0,0862375285617723
0,0878046288371836
0,082320389480641
0,0864472841453805
0,0849042434783469
0,0889983238242914
0,0832199239959572
0,0882784329041423
0,0845214533513286
0,0888746047004752
0,0769955115404831
0,0999911680855452
0,0799758642786789
0,0853105096381259
0,0801525086889722
0,08363464531844
0,0817865198777758
0,084292448014644
0,082662333880422
0,0838394396501251
0,0811963682566739
0,0846286203039889
0,0806531154730531
0,0846425332020091
0,0816009362393015
0,0836717847137979
0,0817640412115335
0,0850416183236175
0,0810204848515972
0,0828642033178802
0,0813989984897691
0,0783253122879874
0,0830070058128606
0,0867877248615303
0,0749788313308877
0,0847240732976521
0,0730565727972823
0,0877515249864919
0,0876645760190222
0,0737820839935263
0,0854091343367338
0,0766216029913254
0,0819018183667268
0,0771002689626549
0,0824099945328256
0,0737941803259491
0,0843353371769253
0,0791139821649338
0,084108008381621
0,0792960913063453
0,0764691609536761
0,077625354108662
0,0794605958266566
0,0796980355083341
0,0778624507883841
0,0753158604693113
0,0757442780829937
0,0779773898345136
0,0782867449581732
0,0787772516540639
0,0771953057316386
0,0736810554715093
0,0820728348470066
0,0743834141680758
0,0771484032897471
0,0740517351890047
0,0800857250045964
0,0751705142528761
0,0920252729687894
0,075453106555519
0,0760767375782734
0,0778110077054423
0,07610363336488
0,0785156504148864
0,0752371324461049
0,0775910689270093
0,0755736961594544
0,0781200227364854
0,076078923813958
0,0784544816718023
0,076166212820671
0,0789157955343864
0,0720957546264602
0,0789095701316248
0,0725716517495904
0,0789774647484351
0,071343070212567
0,0788363892723862
0,0747517818113639
0,0784786272489294
0,0913575260185571
0,0746127332368244
0,087047070877009
0,0779703027584379
0,0795507660006379
0,0730843427945392
0,0782477754341369
0,0729865670528263
0,077267943643732
0,0741644521092429
0,0768725772192956
0,0750705426899911
0,0780439278290655
0,0733566331387983
0,0778614617218331
0,0736097347969868
0,0778880165426224
0,0734885534940799
0,0790162188239945
0,0746725253912336
0,0768336131946988
0,074279274680032
0,0783599657650109
0,0833734774523151
0,0754573869943497
0,0808766500962123
0,0654863585321154
0,106080391243526
0,0654553686252494
0,0862202821355479
0,0734327251630454
0,0812363247866471
0,0740768277443076
0,0777444297965936
0,0770850228131742
0,079135157723503
0,0747907142817397
0,0797518132396624
0,0744472439493703
0,079466731874879
0,0758578327723914
0,0765945497170818
0,092486897779189
0,0847209884554899
0,0708553840974763
0,0848644876695069
0,0667719712806631
0,0991338263308781
0,0787089449092427
0,0775579758535429
0,0831206701749091
0,0785953265920283
0,0801152236687306
0,0743960393852952
0,081736917058343
0,0803201304869153
0,0805548657135541
0,0760853170681528
0,0818748635024938
0,0785601966104737
0,0802528709146012
0,0827636984531172
0,076407637241097
0,0883370714781927
0,0823138343750481
0,0802001812085553
0,0859761376207289
0,0800030840645994
0,084262828252771
0,0783867122466257
0,0845848786310584
0,0818887520381694
0,0935206213510048
0,0852330412126951
0,0894253750774756
0,0898717731652854
0,0826289014424523
0,0822632792793098
0,0900014758934518
0,0815377287286954
0,0943083632899149
0,064291588145233
0,114667172141898
0,08317756943098
0,101913194534666
0,0885646150324931
0,0868630750692071
0,0880576798178252
0,0847845829355185
0,089207849746862
0,0865772445657103
0,102575629907648
0,0746343418240637
0,0992429224982469
0,0743694998913937
0,106085516240028
0,0856435131041267
0,0987924702585061
0,0868696632157525
0,0956232149993181
0,0876013027226546
0,107401296838191
0,0814222589294657
0,111451014563575
0,103126203826406
0,0967659736148396
0,109316601753747
0,090681227234067
0,10453002438014
0,111194425241029
0,0920398045546101
0,110345671702207
0,092455566805102
0,108037738760213
0,088982743584223
0,123179845514235
0,113798007955462
0,0950403817021057
0,107569887425437
0,106836288285464
0,110907153752328
0,125032960887963
0,10454064725699
0,115349719867131
0,104790911233277
0,118817432652119
0,0935773170673238
0,151260891466887
0,0952704718532467
0,146802954318959
0,11478631654928
0,132412540043303
0,118308593433317
0,132403712592795
0,119968343228747
0,139616568327787
0,122301288624605
0,130596624807973
0,116551335663357
0,149579536702558
0,128585839772034
0,131670000231317
0,137708041974853
0,123733703189172
0,129011632593691
0,169303659909571
0,151295920142276
0,149125083091647
0,140599355125458
0,156733168216842
0,157400346653483
0,147301472181557
0,15306980494635
0,148532607788616
0,154590045601919
0,160853506206026
0,159922523263018
0,16738959918977
0,15731877464971
0,175453929479795
0,157424089537986
0,186296414522822
0,180429233776999
0,200661054266475
0,187401476330222
0,175176645893948
0,204870600669212
0,1856159797238
0,198647144265161
0,192212603675946
0,199800641889105
0,205444886838653
0,205731378370061
0,211652789649559
0,203277679136369
0,235987149298657
0,216158809273916
0,245480930435328
0,227623079034422
0,22682120596583
0,23048088162539
0,246701201689941
0,294679727254888
0,227643624572975
0,272303632403052
0,229603959695778
0,31273279603802
0,278804468932487
0,266881048643207
0,273888090156415
0,286976123246592
0,28269656954112
0,29982679318195
0,298215932601845
0,3141618688636
0,308882732942657
0,313661493562299
0,290930639162879
0,378161529754403
0,352425930317013
0,348835712905192
0,336455398141617
0,355285329752356
0,355918136498281
0,364680291137146
0,354136213483914
0,377912482507102
0,353391378761641
0,422982727937809
0,392228247107235
0,39282879394983
0,40546604692376
0,399823858520779
0,431598575500084
0,390604343678499
0,470964124364954
0,41616248735058
0,446158213189795
0,423304158675104
0,450972713420428
0,451291786379178
0,464967443790816
0,482174322791872
0,465358444347093
0,473838243907195
0,479349618848608
0,491272196582563
0,489218417445051
0,500961339302885
0,507745406179077
0,497500714696615
0,573678474895428
0,545120867644274
0,577303146851651
0,517154937609118
0,538847907016138
0,528054281377264
0,552604524627688
0,578678183407087
0,55148186749994
0,583448766015207
0,554933059242591
0,557028916570984
0,565212112259911
0,565417886319089
0,575114837097775
0,570093486625493
0,584528117423191
0,556609428872663
0,599367594667692
0,529934228719247
0,668256129905539
0,594623259723611
0,579132381121211
0,573592562291391
0,573860478058777
0,561442030017305
0,569755863392889
0,565766591932425
0,585795381125736
0,57086339217617
0,543804669247449
0,545002563641322
0,540465385388442
0,578662209512375
0,528391325256395
0,515814567450368
0,531757592433606
0,51119184961741
0,517697024697486
0,49949558628069
0,543897834095975
0,505520548809299
0,479674613993394
0,494088063249321
0,471528662533008
0,47219911236002
0,465951261814025
0,459274007377484
0,446363695291986
0,443032568184194
0,433673164712777
0,43978075936455
0,42130386384503
0,418616304663885
0,409489821575877
0,412384667062655
0,3977897881306
0,396737137549859
0,385830175954107
0,38370406442284
0,38044188214
0,368020833295307
0,365991633062645
0,366918817313591
0,360338819362725
0,35733935161932
0,348007491972772
0,348597005622634
0,34248907932364
0,341930975924344
0,33282790695564
0,329408125798395
0,32337750982535
0,325283198154842
0,313183905456411
0,313193921301136
0,311667443230007
0,311169269867031
0,302349586421847
0,299520009362342
0,300062362401802
0,290837498125871
0,301908225808488
0,282754739383159
0,317952461151261
0,281293245053035
0,287039402611477
0,282804233264609
0,273036219201171
0,278652254374625
0,271236961756917
0,302386888381106
0,265208470307145
0,267292418559744
0,270678496327501
0,272440249042723
0,267694900762504
0,266200416848527
0,247027774377994
0,270579270662232
0,220717580722912
0,310029608979866
0,263047960491422
0,305171432993761
0,263297362532579
0,244526719551947
0,252688336818712
0,263450795204106
0,261941397693324
0,228636570412365
0,250925946412179
0,226583171478878
0,25851870555323
0,237725751451479
0,237013998129293
0,239249417672424
0,235986132522087
0,249604839373121
0,242674094739331
0,225777939314351
0,252606629406916
0,244313348561224
0,224875204552078
0,27763358864882
0,24499868480196
0,229933083677252
0,219613216804398
0,225432151519916
0,229824154299603
0,225688298503697
0,244382927437014
0,21717738390514
0,224399453265624
0,211340654971582
0,222746720141041
0,228259343558898
0,210645755487157
0,226200548845268
0,212764473937518
0,232355617516301
0,18835969340589
0,238418251202838
0,218591979591061
0,254833244454343
0,210461540805338
0,21377178402235
0,213609924765834
0,232520694576005
0,228174014908675
0,212376979297139
0,207708810507382
0,212575071462388
0,213921051076973
0,218136020326648
0,197203373967297
0,22013509177562
0,216703822954974
0,218674569835101
0,233107189866208
0,230817985430966
0,216200084523355
0,201935546400928
0,196890541577962
0,211608664119952
0,190846706358936
0,206858499136342
0,192819547318088
0,209100191867409
0,205316619824984
0,202574889011671
0,210362692310081
0,193595300865272
0,195874474522793
0,198926898939875
0,193165263267593
0,210298187024787
0,209154923451841
0,203013238982078
0,193422181365858
0,197552401170503
0,204668616396896
0,190775885168169
0,202190487774374
0,186498975535813
0,198993824292401
0,192588865056373
0,199564245330863
0,195623924010776
0,193073310595438
0,188328198320072
0,2078029100144
0,189269925058541
0,205856562451805
0,170089833544127
0,228868090778664
0,197258066762886
0,214330168776249
0,189066055115453
0,190378404434959
0,19512432362118
0,191126091359171
0,189068405989103
0,204091322425003
0,191773876124616
0,21147151648484
0,184424541674377
0,200385572022953
0,184810545591817
0,207112383188674
0,181671601588995
0,215635289108881
0,190667409872039
0,21695700547908
0,207874434016152
0,18941823125219
0,196505867230695
0,188525479500587
0,194784868008689
0,191873927481752
0,185218087610658
0,200954959050626
0,194325434985161
0,199684998241978
0,191619999799269
0,191695166913202
0,189718366608724
0,187777349089379
0,188309380860345
0,188897394124909
0,19243546465282
0,194719043651457
0,183740240867595
0,203651355618216
0,192126937560011
0,208878217207036
0,187048415773344
0,191480079829684
0,195085777942755
0,188328259759287
0,193542086146667
0,197669546914995
0,193558431539184
0,195792932840071
0,189445373385987
0,193267062960444
0,181100682351891
0,201348507546126
0,186426059617605
0,206126127805074
0,179244077737145
0,189587872816717
0,198101607760488
0,204436149087041
0,203088953867203
0,186080392421113
0,200654198974137
0,186358463039942
0,194863896816251
0,182270157569816
0,195835560828407
0,188023484108407
0,195008010153662
0,190345982514374
0,191063613898482
0,192069895789148
0,184948825962367
0,196717168079858
0,184688175096991
0,193971328348308
0,186584946539822
0,189999044505616
0,185629627310071
0,190646206321695
0,192693017190379
0,201970901174587
0,195117128993377
0,185794058563435
0,198475397487088
0,202610925885863
0,196339623925589
0,187901145141522
0,185304964414202
0,187666289733045
0,186331267028908
0,180483230304136
0,19360190089889
0,189732881846474
0,199856490614064
0,181585128102252
0,192993842563825
0,181705680542323
0,192328192200506
0,18841743103598
0,195331708911971
0,181660100104303
0,194000006950821
0,188613494378359
0,188996658955291
0,185326840802877
0,191709784811525
0,199956246673155
0,195696641856651
0,191500004600296
0,189385986903039
0,186173420126186
0,191576629099737
0,188598078851588
0,190975282705562
0,183176519208371
0,194711157856013
0,17656764559046
0,201679088439735
0,189093389670412
0,197378752178712
0,188976253535326
0,18710385484974
0,186553158511044
0,184689014680465
0,187651513657478
0,180237043386534
0,187609335540213
0,187514369652774
0,185873948672562
0,183081279685459
0,181422099815341
0,18499343289535
0,184018230993479
0,188185127736961
0,185941006587102
0,183675787354005
0,184212991700186
0,18618130245123
0,179176412553781
0,184183355688481
0,181140836331283
0,187895326008009
0,190246458456791
0,189921219423581
0,186516098257037
0,185744652267769
0,191687567123861
0,183915071192401
0,185947222291871
0,178763328818853
0,185575393611609
0,179577549917033
0,181811833764265
0,181308519782981
0,183398120087975
0,180092530418352
0,18238283261425
0,176762430987986
0,184475503459325
0,182302506516808
0,18393981076161
0,180067674275112
0,182821824131075
0,183430992470376
0,181229922324518
0,182053593646502
0,183984394394007
0,18916482621531
0,180932938308386
0,18390978640116
0,180344747617632
0,183240930603894
0,185269993131679
0,182073574408124
0,182851037901309
0,183905180457769
0,18402830140323
0,180653045289049
0,181550800475489
0,181854380630832
0,181723391445202
0,18113487102519
0,180121736786988
0,179193512824239
0,179218578184391
0,183053771031949
0,180405683797238
0,179917383743011
0,178788460020378
0,18296923385173
0,178503016706625
0,178039971157048
0,180480241563439
0,181546951136828
0,180494206419874
0,179213717872782
0,180394103996083
0,180345973289911
0,180239851819375
0,179915525269072
0,179592144961076
0,181108040415752
0,179541795522707
0,180023440977135
0,180172118774761
0,178251996428371
0,178886067304994
0,180547432304667
0,179507527675958
0,177918656906821
0,178242787403421
0,180147904879776
0,178346734545848
0,18018636999992
0,178262274007126
0,181628658976004
0,180557066706747
0,178117541440436
0,178277449802357
0,181175500090923
0,179299300887397
0,181209178289702
0,178375323535818
0,179259575870562
0,180287653386823
0,180251663220844
0,176941006099513
0,180115505378053
0,180491677620452
0,178887940438599
0,179030003199864
0,177879356766285
0,181322592363365
0,180151262585475
0,178889188674911
0,178721494653087
0,181975162767293
0,181399754009018
0,180790362438743
0,181168488342302
0,177816489992093
0,179716158997908
0,178347820917987
0,177279079793364
0,177682137672215
0,183110654901548
0,179448952614368
0,175950169274749
0,178537858402579
0,177844675098187
0,180575631579133
0,177843141561199
0,178068002365039
0,177161975268329
0,177921161971015
0,180057006225504
0,175614540117188
0,177824668251786
0,179580574253088
0,177808960602034
0,179241668612405
0,177311569849442
0,175705881312163
0,17908903069264
0,178361158735634
0,175641653821773
0,177471739835485
0,178913849398065
0,178116284527052
0,175894253180377
0,17515991771511
0,17781052032732
0,177642200445562
0,178259561134083
0,17429876809803
0,175942686894034
0,176434513921009
0,177464425060612
0,175968826382694
0,174259478851169
0,177982859215072
0,176599391421378
0,1745611354653
0,174027390881253
0,172751678525324
0,175574468972865
0,1736282302592
0,173876279335725
0,17471554187868
0,1775892871222
0,175152200326929
0,174523542402094
0,173135597026602
0,175427303222045
0,173610750091505
0,174437349408905
0,173384422560005
0,176186875166014
0,174852400558992
0,17382273990019
0,172133511117819
0,172862992874603
0,174222275906569
0,175272067017868
0,171837182200262
0,17285709152117
0,173321352176035
0,175108258742467
0,171432584848352
0,173312928508918
0,171887714358772
0,173834201228604
0,1745678260063
0,172935666518938
0,17073844218057
0,174439242165093
0,174314457743188
0,173970566590731
0,173081316478832
0,175243282408532
0,176360060683456
0,174847430045899
0,175501132066359
0,177830883709917
0,178684226124927
0,179352784228464
0,179085445549903
0,180112658170448
0,180193317570996
0,182805159954847
0,181164583663783
0,183889417749278
0,184577094414881
0,185445371759755
0,185347839116252
0,186212506035636
0,184810693195174
0,187729385278698
0,188141125209121
0,189525157764953
0,186091676564821
0,185832358416614
0,188580560918037
0,187284998335811
0,186683941865276
0,187610827430847
0,187399746573023
0,188777674152001
0,184722216825998
0,186734058555901
0,186544423754062
0,186898115883585
0,185701854154134
0,182838577483718
0,185410021763867
0,186345419229949
0,184040075360369
0,185120975220431
0,184267320664772
0,186954252071534
0,185086576890808
0,184585717076672
0,182989788738434
0,185816242354174
0,187680200057419
0,185682579027799
0,185949923776137
0,186908073360496
0,186157817757481
0,188892274754128
0,188060135425981
0,189985224897455
0,188693756520745
0,190899970785471
0,191426779098569
0,193405845035662
0,194155284335914
0,19443855972176
0,196022640016481
0,195165963732114
0,196831298354067
0,195381502111405
0,194781684738882
0,194156947113953
0,194487446238292
0,195850349397216
0,194817610648927
0,194418947685737
0,193111125768378
0,190752623655818
0,193649113141155
0,192343150080606
0,191377621713237
0,192977013244526
0,194790940149265
0,195002663542937
0,192773745253385
0,195425885681914
0,195996711683225
0,20073756569348
0,197937394930364
0,198799420673219
0,197879072083764
0,203481320033954
0,2019081601716
0,200597743116696
0,20532808065708
0,205845544104025
0,205966006477424
0,205061996380565
0,205075685067428
0,209266276950146
0,208788943089277
0,210488310042399
0,208245424648149
0,208323637978938
0,213902072241423
0,210816486677963
0,211508332056967
0,216118699453072
0,218580209121014
0,222046970482263
0,217560249253346
0,218495436670954
0,222740490618022
0,223564508447474
0,222912359604625
0,224363292553037
0,223884805711592
0,226325086211024
0,226234705387027
0,220459397064085
0,221488448411976
0,220331994053107
0,21871304924294
0,217869807356635
0,216475249008353
0,215642936994853
0,217065362146571
0,21311537360675
0,210601704551324
0,213143778473457
0,215166593184154
0,214036707869725
0,213433226677931
0,21255141645156
0,21329774616135
0,217160698296702
0,211424919728359
0,211495880870979
0,216490022719223
0,218556436314785
0,217064411658313
0,216416463837349
0,216256594257932
0,220580945455068
0,220811788161674
0,21960891965361
0,220931877591738
0,220932408404879
0,222461012998623
0,223043397236907
0,219029585059481
0,223056688998494
0,226920596569063
0,224534135861987
0,221747280201759
0,222235885842754
0,222423710842479
0,226988661171279
0,221800575425219
0,220463582703004
0,223502147311032
0,223388932575748
0,220348279092341
0,21704473014673
0,222313082506182
0,225238736681387
0,226428799977241
0,219989785427441
0,216745317177729
0,22301271828385
0,220937292006091
0,219665554973436
0,218948146186851
0,221592037644267
0,221643698011978
0,219828506815097
0,217242037292083
0,217218011422621
0,216163327476312
0,213270109090596
0,21462189600052
0,212041126126101
0,209943932289492
0,211466980013609
0,208365079861998
0,202649833553663
0,207042791498106
0,205869140901436
0,208630606402043
0,204645093103974
0,199869115497888
0,205166232091358
0,207825313504508
0,209466849977165
0,208277997084828
0,210592079120551
0,211993025611718
0,209225019204272
0,205135467299845
0,212430542029133
0,210053563600056
0,210425471120091
0,208350642427881
0,210515013459581
0,212894369917346
0,213083746524761
0,210691254983345
0,210941348732611
0,216158979391713
0,216277621331513
0,211144891366374
0,210672150070507
0,208710883231498
0,212906102128566
0,212241440325383
0,211464493077714
0,209715440755589
0,216678863284244
0,214049336150053
0,212206972935678
0,215260861007158
0,214770283986363
0,214154165759055
0,218019720706256
0,211543976594312
0,2157730880631
0,217548764913344
0,216488410292444
0,216031032630057
0,212371285500816
0,217856998921918
0,220581659542093
0,219053559860239
0,217348397794071
0,221688079490819
0,223405397462536
0,220998906528073
0,22157566684716
0,226559085944374
0,228199343766732
0,226824980242012
0,22558799821215
0,226998462120545
0,225970608291267
0,234509089772541
0,231505147717932
0,226949740052585
0,228847415898202
0,232639114333416
0,234737260824258
0,233175876967949
0,233393090121179
0,241122434687773
0,244306113974884
0,238969072437904
0,238313446661462
0,238905002888212
0,243507899932214
0,245649681551812
0,244587089531389
0,239824450117869
0,249622252373575
0,24890581323402
0,247704088503086
0,247501236893508
0,255121980061018
0,259871776410542
0,24997076955239
0,250812206995859
0,256028590642004
0,257492591045642
0,260652520181366
0,260250832023077
0,259414067924308
0,265271897311434
0,269342250335633
0,266426612050868
0,266718462105677
0,27203088582561
0,275839499886653
0,275554998320523
0,273492960858961
0,277165713445794
0,285114460975431
0,282399773673427
0,27830138348382
0,285081340049981
0,288930545156856
0,289606750354396
0,282785809681549
0,290677966668458
0,288912641434228
0,299476870931013
0,296298756076282
0,291897814594021
0,300209098228661
0,305127703633729
0,305335507189937
0,302419642041905
0,305206069106553
0,311411989402376
0,310791424217993
0,312785529958175
0,311033524370428
0,32263053422736
0,332225931153557
0,332817391400621
0,323696296215297
0,322485833972571
0,325479373506783
0,338393494641976
0,329909771907389
0,32869893203157
0,340493994433364
0,35432372694378
0,34527549579013
0,33427672330956
0,355480462415741
0,354325756042079
0,351549337405125
0,354188386960246
0,347839137177857
0,370526677327993
0,364686820856939
0,358821912925179
0,356759878119395
0,371483695614309
0,38543959854918
0,377354639005484
0,3629171364846
0,367878333962327
0,385533981996723
0,386146193850225
0,383373969611168
0,384743919339538
0,399034576405385
0,405231249296395
0,392934352200052
0,391710605344009
0,406728554253791
0,420218905951906
0,414857860132783
0,404294770435551
0,414221690113002
0,417779038101068
0,41793101485435
0,424339193425209
0,411211688391364
0,424963764160202
0,437514862236295
0,436523250721092
0,427574083133343
0,437022023931239
0,445055967246759
0,447297366614152
0,431171483702998
0,439139617584634
0,454930074009812
0,459487784791247
0,446954584552193
0,436517142746085
0,465480713434642
0,47672795159191
0,470902044516103
0,463550954683898
0,479591240921103
0,488844036442844
0,480594791203777
0,478418678443028
0,479507680834164
0,506979628165836
0,510533728643832
0,50025538434289
0,49187204020182
0,514839683146416
0,51856425194989
0,514179103171296
0,492588802384728
0,506447741222263
0,527561949660116
0,541659371151743
0,508378542150465
0,510713540561838
0,535027633270124
0,563582275928935
0,541127980040765
0,527275195237054
0,531310195766726
0,571347350460511
0,554029692546959
0,525164933208859
0,531409592288096
0,565751219466232
0,569267456539107
0,564097428314814
0,532346427924866
0,577203689728242
0,600533943017475
0,57708650802477
0,566986528307764
0,581430614012083
0,625313187826882
0,612543688198642
0,566698203895967
0,575834949138295
0,627509662181316
0,657924722354922
0,612516120757766
0,591909788082461
0,621522113241203
0,649622923459186
0,618568119789424
0,591899741915435
0,607451032204152
0,639080604553309
0,651998192777657
0,619382212325649
0,616539324929016
0,649513394580525
0,658745208510499
0,654040714327332
0,62560915024077
0,664992604599726
0,68899589494003
0,691043685711628
0,64631232482653
0,662046709451451
0,729431052628247
0,702564896140264
0,651068058095132
0,661435300681165
0,721857803867568
0,761739142059056
0,702807460006374
0,687561573522181
0,694410889190646
0,718522842312739
0,728316248611923
0,661449286310804
0,663330115578975
0,73478097782791
0,768511164616748
0,712753081519278
0,696868919666491
0,745467240406182
0,73842275681915
0,704886476466404
0,686419438253885
0,753059225128482
0,785392033886264
0,758606158159602
0,687639777757436
0,70844293446246
0,785930110964333
0,858066644695455
0,743597509623393
0,697248668533648
0,784325178415541
0,905429614658891
0,834070948033286
0,728487318626705
0,71980747783613
0,831736260452889
0,843980248328699
0,751123909521628
0,708987501761809
0,866829014783108
0,898587778620399
0,809390868652702
0,679544517916074
0,814839269858179
0,927936060838529
0,875671345129473
0,742486200755801
0,798233045402361
0,912858073301521
0,95679661449189
0,797425783731539
0,757499581177679
0,837502896255955
0,950051694936909
0,835249698166287
0,76703855828186
0,778770512527584
0,946300579837281
0,934087311769964
0,812572560874572
0,727655418715936
0,99717420956795
1,03403715999999
0,912285860109264
0,764517383016649
1,03487384292694
1,03965206743486
0,946288087350723
0,841723754723591
0,829011558722835
0,944732559710646
1,00232130002959
0,780592831859428
0,781260464542687
1,07378572671324
1,15291510853968
0,862266120303747
0,793589323832041
0,89725723271364
1,15351949595396
0,920407531923332
0,811789429447437
0,933407246437726
1,2681840127344
0,957583635756989
0,726947875735891
0,739670265395286
1,08288786823966
1,31816418487606
0,952564344361726
0,822202326860514
1,0330434042623
1,40836254371996
1,37776165665004
0,789265459848244
0,836904586654881
1,49754855768843
1,73677789579292
0,844597124755819
0,728085805956522
1,21461297650666
1,67639852558563
0,973433739414947
0,761309624762188
0,702495329500282
1,11391038880137
1,78468810812923
0,851303431697153
0,825324676704024
2,46006919494916
1,677466988442
0,967522349743179
0,679970611075937
1,2428611946258
5
1,06527484572566
0,701206976466306
1,36239359256649
5
1,39389800138659
0,615737551411491
0,579197792447833
0,970777595931504
5
1,31388146220101
0,455126746702868
1,31855270124559
5
1,43552634330755
0,613141826860752
0,704713488565248
5
5
0,614648015649265
0,511339919911297
1,2749522122715
5
0,913131319427735
0,383056909735205
0,739505978761226
5
5
0,387104413364673
0,703626049056283
5
