3596
4000,36533379555
650,420452594757
1
2
2
0,00884394357170125
0,0116408135858271
0,0149094454735826
0,0184547785764897
0,0124964088988613
0,0110398126141394
0,00918411446499726
0,00607981861235452
0,0138794155023293
0,00732926399597896
0,0133018200115082
0,00932487467470583
0,00210265360629138
0,00823810749207172
0,00595879431254237
0,00501621339656803
0,0148495955157875
0,0146400992096453
0,00978782765043056
0,0174729756830723
0,0148033955508658
0,0170626884927992
0,0117885653548367
0,0107311142634893
0,00703239065726192
0,00340246628359608
0,0139912362312398
0,0154837709940254
0,00700391262355832
0,0062350995604683
0,00671124341226382
0,00511924223444758
0,0121958655932538
0,00561239750619952
0,00612600595512944
0,0131391040138425
0,00954368074688273
0,0102249220026285
0,010953131009239
0,0109166316567772
0,00992489131668176
0,00400402522615484
0,00903806756057977
0,0103820882977646
0,00986426744950118
0,0167637120637839
0,0131097597914896
0,00831765121431495
0,00976656852517203
0,012166386810227
0,0147481651023441
0,0129305117724794
0,016861612117442
0,00745422480627865
0,00841097872625507
0,0207518844359279
0,00752790716695003
0,00576234954662999
0,01087399671278
0,0153908032558431
0,00965474022996233
0,00482611368935837
0,0162729087512751
0,0117664749750101
0,00911710476074453
0,0162530431117729
0,0143955798598517
0,0110494577565253
0,0117336290316325
0,0083304812646604
0,011911582650016
0,0141651748320491
0,00992006204943229
0,0139390926251513
0,0149485426542226
0,00978586453564871
0,00712125070878763
0,0117452506077756
0,0155245046897497
0,0167295105596685
0,0178736563995271
0,0161890729006685
0,0087353984716253
0,00507407327160866
0,0117505282221761
0,0072928424534665
0,0131323380588694
0,0151327927805459
0,00278510465845223
0,0121011415028925
0,0119728681733895
0,0121576498850081
0,0158231981620079
0,0141103764815457
0,00851345995732426
0,00881825496730401
0,0104559423812072
0,00995171540638854
0,0115884207516924
0,0105809461647705
0,023676847697202
0,0261583656506054
0,00938261678583966
0,0133421278937347
0,0118192076544271
0,00819235413588459
0,0191984878620925
0,0115346084723756
0,00934459618803141
0,0173500803065049
0,00778871167554136
0,00472372123585823
0,0114605687378908
0,0128790653597465
0,0125656042109492
0,00621038236445372
0,00664548449044798
0,0131443572907496
0,0158333141719704
0,0151714157895734
0,0121232552328717
0,00923839458050687
0,00896137486087298
0,0103003149628217
0,00832923045179624
0,00597416269157007
0,0108767865655415
0,0104829974658646
0,00878755671717278
0,0107996144325454
0,0121330574204945
0,0118749258527953
0,0156501268966909
0,0176362458208061
0,00996168278337552
0,0152744596923942
0,0134969577947258
0,00900831634854285
0,00315517808098991
0,00671167461943226
0,0127644305178049
0,0139446091752699
0,0106807785561115
0,0146026857763129
0,0176860495076939
0,0148750833531055
0,0150122758144199
0,0123929671226115
0,0117546561326871
0,0145206167446008
0,0176322837696918
0,017139406878144
0,0129350836921691
0,0123462009553683
0,0146525129314432
0,00905437547849224
0,0116980805498954
0,0117952090914313
0,0149249716885069
0,0139003277352364
0,00851138627899884
0,00713427480904225
0,00420167190282147
0,00798134156335861
0,0147324756315977
0,0123409843753385
0,0129774330549967
0,00734436756460829
0,0145638234374072
0,0140503248918112
0,0196028854213729
0,0178184786612474
0,0253770563953506
0,00604092359863012
0,00588911853376878
0,0165775047147737
0,00333035416768384
0,00579604991279367
0,00448651593694223
0,0134643201049597
0,02275438006461
0,0131414917782246
0,012269008869787
0,0174105827916765
0,0132921735878593
0,010090328000721
0,0116929910948918
0,0161374120326912
0,0187238299325195
0,0126406220909317
0,0223414705382915
0,0166445423145447
0,010448027018809
0,015885628897984
0,0158778845110038
0,0112707674105899
0,0203921444130787
0,0137603622958088
0,00950086725488794
0,0164960593790032
0,0159928376544539
0,0186280492158917
0,015920496343434
0,0101597261540368
0,0146822556842158
0,0235975307952679
0,010373408896275
0,00935132704023466
0,0189462122980602
0,0104601281452964
0,0107269277082544
0,0119834101100337
0,00404123112344485
0,00902398463190297
0,0128915321558191
0,0212252217121798
0,0182799527932704
0,006033599012043
0,0123118117600615
0,0203735232900788
0,0234759371156657
0,0214696799773712
0,0145525451490386
0,0160366159493992
0,0223626357529846
0,0179021165330976
0,0186937999176672
0,0202931995638723
0,0166560958286615
0,0231217209234681
0,0226166162030259
0,015613108630837
0,0198061529739173
0,0155913431932284
0,0183255827110475
0,0170939810450688
0,0182800891449772
0,0193899662733111
0,0175234315599397
0,0154451924380063
0,0214070371355019
0,0188005975497433
0,0126787060906529
0,0140727199744567
0,0151112487498798
0,0206004357920146
0,0248306786071369
0,0174223749307295
0,0181388853811632
0,0251532387095309
0,0225516324264542
0,0166888231888475
0,0212862873443213
0,0211204669255071
0,0146110440281406
0,0260892121591509
0,027696564456266
0,0207667103796005
0,0136903665544891
0,0201591963134867
0,0283615984657621
0,0198641268034018
0,0194541656729797
0,0233500572247877
0,0260893570177777
0,00928327118591889
0,0100598567762528
0,0163532669582874
0,0157807853615442
0,0247569296125646
0,0163649210870768
0,0208373213256699
0,0351251695211327
0,00641086175227066
0,0185809221289155
0,0272533952265346
0,0274705118178394
0,0286492735258462
0,0368692214395582
0,0302476704897852
0,0263977755188152
0,0266205704187939
0,0289552594937613
0,0245391621073324
0,0169196483640018
0,0347949049644446
0,0227368914540648
0,0207700846746391
0,0316669940675008
0,0308222353292571
0,0316560552586169
0,0285567463881559
0,0234018796449632
0,0314638433494156
0,0308198777586908
0,035136904422946
0,0289058417157467
0,0337831119151186
0,0371569804942666
0,0279812655149542
0,0372543325676582
0,0388128297303278
0,0289108835492337
0,0381839045813474
0,0433840548553366
0,0366236153906503
0,0362605526627417
0,0454083916189038
0,0434485218977304
0,0437801879521829
0,0522603192238626
0,0474822804523687
0,0454264722983031
0,0374137228148802
0,0424691897129116
0,049321049057217
0,048652721852988
0,052588559388161
0,0483540745014455
0,0545541925312673
0,0552975646591221
0,0564197902041011
0,0591029048706924
0,0627826926393631
0,0641432609952622
0,0571508314938463
0,0677508379307655
0,0664078266881994
0,0642084764733825
0,0745918353574544
0,0701851891194946
0,0765980244112088
0,0781328481789522
0,0821385891189036
0,0766282659244703
0,0791731316750741
0,0860267543271502
0,0806431166986833
0,084479431330939
0,0901294468701672
0,0864486190357741
0,0979761624964924
0,0960117907645113
0,0917427638534351
0,101519475902036
0,103485087439634
0,114397012773268
0,109705424760429
0,100904432150754
0,111651810370273
0,113520610297572
0,135643619807696
0,132857112990277
0,123314569866764
0,131215298925972
0,141566889451691
0,146038246597041
0,142711593476033
0,142175115868142
0,154656224267517
0,146641899978667
0,151463307377096
0,164526110899297
0,166218134577094
0,170479422537145
0,180741881372043
0,185539413463002
0,198485051644055
0,175615742971995
0,176912494936352
0,189988155333508
0,180282902254221
0,201654191285511
0,208162921030406
0,219093358037703
0,206451696837484
0,209739024028474
0,199151756363558
0,212953170674449
0,225262068124464
0,217025474750102
0,222811308875244
0,23268489176875
0,234502594611056
0,228331233294759
0,248520055870912
0,249539158764944
0,259221550855251
0,256293909322486
0,259050535595988
0,264436924143675
0,275999746981777
0,265919449194187
0,278157586849383
0,266609831847768
0,28116828145996
0,283741095570429
0,294198537147342
0,26943725699476
0,268612510883772
0,277872864241997
0,287981901999048
0,297437506639341
0,309728201665149
0,305829648736324
0,315628062894937
0,316262381302415
0,327410191378312
0,318756369549306
0,320243840620754
0,320828804720073
0,326978561807422
0,324448314962917
0,325920384004817
0,331006029711223
0,336550340595824
0,32066084998135
0,339622501911472
0,362143117068869
0,35865707196147
0,36583172089847
0,3578084380407
0,348933830556954
0,360742230185561
0,35460312891845
0,348611247784298
0,360357946169248
0,375078738778852
0,376192846389701
0,383022475353632
0,373666819512857
0,391105678691751
0,382021730099595
0,416813100557308
0,383542345016901
0,40673306934496
0,378894057441526
0,401318929554142
0,396975058752985
0,414146481224657
0,423476746390988
0,438540776406078
0,39655867403639
0,40488360230371
0,418146311494653
0,426326953511726
0,422247851826056
0,436544631659329
0,427617104803618
0,445620155176787
0,425351358129252
0,443784472988869
0,434399594578146
0,459388943958947
0,447532131345481
0,456697805838229
0,454016970185183
0,457851515370162
0,460560380274202
0,462437121148432
0,443422625652886
0,502322338413578
0,470254206977113
0,489351172967113
0,494961208167809
0,492912121356061
0,471120522469831
0,493361848219572
0,481550875213074
0,510560039559881
0,477968261776272
0,519272178375271
0,50969176875185
0,501995245660142
0,49041128937367
0,507216795956821
0,505596028627713
0,544481618374466
0,526965770439783
0,514939456530954
0,502306910800892
0,54639810162356
0,525990819080074
0,556436121630679
0,555870258679205
0,574725421112955
0,544243562682948
0,560379055742407
0,52394701959142
0,5728984966743
0,516966143592812
0,580954567228926
0,587202509331569
0,587394204835054
0,573836618216003
0,616986549691724
0,570185263612293
0,615729301528787
0,593177008476349
0,567060514720177
0,574829155387792
0,668178779275706
0,594808574617314
0,634348414912919
0,594283685361888
0,659059263084538
0,632201462356651
0,64045090890512
0,583021419728246
0,647608927824291
0,615448239222601
0,637147623072822
0,633935851533644
0,650083957949806
0,624084814693803
0,660145540379315
0,634747905244426
0,658070314009631
0,636583865264363
0,7106679556618
0,672312913566417
0,707150393440424
0,673249482760533
0,722875116547206
0,718598819328684
0,70069752466193
0,663365349213052
0,700345181240649
0,661292230994264
0,72885333278672
0,677075518728847
0,719972221282818
0,658313659557739
0,734596897068888
0,684377700516182
0,727257055313864
0,703750763575298
0,746204338492383
0,729842968875507
0,761739722266894
0,712140951873823
0,768535459250132
0,761312675494468
0,779799848629069
0,708519023739225
0,797083013725821
0,709332678052142
0,81229751967778
0,789562201408853
0,803781132949245
0,774162431279276
0,799317108466298
0,756348115758375
0,820117700630741
0,827091124244416
0,846369261988458
0,787677809958714
0,851407208080004
0,737228453067627
0,823662736185756
0,821798318362877
0,852560759125198
0,826844830728327
0,820551538457983
0,779694741289173
0,905728073038656
0,750193772213088
0,891356491605139
0,821644450024008
0,89156841509278
0,858489872027818
0,888855219338519
0,805386140680437
0,902638357120992
0,80679741816748
0,905866709435093
0,847153511796486
0,916695205613722
0,831143153868041
0,952080033241628
0,881558038159922
0,873725286494937
0,876071521836172
0,99172657941775
0,91941028170246
0,881681072460385
0,925532760479096
0,973559123371717
0,900457869992994
0,984077947228332
0,927002953394793
1,01501525524023
0,917131965812837
0,952611869934909
0,910582790829782
0,959760847767383
0,973632531628191
1,03603749263568
0,934660621414167
0,938954109017871
0,929852071101619
0,959795168315206
0,916996439647844
0,999775024549674
0,924894295743752
1,02894239816809
0,921821549824019
1,11775120005059
1,01438333118886
1,02321514619299
0,965731124222679
1,0215905327125
0,981177096750325
1,06722079584044
1,00500197527124
1,01927837299555
0,998184656437652
1,08469742869236
1,01613644070083
1,07138955954221
1,00778019984537
1,04353300853596
0,964827860234735
1,11193426155121
0,972799192325216
1,08706907465824
1,00301437935269
1,10983215136642
0,942785580357595
1,09320558817123
1,06657416984958
1,17064523949705
1,04274315763503
1,08507446305363
1,01214894252865
1,11707732526049
1,08233452536707
1,15003374828842
0,996791439800592
1,13112094370168
1,06337207987893
1,13375424083814
0,981092901647989
1,14674456457862
1,14053579068157
1,15487200690612
1,10479300486898
1,16709838409609
1,09461424885606
1,1559565356047
1,11293705702381
1,12188493384991
1,02840655915591
1,25424755692723
1,09277614224892
1,24438781669123
1,2073466431308
1,18045262599408
1,05862488063955
1,19860678926558
1,09173660572983
1,13691437156447
1,07041296692944
1,15901237477809
1,10738400520319
1,16270473555054
1,18450976439231
1,15949948632617
1,13975237480353
1,23394372189904
1,08174729136982
1,27017800399183
1,07979766972088
1,20612571489589
1,10502704940364
1,24039917204855
1,09236235993516
1,23017019531551
1,07959735741524
1,27062908076291
1,24786028099009
1,27274277482626
1,15874106655298
1,26374255424729
1,19577031253102
1,23298345224192
1,12637108736703
1,28852611643633
1,14605241144594
1,26855501894711
1,11126059119767
1,23279190714236
1,1881170427029
1,25410904948366
1,21159807677114
1,19927235880308
1,18339044137919
1,28450031253105
1,19446066039414
1,16927128448305
1,22997574072168
1,34800000807304
1,13632873054967
1,14613722083701
1,12107908529926
1,27722357928384
1,1054072912126
1,22577815914644
1,148625448707
1,28017564979342
1,15715244265105
1,25533660575622
1,15672614228025
1,21877756705629
1,15752186953303
1,19848121780355
1,14438527101676
1,19478946808635
1,14366579097396
1,17435840781509
1,14773610642637
1,321759672513
1,12865754610489
1,29356327433754
1,14523229040594
1,24575779064409
1,12653801754071
1,1894846678079
1,15871606176871
1,2297666134284
1,2143444874347
1,30753645223641
1,09672835524792
1,26057850666774
1,12883315654295
1,30122543693511
1,14648221411793
1,29493331308079
1,11376211656803
1,11982248730157
1,09281902340697
1,23356040137735
1,13766547448175
1,2079940192333
1,1613709539225
1,20516922854097
1,19459644618914
1,19852319406943
1,15120770224869
1,20859832634924
1,20214648905142
1,23410497463755
1,17348930051153
1,19596071690918
1,10755774122726
1,20006743846709
1,20808227389887
1,23652074946651
1,15771212395947
1,2854429872545
1,17356363066946
1,15811364084691
1,16989840359761
1,22003671411472
1,10758137235386
1,27436099054245
1,1633672421459
1,23242427725285
1,21543067350857
1,19523609948731
1,12393443295393
1,3232999032258
1,12256582830488
1,25025586812452
1,22550056186764
1,28552419232334
1,15016893381459
1,22187830918094
1,13804813623626
1,14496181126356
1,16213841376411
1,25511571291434
1,12781039727274
1,2027214248797
1,17302783979314
1,25311490888455
1,1435736921521
1,18815878834461
1,19257773292571
1,21864034549383
1,1696878724559
1,20730403322522
1,14316939700568
1,20201075403971
1,13286047629642
1,25373986192238
1,17282358613076
1,19669483107321
1,1416985016195
1,22316244284753
1,19793065951271
1,20060559300661
1,11480680302421
1,19969414482896
1,18546746453327
1,18950117978854
1,14438657440453
1,2111940769201
1,10878490851131
1,18393725906531
1,13756119563203
1,20866225234302
1,11781348932904
1,15864983972675
1,14376195719492
1,19557022282148
1,13275516483386
1,23750689798712
1,11359271412468
1,22006752169636
1,18193511555819
1,20586369150923
1,18057683354621
1,17261605945925
1,12164953658661
1,13065376878841
1,06959241595142
1,21860115489727
1,12461025548956
1,20019601362952
1,09992891348759
1,22879659768292
1,08794975209715
1,16646468833617
1,13058040398
1,18256109649294
1,07351607899848
1,13854234040943
1,08512821607859
1,15831494131917
1,08976477889321
1,09673691093812
1,06723729104006
1,06600597588545
1,05077044810913
1,13861644553186
1,08638854559485
1,10072271591478
1,09597977940424
1,11055715149513
1,026067425276
1,06233387260535
1,04534550074394
1,13742018199402
1,05694029434326
1,09371849713244
1,04156011892968
1,12553193491143
1,04548959680969
1,09712868533403
1,07321680851251
1,04104164936271
1,02400826905527
1,10194327859787
1,02930050795186
1,04494115371344
0,988181491115513
1,04423179901937
1,05921632775581
1,03249559515691
0,97817791279919
1,02073194632303
1,03159946974606
1,04247597983139
0,979756980337103
1,00764740782013
0,947954852539276
1,0298397283787
0,985527272461636
0,984858933929639
0,945291191675753
0,993642656980858
0,944630925700202
0,98268798187362
0,950884663626792
0,970702256153601
0,946555897246609
0,978202887842795
0,906877059967595
0,948948487922374
0,94259409939234
0,940567473741417
0,890033211411754
0,907968960479556
0,871390689331269
0,932543120220308
0,906264923519698
0,924149261649656
0,865890236670385
0,873129215771378
0,889929963965064
0,88785989559676
0,842031070878357
0,92049871344791
0,840152529068133
0,85063720425817
0,831471669244582
0,859048842856573
0,831028026008252
0,876967105316172
0,840770367143989
0,847380146366722
0,815878041967508
0,820131495193668
0,820162269176416
0,843329494219627
0,822363704710384
0,838738587245181
0,807018934951888
0,809489698561875
0,778457781301761
0,782694016205076
0,761658825871834
0,778434792176233
0,770963969510754
0,788399182198896
0,757012517289202
0,770300952955695
0,740944724312166
0,771815033374713
0,733466345125428
0,748751885440561
0,741767924186865
0,73065393676391
0,712653559143037
0,741225204509114
0,70794919967856
0,710615070834096
0,716697613322849
0,712413144315331
0,702216482125846
0,717486991129705
0,683771453974959
0,677380415378281
0,686447188699441
0,67610156481539
0,670795529011109
0,687966507457487
0,657794465825339
0,664789247438022
0,649714306732146
0,651027266003215
0,652986080512468
0,644448213269392
0,632845350757665
0,632215979891022
0,618987604539111
0,621519479808635
0,619935781629523
0,622246126328576
0,596291978128236
0,619324266301791
0,609261221292446
0,617836101078593
0,592662914440892
0,595447482389692
0,583501580717622
0,586722444040038
0,580882171487058
0,587812882116959
0,577311128395335
0,584266478614539
0,553291851001196
0,559014799759084
0,549517132650871
0,558922368421252
0,563162996696568
0,548459044185041
0,528293291114629
0,543480111309952
0,538502101761396
0,526274659522983
0,522135504337941
0,531389420498612
0,523076094975062
0,522993501096621
0,513367920206332
0,511699011511448
0,508260401324798
0,493853073178772
0,504796107630632
0,504950352064332
0,487051560360925
0,497655967238684
0,484566009390361
0,489611339873271
0,47393686457877
0,488076174972568
0,47581321035243
0,46184518058541
0,457504666347444
0,460626613827453
0,459210712050057
0,45881569135213
0,454904879137519
0,458197309177737
0,443928151694799
0,450325245148752
0,432972832417495
0,426322731414919
0,436002474376459
0,438845096644104
0,434793848240259
0,418270906869005
0,416812260776386
0,424514706188731
0,406494310773955
0,4167010593782
0,41538017523155
0,403411417293204
0,405359682116601
0,404563620684756
0,395577898352582
0,398345126453975
0,39283501100246
0,392791836080152
0,381070740766501
0,388554041250747
0,375964082456726
0,382962117434423
0,383824385963893
0,374321864682491
0,373843466756769
0,371514850215784
0,363050934125508
0,37032137548499
0,360805797197655
0,359944544622729
0,356557707840597
0,353589307135444
0,346105854891814
0,340825252927872
0,341827896849263
0,349845166778081
0,338974784473333
0,340351994618819
0,333989448204431
0,34081984829677
0,332829931742552
0,328474845455618
0,320194382691362
0,328988021288616
0,324862032314265
0,324714746565901
0,317801116885386
0,324739086942502
0,318615147668316
0,312790674967616
0,311453834068545
0,310745078757614
0,300466848739369
0,301099035607012
0,298677942018667
0,299156307914139
0,295802347121835
0,287652677069758
0,293380515147442
0,29613117995413
0,281259419746857
0,286003071446897
0,283988280366446
0,279001674699325
0,278373649953457
0,277584928914041
0,275473993431211
0,273504342915592
0,266937977258916
0,276424275260794
0,265301970444665
0,264813398643756
0,262786316252205
0,262121284502566
0,259870685441593
0,259738953207616
0,25388130554567
0,257533745813185
0,260073354661927
0,254070033427625
0,253087482896157
0,251923391179924
0,242008361172987
0,243596621428278
0,243487809133816
0,24577726660642
0,239427405693059
0,238059381466674
0,231546831220761
0,242477231752775
0,229901741128406
0,231602994256605
0,234332954376439
0,229071709340557
0,223262576993885
0,229964263756939
0,224438391888747
0,229757653829193
0,227618318359793
0,223143648586103
0,221560002863045
0,218520041390006
0,214495031388576
0,218482372881109
0,215814424339607
0,213774732706179
0,204878864195662
0,209997664293249
0,209895852854344
0,207999324720708
0,201846074903555
0,206258617461975
0,205149446217366
0,20209683355426
0,200339457369754
0,20113069446524
0,196055215790546
0,193949515180326
0,19710515213418
0,195226723041825
0,192609435612073
0,193635677097839
0,195958488246381
0,189443463002627
0,182354735849206
0,190994440729209
0,189773018208261
0,189961527559012
0,190556487946844
0,184763267583918
0,18220946281019
0,18834765588371
0,182613960639252
0,177231069883295
0,181320145431166
0,173511589756446
0,174545088931232
0,175805185490881
0,176176485237091
0,175973852090612
0,173318958812256
0,168725334167907
0,167376901619065
0,167034056183039
0,166266957223011
0,170292193470235
0,166485485805379
0,160341056536124
0,162136608478301
0,165885956457469
0,160544187919519
0,163114410960093
0,160126888577413
0,153372037919781
0,155048087330057
0,153395339488063
0,149639319966459
0,159145798329511
0,155642209064647
0,151306917034638
0,149472851529502
0,151034251964387
0,15088196800319
0,148475922962326
0,148556694015201
0,14798817110958
0,146605727456443
0,147969860948831
0,146472249432275
0,144640267076079
0,139995749321695
0,14305890509623
0,141605737260206
0,138522283995927
0,144380927810887
0,145822514886397
0,135055638912979
0,134322467437881
0,139912510602147
0,136864591835457
0,134584796446124
0,134843353605824
0,132730430873332
0,135562743198397
0,134994755058327
0,127985538049058
0,129457305406842
0,13077478102151
0,130599256300469
0,128699948752026
0,125770619564214
0,123355953249549
0,122710992484358
0,123232428599412
0,123533146418825
0,122461927495038
0,123938510797015
0,123799674123211
0,121517069264862
0,120430064806954
0,121130274089718
0,115072295370128
0,117854822258343
0,117867191598941
0,115576528176134
0,116660250982439
0,115404093691245
0,115172197059108
0,116880298589304
0,117614594641972
0,114850598398711
0,113349946629657
0,109170387778169
0,110711396379762
0,114473462100871
0,111465906741582
0,111228213543316
0,109974867733385
0,106159279684737
0,106438756159316
0,107321595584593
0,107524108638551
0,108741554006517
0,101929844545923
0,102786633906635
0,108069859240672
0,103527311562634
0,100727240242669
0,103966612204593
0,103307998654996
0,0982578046553866
0,0992139613886988
0,104178490731011
0,102592430404451
0,0985835764703786
0,0973288812204328
0,0982359445685738
0,0958756771390927
0,0927156715435068
0,0965526345774286
0,0963726125234878
0,0962805891539342
0,0921028934971314
0,0930786771952754
0,0921955209680768
0,0920029525112538
0,0958328280829996
0,091310953578699
0,0942998719825034
0,0922082211963891
0,0909753733006296
0,0923164338449102
0,0902228993266986
0,0913121384428551
0,0882597082967375
0,091576934213594
0,0924460645744287
0,0886771995240611
0,0826265505302795
0,0838720607362479
0,0902338833816056
0,08910008586806
0,0863649783244234
0,0852715254156316
0,0833237698077229
0,081618625778677
0,0844424635725499
0,086309485316843
0,0873810806315979
0,0837606156888404
0,0818785120822156
0,0801079027268419
0,079586052324663
0,0785504420387855
0,07791903383554
0,0785220994784261
0,0831637257778567
0,085178966212784
0,0792229708440031
0,0783409705626961
0,0790674718666375
0,0795100132393731
0,0749507545604095
0,077651787076836
0,0816297408299495
0,0791698091714297
0,080766914705977
0,077690282234849
0,0766601438020863
0,0774116857624477
0,078459063203683
0,0767742276349068
0,0726408538490584
0,0767688324664014
0,0745564139538839
0,0723822877422107
0,0768392678670455
0,0739232271725466
0,0730623905262256
0,0728662208772539
0,0734965723041787
0,0742691783094863
0,0705961568608734
0,0709488859244516
0,0708211676011972
0,0710737154543297
0,0715900429943417
0,072447798343612
0,069408943784532
0,0660875167241398
0,0701882620191313
0,0709942779062718
0,0707212400774581
0,0723795924910357
0,0712966587893088
0,0680950789163022
0,0668039707459104
0,0664942861406975
0,0699105279415371
0,0720996078308186
0,06822648427068
0,067257709698917
0,0669409252541034
0,0665547302026942
0,0694875420956934
0,0714834914946077
0,0673934426563601
0,0630766103473825
0,0664571615701185
0,0662152549231583
0,0666220315614231
0,0642987270598167
0,0636645558672173
0,0679288589100021
0,0647845868449822
0,0600604252542537
0,0627498877805767
0,0601895484596342
0,0585124402567046
0,0629917929869004
0,0642119537259746
0,0647274536044199
0,0622566596453318
0,0604115997047941
0,0634925640263066
0,0640281441289307
0,0633249689014666
0,061090187040333
0,0611639939977145
0,0634740361180763
0,0630284279888098
0,0598426001308193
0,0603507681211808
0,0625772086589707
0,0606064028885795
0,0571375469746321
0,0605198073912324
0,0626044735345815
0,0614916768149288
0,060779820280192
0,0624789782455672
0,0620104186845879
0,0597252882868642
0,0593516052856096
0,0588001628124411
0,0583856741531393
0,0584268814826944
0,0558800866883834
0,0598615508302425
0,0627210280728119
0,0587032033797679
0,058710071640731
0,0574138873144325
0,0574763120297465
0,0601972607305825
0,0607399000253511
0,0576929424234754
0,0548453852854679
0,0595370290464604
0,0595752638101582
0,0566437755965914
0,0540608361569883
0,0578308625289978
0,0603949504971587
0,0571799008703482
0,0582345929187487
0,0604365055056956
0,0574713764842697
0,0557333704341229
0,0561547672413532
0,0564595538481454
0,0563756647399217
0,0570207269415685
0,0587895647877824
0,0579992114506493
0,0569182267555705
0,0569922989088062
0,0568200536422504
0,0536642736445115
0,0565892478288667
0,0538277355296689
0,0530882134469918
0,0521994026287604
0,0519169542379623
0,0556021857384099
0,053211067677878
0,053712389990002
0,0560195524881873
0,0552941235683142
0,0535590849631951
0,0544264522284468
0,0517644195545308
0,0501336035190684
0,0513714285797316
0,0550973826637047
0,0564149874705519
0,0546546006311653
0,0559574759681591
0,0561666602338339
0,0542334279898868
0,0535560893245571
0,0530233932193633
0,0515812592950536
0,0504091757773329
0,0577455634659532
0,053770807997274
0,0529833804282762
0,0521097493831489
0,0527370890040891
0,0544921797467546
0,0510122917864453
0,0522916758485118
0,0518158421219821
0,0528408614046591
0,0544789327844282
0,0507114286811138
0,053169927195651
0,0521669394854938
0,050744997564442
0,05092554141074
0,0534416576755408
0,054805719005981
0,0542836609375774
0,0510779906299388
0,0536589254367894
0,0505761088579943
0,0498451461905304
0,0520964547498229
0,0502410189897832
0,0509920917895488
0,0528943804630475
0,0533739589545469
0,0518247199840387
0,0542026602332985
0,0522938504722624
0,0492361640029718
0,0515121232145273
0,0507450063777543
0,0506698854844455
0,051800139130573
0,0495155293873156
0,0489418664518369
0,0526843431431704
0,052153069482827
0,0534522517441696
0,0525104585218283
0,0516308052459899
0,051850169479591
0,0484791717852886
0,0497264496785775
0,0512380241098704
0,0498050572233904
0,0528637369932974
0,0508387629650034
0,0508511875992909
0,0487602433271054
0,0500442395570903
0,0494629488853234
0,0493553897819873
0,051177444191876
0,0512821002349054
0,0500625887428567
0,0499747453707256
0,0518307676739212
0,0510295515071821
0,051225837226352
0,0507753387838686
0,0512691852659877
0,049526129243389
0,0514751599466781
0,0496677901132391
0,0474933033082201
0,0500351284932037
0,0508233529572496
0,0492695136828902
0,0505709725092709
0,049519948983293
0,0482049959410051
0,0496460045819664
0,0505076724939189
0,0531141015029704
0,0524997177507807
0,0502819471388857
0,0489218854317042
0,0494149994835584
0,0501359341968
0,0486876132361856
0,0496405081650665
0,0494430224634112
0,0488154923751802
0,0502270463289017
0,0503673896670262
0,0486128628357737
0,0514732230983445
0,0527028861298079
0,0510618329515751
0,0521439616482476
0,0492800818203206
0,0504185920495481
0,0516814965293047
0,0491447331359088
0,0541791184751389
0,0510499707790561
0,0504878193348536
0,048925817911452
0,0507668552213283
0,0501279509993025
0,0475821343779197
0,0469111831864018
0,053834073056024
0,0504603537204816
0,0518770993690751
0,0506744977257992
0,0499674347857072
0,0513286733065214
0,0530202416010452
0,0521713039992162
0,0527604752099982
0,053984508878506
0,0527225303271208
0,0502298916150259
0,0496192480380838
0,0493617652870294
0,0496597686209478
0,0519982695115162
0,0497383476491821
0,0535988454827988
0,052247277038015
0,0505214112612442
0,0523552081448522
0,0544892834814421
0,0519738872373667
0,0515185449782172
0,0504719023120124
0,0512925083334375
0,0514095591791265
0,0521265399426903
0,0526935883668667
0,0525265170861602
0,0496274685867965
0,0536745677092487
0,0497491778740458
0,0496977515657213
0,0538603320860187
0,0520339806613525
0,0500957363124869
0,0513156261162024
0,0532307431695553
0,0549416446472684
0,0543375271730102
0,0517935072676234
0,0521807589217579
0,0510474215606112
0,0527794056042807
0,0530682005100232
0,0507525590498856
0,0526339800133532
0,0518151400397574
0,0519227175638823
0,0498572161920375
0,0534421232780981
0,0505587563762874
0,0528690882262527
0,0533418253879234
0,0518352044253557
0,0524230388351775
0,0515935279952062
0,0518572507554656
0,0523181746482369
0,0539454173756479
0,0539219705962816
0,0558170237077833
0,054273323311907
0,0513568287726872
0,0517618018717928
0,0530097858856699
0,0521688190887346
0,0542604336072121
0,053527480575631
0,0547259836817537
0,0547380012897984
0,0530232677851603
0,0523007216796251
0,0518941008106476
0,0562523508430158
0,0556482983959764
0,0532478702334358
0,0558236985935756
0,053103841665278
0,0520066075713477
0,0539471579230709
0,0553001124766853
0,0516975652162092
0,0532080396821704
0,0545222076717486
0,0558537222152091
0,0530205399480145
0,0536759960770042
0,0529831126444951
0,0527996721538799
0,0550249337839414
0,0544035639663501
0,0530554634955288
0,0534823637166121
0,0554565454601455
0,05326111924003
0,0552606661013739
0,0536129905728268
0,0551323789308593
0,0546201186861596
0,0564243033735045
0,0566908964865202
0,0535438174609212
0,0547206947927074
0,0560166831966946
0,0556606366095281
0,0558293470541538
0,0561680989454516
0,0558063407976287
0,0562694502034483
0,0566517461388562
0,0543460502248875
0,0556365856673867
0,0541491254810908
0,0581062138356185
0,057924380896022
0,0573678820439845
0,0565361795957034
0,0573472250690279
0,0557589697902728
0,053212925628197
0,0539220350962746
0,0576544186389231
0,0543797286841692
0,0571157473382792
0,0554048847810501
0,0570303435441811
0,0571575986205951
0,0576998485227087
0,056467136014645
0,054625461458967
0,0596045079164722
0,0583243165415524
0,0573571026638244
0,0580289880957518
0,0567131175356165
0,0593675664282272
0,0582424368161956
0,0555070103826744
0,0593174100010578
0,0591346242806531
0,0584100415636283
0,0568631774051111
0,0582630477415556
0,0574641362765907
0,059029655921556
0,0573233874390887
0,056713753808884
0,0591017877905246
0,059105082612617
0,0590185814500103
0,0573942490856455
0,0616414902191528
0,0583644230378617
0,0615715456104049
0,0588718190626727
0,0595100964733781
0,0587800087089181
0,0599164346861314
0,0600795893240074
0,0604907881725998
0,0596554924563049
0,0583423565382526
0,0599566438735782
0,0581288195009592
0,0584751750320118
0,0601982851450312
0,0596005763583064
0,0608268545286678
0,0582727227092385
0,0608521337163773
0,0618332653591896
0,0617571819225933
0,0602504363598641
0,0608788341536427
0,0604221420076695
0,0618793852374079
0,0588326649413171
0,059229955653752
0,0616078415282405
0,0632106308206559
0,0612577010575743
0,0617068355100385
0,06224881542764
0,0623647189903821
0,0624321724983547
0,0633854924939802
0,0600050249566018
0,0637561280508525
0,0635171084383109
0,0638099692478735
0,066349970997175
0,0627465362651982
0,0621691981830219
0,063632646659534
0,0623097629595207
0,0645774087312731
0,062327350318185
0,0649111495566261
0,0621204978379522
0,063709481543492
0,0637874244432634
0,0620980014511497
0,0645354631172821
0,0629087132928151
0,0636020963909351
0,0655186282308412
0,0651621997108831
0,0662578215889854
0,0625479653145769
0,0640170516887188
0,0604356046653497
0,0649778513267916
0,0654428955079523
0,0657091440670487
0,0639698233964228
0,0661449002468731
0,0647468372200216
0,0681521661350292
0,068151894872285
0,0635760183123878
0,0676986434793784
0,0664783745829176
0,0605926564994709
0,06913135090162
0,0648131634454549
0,0651824988358578
0,0623307658919572
0,061475938072927
0,0593440032585702
0,0668282133325398
0,0665157451899069
0,0657021096540494
0,0652034509184789
0,0683221158270988
0,0673196736521447
0,0622089212864919
0,0624633092429238
0,068130000297028
0,0685928093055474
0,0702959004593816
0,0643146854172703
0,072797822705206
0,0658572305369586
0,0657122847419738
0,0623115468635204
0,071534450829567
0,0677101966411038
0,0709756821858016
0,0725943635847462
0,0679707128385501
0,0666435343761911
0,0713937751824704
0,0687031638487796
0,0694880519817993
0,0703803867793261
0,0687611809191898
0,0686757225789571
0,0717035756429308
0,0736820625357099
0,0714232243445231
0,0748290320032349
0,0687878384339952
0,0735428937854194
0,0683329915898164
0,0723283186074883
0,0694027861611051
0,0747319239773713
0,0694383897718307
0,0751898532993767
0,070182627747714
0,075549680349122
0,0713648438933793
0,0730994754883687
0,0702425238834898
0,0731381722474078
0,0738181517387901
0,0751883360401436
0,0757649655213713
0,0738983184174684
0,0745849329511829
0,0751077255755074
0,0752128985111203
0,0742685797743732
0,0750007046385942
0,0737739357130452
0,0748291599210571
0,0748729153843376
0,0760871056712792
0,0769442833655005
0,0755872639411978
0,0763702272439386
0,0746647252082004
0,0758769108052861
0,0748835957425411
0,0748921210380676
0,0784822930479395
0,0783834413736533
0,0791873286321977
0,0760839045864141
0,0786692478240703
0,0783759419203146
0,0777091495591815
0,0783214020864442
0,0799679777786094
0,0731957861331577
0,0793128312886568
0,0780068158701443
0,0799157576634549
0,0809952486117979
0,0811467987624171
0,0828766103763751
0,0825980260639331
0,0807673259913694
0,0800085661214583
0,0800773951869716
0,0797132392341828
0,0810123552810658
0,0821412287890084
0,0812086339192966
0,0825647791132005
0,0795625265370624
0,085463999978469
0,0831215594577661
0,0818322092519102
0,0831709580388794
0,0810623217177336
0,0869624141652205
0,0832849924235031
0,0833349284533903
0,0859455232224162
0,0809809001715975
0,0863237359686651
0,0835343416556582
0,0851114080095584
0,08630860884102
0,0868476564647228
0,0820635655101667
0,0840621190260162
0,0862778545978435
0,0848967410497487
0,0876603579831732
0,0871223487127827
0,0862505088170827
0,0850969303906806
0,0849310942890921
0,0878504019293626
0,0887467286499039
0,0853339141085448
0,0858726373330125
0,089574807259857
0,0884457812156364
0,0881823283285192
0,088190827682785
0,0896195482128244
0,0890323808806232
0,0895319592241928
0,0874370113887631
0,0881619561529379
0,0878889298347332
0,0897805624762694
0,0904432258388804
0,0864587351360852
0,0883473775328715
0,0900454865370758
0,0890008212876951
0,0920277834149344
0,0918370084005473
0,0910100884615797
0,0923248887288836
0,0935410466351461
0,0917023919988721
0,0939268473646019
0,0930862906720735
0,0910918140121484
0,090868801529444
0,0938006855910408
0,0922470960295515
0,0944988897926669
0,0962682378839907
0,0936712672651552
0,0924977972143209
0,0955501218032702
0,092025632894719
0,0965300807697145
0,0929514926385618
0,0948490834057627
0,0952985377205029
0,097293517986789
0,0954243084322073
0,0964822544932528
0,096015829476237
0,0978937673893766
0,0963195791622509
0,0981616054083695
0,0965023605360442
0,0960696251223113
0,0965515184266156
0,0991021786804215
0,0969218670056018
0,0989287644043649
0,0974293242547436
0,100242973559762
0,0992853419520899
0,0998231666891044
0,0982083578742303
0,101032058804382
0,0992961078358955
0,100194612801803
0,0997672255358048
0,0971667222673825
0,0999646479380415
0,100136430350978
0,0991224486062952
0,0998988570311046
0,100363932018319
0,0997082245415295
0,104048473005118
0,102139857401324
0,102094985416515
0,10306012558397
0,103109221112161
0,101627774210333
0,102043001119738
0,103534364658604
0,10280747950372
0,103003916819442
0,101293510834124
0,102162456887903
0,10116325400045
0,105734580118838
0,103821270062735
0,106669665339745
0,104823416827991
0,104471395219702
0,103770971306276
0,104290658220012
0,106162270397738
0,106231440184728
0,103976101580254
0,109417006092732
0,104088512671733
0,1043427043441
0,104657808463992
0,105484986864298
0,106112616607752
0,105678324985527
0,103759213332351
0,105779673178944
0,106854888586895
0,106913634441574
0,109740671177852
0,108563465165252
0,108319183540358
0,107885333652261
0,106025187311949
0,105925754080949
0,108185233706274
0,109271981756955
0,109857764157911
0,107176907041184
0,110555486123866
0,10627445815626
0,105568065037624
0,104433721992343
0,108907906910876
0,109496956381366
0,10606004505313
0,110888561059797
0,107757856029434
0,106884076334038
0,107140518244242
0,108762682928332
0,109041858137518
0,109904319118364
0,108708486620499
0,107972546266629
0,106997385447725
0,109121691414479
0,107814022513283
0,106967318452136
0,109834625474471
0,107244721593026
0,107781582605522
0,109806819777252
0,109037167248645
0,108289588914954
0,105172838885112
0,108011675566376
0,112724891192291
0,110695006959968
0,109504927017926
0,109187081063431
0,108592455053591
0,110031583423373
0,108664276419201
0,108408408976307
0,108903542780048
0,108986349495195
0,109462783925411
0,107634796114132
0,108649983899851
0,10928743923264
0,108362190368542
0,109917011150213
0,107842705958716
0,11002653276228
0,106793676173587
0,110270469883356
0,10497696956031
0,109256028870403
0,107253085736695
0,107073367249595
0,107908834603987
0,108004447635933
0,104626499002435
0,108222920126627
0,107151951526764
0,109004630083685
0,106503744037908
0,108222373390515
0,108219237637383
0,108547510650521
0,104650009375806
0,106658652589552
0,10353908529268
0,105801425045244
0,106597142110437
0,106090803638063
0,106756034924031
0,106623338713259
0,105757109216555
0,106671053745624
0,104521291654941
0,105463271636008
0,105086789219635
0,105585170652293
0,103887787103577
0,104465337428045
0,10281542072339
0,105605359624199
0,104373339359265
0,103563340943058
0,103165355650809
0,103618458809674
0,101862603981141
0,106474192029947
0,102572804704201
0,102306437613181
0,101699772402786
0,101718521737836
0,103311277157555
0,100904922950077
0,101092418166123
0,104247663034862
0,101298082272571
0,102685212789822
0,102227118322616
0,0972077241789224
0,0989402125138675
0,100948983294875
0,101372359430578
0,0995308578578344
0,100290774027154
0,100605131009103
0,0990173327781235
0,0986576697217365
0,102608155188787
0,100502701200058
0,0980876487513002
0,0980105870039731
0,0998699093149687
0,0972543154575254
0,0977384604243971
0,0977779317523793
0,0979348167401031
0,0994636954797062
0,0959758685680286
0,0971087262025198
0,0957529157752588
0,0976750604237049
0,0957181881672474
0,0953666646373316
0,0976474978990414
0,0949493393204803
0,0942430306119652
0,0939122955915653
0,0930152329766425
0,0954113570604815
0,0933857205906402
0,096172192415249
0,0933727913502309
0,0934308155269145
0,093230082659612
0,0922624532572847
0,0896723700054821
0,093830293885203
0,0901969830996397
0,0915053485648418
0,0943201184046674
0,0936567200962289
0,0913068979827168
0,0902761439192304
0,0874214946875994
0,0900373117374495
0,0903897492328778
0,0906171269070513
0,0919160077579996
0,0895402341504156
0,0893175025833668
0,0891165607995227
0,0890868759619935
0,0878074697615866
0,0894312071922462
0,0900988395221259
0,0857814145802322
0,0867394578967005
0,0866983091047691
0,0886490861883029
0,0873396850357998
0,0876485707791795
0,0844746163711854
0,0859304353956079
0,0872676441041559
0,0867299454357193
0,0861533479643457
0,0864949723163415
0,0846332964186905
0,0845302093515654
0,083072799646049
0,0857762486738979
0,0847329022823099
0,0830443345814155
0,0855847277920671
0,0834676594987948
0,083364439549284
0,0828164988711795
0,0829319862153389
0,0831001865625977
0,0814422182806809
0,081421823657657
0,0829840219252582
0,0824220117035899
0,0819636663960474
0,0815064361534792
0,0819817263339094
0,0813437903538845
0,0800143967671409
0,0793611441832214
0,0813312985554723
0,0804104681484114
0,0783611865267182
0,0795390960963103
0,0818223619714672
0,0796438298319585
0,0787649639609736
0,0784289686616977
0,0794919724717908
0,079474437366889
0,0799490601110821
0,078200949698113
0,0769252113361083
0,0767657627009238
0,0779182659771209
0,0766772435979253
0,0756162293862266
0,0763093000201816
0,076388976413999
0,0766675887977314
0,0766964584369074
0,0796595141882598
0,0753693970988908
0,0769582671085386
0,0754293896744398
0,0770372282959991
0,0757828929230177
0,0757947846627089
0,0743744177140739
0,0757404919742549
0,0758123058770271
0,0745430690187031
0,0746491160489701
0,0757298430532777
0,0731688410364292
0,0763249349299193
0,0763123496174251
0,0738676624106892
0,0740096233518878
0,0741327493866846
0,0733489859769512
0,0722443884232967
0,0744707602269463
0,0736878140933713
0,072319277170447
0,0749385175378924
0,075305152302516
0,0744344070275175
0,0698667539203373
0,0720574779229614
0,0696699715299207
0,0718181322257499
0,072164681329394
0,0747653476112094
0,0731646137401178
0,0726208696516791
0,0711445406280984
0,0711239435024455
0,0730107145592136
0,0708490433263868
0,0730611330372107
0,0706426944572932
0,0725669464410922
0,0731125665573263
0,0700856616578443
0,0690747145869374
0,0708653277439723
0,0718156922336538
0,069380093796121
0,070036723274673
0,0685747888541059
0,0725154246889891
0,0703121524612855
0,069523638738146
0,0687537505697818
0,0684803281786015
0,0705852508867742
0,0720415635523369
0,0706705993827991
0,06947720932347
0,0693953706241796
0,0688919748150852
0,0690211202862836
0,0692393618961908
0,068868753226664
0,0684406317187964
0,0698627258817217
0,0692283584867932
0,0695875497844896
0,0680372151515374
0,0662276363458393
0,0694999411182513
0,0687612380894718
0,0703932728647888
0,0695372133775861
0,0685800140623607
0,0671989440270042
0,069277728480893
0,0706685501109415
0,0699088631938372
0,0686438604265133
0,0676739401038793
0,0674321517911258
0,0686104981008145
0,0680774799607325
0,0697334328763887
0,0702319602320041
0,0702602506605767
0,0683488313908149
0,0675990666060095
0,0700822938556768
0,0709589426719331
0,0695193845623612
0,0704440714154234
0,0685188823541002
0,0671793969428282
0,0680211397340133
0,0695441607891026
0,0685459902230733
0,0701303069856856
0,067203346795902
0,0683768625445984
0,067316214240904
0,0675289945331229
0,0705868996936461
0,0687701907936225
0,0728463510467327
0,068983258580597
0,0690003262275892
0,069246502312161
0,0685370796254864
0,0682883235979104
0,0685149427114137
0,0715201019960584
0,0699437829054448
0,0673150891133311
0,0698023708255468
0,0711277680375629
0,0715801914409867
0,0687183934605919
0,0702164609059305
0,0719225613305103
0,0666865450243887
0,0693352793882467
0,0704633831499917
0,0706324231822745
0,0725171533542681
0,0699641581163724
0,0712839088358632
0,0722221414002025
0,0721902835377556
0,0733909266294878
0,0714183170401124
0,071176563088555
0,0747747772721316
0,073625123968631
0,0705025211425143
0,0716870106076968
0,0724889991868378
0,0721570335651423
0,0736782794118523
0,0747733253070251
0,0751295771492577
0,0729807585745162
0,0727212151217541
0,0753354173409789
0,0724825631867875
0,0739152275807296
0,0760940255211297
0,0736555560207916
0,0773620267234146
0,0773591873069313
0,0728922065077019
0,0774091062566348
0,0800238150768262
0,0778108445739762
0,0754278951255451
0,0777980564876755
0,077945234203833
0,0761726155441221
0,0789108721196386
0,0785290759249098
0,0776578075276008
0,080823429086365
0,0791743244371403
0,0798273717781438
0,0808396353736366
0,0805146436877193
0,0832486132008675
0,0825191421586233
0,081564199198094
0,0828824597980837
0,0827089256756507
0,0830363547812827
0,0846942448625276
0,0842306195233554
0,083805820700089
0,0854040426322999
0,0859734558328091
0,0874177228247811
0,089327639843259
0,0890121030363324
0,0895892437623665
0,092085418020529
0,0893819292885466
0,0888922115839243
0,089676199889227
0,0939307807845612
0,0936872613606708
0,0912624333531681
0,0919096688435223
0,094278695183523
0,0932491391459078
0,0952034438200425
0,0962857563235558
0,0945045586881982
0,0950785431000345
0,0942194902174301
0,0978610852734836
0,101754067181517
0,100345860301594
0,102773291220498
0,103260193996576
0,102240014332762
0,103776585517916
0,107066716374766
0,107712204277955
0,106717180432468
0,11038040241619
0,109913570876973
0,111585092133517
0,112239935162151
0,111547869218128
0,115920154604304
0,117632612650172
0,116723692604043
0,116406334188777
0,118370524937971
0,121006106017733
0,123186725806388
0,12104708669827
0,121680913723149
0,128433772987558
0,132520555829602
0,129769604327977
0,132787324680518
0,129654049140793
0,133362198948269
0,139098565540558
0,140261500928671
0,141903761378043
0,14203089479138
0,143496768105398
0,146803845759909
0,15075233949831
0,152089084289627
0,153736707423356
0,155327760647988
0,157366987069805
0,162097205586676
0,164708996469291
0,170000618360967
0,167418586321942
0,168825694424024
0,174255841428275
0,178941601219006
0,179213472837239
0,184602327120099
0,188138173464346
0,18908301944011
0,195392287025525
0,195830464537711
0,195603293724684
0,203391102933195
0,208141954325216
0,20667170014563
0,212675488831733
0,222178890921272
0,222430575243803
0,223951693274161
0,235159144480393
0,25407149947074
0,23655215757428
0,247295825850904
0,251433906563121
0,26012655440766
0,2728191828458
0,262374916527705
0,266114570310401
0,274404453419182
0,279136398206362
0,282666038055031
0,286858497346556
0,290804066918987
0,300813620287982
0,307251902588998
0,310736462772243
0,319008893076316
0,331098986068203
0,338124817456691
0,333505792601309
0,334588517285764
0,343652568515646
0,353233144883473
0,356029249215222
0,361847015994923
0,364632799234438
0,373250160766405
0,386766085987424
0,383828290371648
0,391804812426628
0,396558691988411
0,406067877566857
0,411618124150666
0,420726794876665
0,426440368380489
0,425119715672188
0,430198645367632
0,437843251278465
0,449287237931984
0,45265331884535
0,463588312715326
0,474460999688633
0,472065977807467
0,474399421003647
0,480424640086718
0,489509980334232
0,498493040252947
0,509122459879382
0,513996339767678
0,521930879106744
0,536192023042321
0,567090605805673
0,532152014258754
0,52563225601974
0,544470751645267
0,552606695240282
0,552007154827702
0,55048242063902
0,571390861202669
0,566074419157209
0,554289146629092
0,571756456133688
0,570497658876807
0,575909443936055
0,581481605324403
0,587947999398393
0,57978710981687
0,585767576697721
0,586471287627026
0,602273890298642
0,621602737093663
0,584724686929955
0,575295381957168
0,582437325555611
0,57346124096014
0,579737858861689
0,577729735068823
0,579118908112862
0,584503748175575
0,563408395265691
0,559546388543039
0,554176640222165
0,566381751342335
0,560179390817371
0,54814630781313
0,538243573872283
0,519962787965863
0,527941747311771
0,517403040302339
0,514243133057536
0,528978636336143
0,503167950696177
0,491736717680758
0,483226403277201
0,477425721482035
0,471902095742616
0,462776232691713
0,465842135891255
0,452338014104262
0,447126695008242
0,443732022721344
0,435238617654235
0,423908722060145
0,420939405625026
0,414646029090438
0,404870270893175
0,398863658030196
0,39798231362087
0,390198454574892
0,383632623939644
0,382195622492849
0,376246909640969
0,368806867463521
0,366959249156146
0,362987013263413
0,35848738412855
0,351170633544701
0,350082725204065
0,342436810422563
0,333338143753111
0,333833739537395
0,332533609650108
0,32904274211203
0,323354503870903
0,314368741100561
0,311614233986383
0,315165543710684
0,309407289532452
0,304662728173815
0,303268301877585
0,297235592931257
0,293851928390631
0,296920728653113
0,294831247429934
0,284068197661302
0,284334506409749
0,284329297183156
0,279750988468039
0,275598375427216
0,274342457922336
0,279174872244724
0,279323485211918
0,268599485066475
0,265915485538357
0,26691229170277
0,264181325589427
0,262204871006521
0,257238663674944
0,256926583013344
0,259308718691984
0,271319634592482
0,268142897903657
0,257797491606495
0,258169346114903
0,247341043512042
0,243894184750834
0,253989290148912
0,250033334798345
0,245289908373937
0,24292912980669
0,238952494008759
0,238033437334888
0,238534765545339
0,241437919165471
0,23450910443908
0,237163642716531
0,23774262614916
0,231878253058254
0,228372842960155
0,227778906519323
0,229980370730274
0,229767590013514
0,229832212150793
0,226634114239462
0,217988434589015
0,221804706837981
0,222508402775242
0,222281415468572
0,222838269359669
0,228926859982223
0,219781014062242
0,219611706301993
0,217798886471726
0,214159480283394
0,215218618204337
0,216621431899296
0,208479182677161
0,213584397624393
0,214713468870346
0,208901114657195
0,209903874189221
0,210378113961626
0,215470431249624
0,207984923418757
0,20796828772558
0,208635838830281
0,211429937104816
0,211273210330804
0,208121195643891
0,210718851588391
0,202275070607274
0,203474012717506
0,201862144664925
0,200907138588986
0,200862977206002
0,203597018822236
0,209330110458176
0,200133238166751
0,199232467892299
0,202822817470611
0,195432592795571
0,197891498212186
0,202372174957591
0,19561437509128
0,193329300198238
0,198540250806302
0,198595691061292
0,198579908579208
0,199035415264327
0,19888568199941
0,193989630872125
0,197042776994232
0,194396290972802
0,193113073734788
0,194072685334617
0,196701052993341
0,195954256285516
0,193203406635218
0,194707298101002
0,187377863806498
0,191002280935616
0,194431078553875
0,190922322927128
0,189159632169916
0,192049424009588
0,191816093393914
0,189067890303337
0,192631515942182
0,190546233078282
0,194185856972288
0,191024621465542
0,188618568817748
0,195736438022206
0,196686420807253
0,193708110805099
0,194054342395246
0,191300694558606
0,191214253116282
0,191979904314062
0,191301826714917
0,192012861054905
0,194565005367289
0,199023986243282
0,19346199620449
0,191545262905866
0,18955584586136
0,194512257456862
0,195080813080026
0,193316724658975
0,193887658457126
0,197497737114774
0,206579079498806
0,191051817808838
0,193859345556354
0,193822012009327
0,191041285017989
0,192318857215308
0,19154603387021
0,190005969458532
0,19289419698309
0,192889470005886
0,195208292766727
0,189403219355649
0,191775234315626
0,192262110278773
0,193029049624715
0,18928436173666
0,189348866941127
0,189356483298401
0,191846430425616
0,193179154083365
0,190373679761108
0,19955460825971
0,191671404387332
0,188740228387364
0,190176654547727
0,191851319494723
0,193809039967069
0,192867177180702
0,191189196253706
0,192010275486307
0,190980536718072
0,19289529422268
0,19036480510612
0,191259615693741
0,192195108429354
0,191990063601703
0,192683427663901
0,191544250908354
0,189703385788366
0,191036602348362
0,191877919359834
0,189245244464572
0,190293663744475
0,189420409364623
0,193719938011542
0,192344629393641
0,195752267883971
0,190043705904052
0,193896653262535
0,193225580319152
0,191892860163914
0,191206059010974
0,190031086114643
0,190156492430602
0,190313829760922
0,194291914388655
0,189980471997106
0,19083476298981
0,19385414590168
0,187268946564373
0,187479489499209
0,192068828403449
0,192181147813284
0,190734122987286
0,191423920989373
0,18663685221591
0,191499516604022
0,192003944266823
0,188086409297351
0,187166882413083
0,190117250393833
0,187683250768357
0,191109862252715
0,190276528199245
0,188925773139088
0,193379748778467
0,192020175397453
0,1911597006507
0,189145141495433
0,1867697054599
0,190381250740132
0,191387696457467
0,188425407478606
0,1902953262613
0,190414952644665
0,190885038671198
0,189270420626471
0,190964275952902
0,190968242763505
0,188663009806895
0,190341384024461
0,191749954821857
0,188800549266918
0,192783688538775
0,19041129184425
0,187678716316516
0,191787047512119
0,191774563068806
0,18835605205149
0,18700918276407
0,191364713661632
0,188257889622529
0,188723895483722
0,19034317829046
0,190563960325793
0,185481609846209
0,18844492171534
0,187810688345459
0,190230964021737
0,18803428339329
0,186580561674097
0,184989707161704
0,186061708381488
0,186323348906481
0,187633702845658
0,185498866680746
0,188381387485465
0,184918779220364
0,185641755190382
0,185927638832006
0,186888922771727
0,18487281381423
0,187575472577321
0,185789379435845
0,1855833075074
0,185464929897963
0,18449835224475
0,186502301487705
0,187302942899944
0,186558920338994
0,182812418632246
0,186106026559032
0,185920686260068
0,185597224162624
0,185354135443806
0,183021745128963
0,184807111160185
0,185072692011312
0,185759371757478
0,182895742159644
0,185284642579985
0,18407378435317
0,187249055568467
0,183579634156516
0,184564821492267
0,183653448738203
0,185195825782778
0,184388373936776
0,183969059243574
0,184256731867094
0,184105782294336
0,185369959252812
0,183351295202286
0,186528073872203
0,185764049593438
0,185076501300966
0,185581221865202
0,183591205088266
0,184941933613173
0,183130500894197
0,183817620601902
0,184293302451236
0,18289704005149
0,182286882752524
0,184042170068209
0,184970139377407
0,18520507519162
0,182618098984125
0,179978574059643
0,183655522644774
0,183867878015492
0,181219472313603
0,185762399617731
0,182720787968682
0,182982706760186
0,183894993442484
0,183666226355878
0,183907838426998
0,18152725491206
0,17988729773325
0,181357382956089
0,184475306409271
0,181986597724381
0,182907402778516
0,18164296160332
0,180894767139536
0,181078994590076
0,182944897611273
0,179819776667502
0,182674654053947
0,18289035716745
0,181580937002746
0,181681774477161
0,179185482327421
0,18298608352251
0,182552675098993
0,182735132927513
0,181937975936851
0,181006794939774
0,180719407410355
0,180002232628491
0,180540811036704
0,179571514246882
0,182550599127449
0,182068987829421
0,182448575504856
0,181323346500927
0,179601992820249
0,182096261461739
0,182594136941175
0,182453532545763
0,182356319496865
0,184513468992898
0,180354773272904
0,182372702879812
0,181911755198363
0,181337630224367
0,180655128450764
0,182077622322656
0,183687417263711
0,1814782638643
0,181433347598987
0,183995503812423
0,179474548654938
0,180516428983711
0,180045402139762
0,180332262022096
0,181252206923911
0,179475533901051
0,181705776907452
0,183446530318469
0,179237515367296
0,181976146609315
0,182143425587163
0,179333848894692
0,182449299380893
0,181897451415321
0,178858284239484
0,181086024994769
0,179287324179602
0,181615194369924
0,179897252677295
0,179870997932483
0,178279582982483
0,179359204130326
0,179011605432837
0,181139730999997
0,180362305925083
0,180209562924478
0,1803999336314
0,17978508021004
0,180322253022856
0,179384035148976
0,179698477496536
0,179361389861138
0,178879841477891
0,177656109200537
0,177891570554124
0,179734055059825
0,177896856213855
0,178857302610645
0,176036319546027
0,176594237139823
0,176454014764425
0,176834025544555
0,175983115934719
0,176113620713162
0,177432144411122
0,175672765739909
0,177161103756499
0,177086839653832
0,177320439956219
0,178760320961246
0,175648976822045
0,176134955416142
0,17448265382578
0,175415760689142
0,176232830496922
0,176555354810208
0,175566876604588
0,176405827715836
0,176037154142548
0,174997747327243
0,175271857955283
0,175623922375282
0,174125295021915
0,175786743981436
0,17425153617657
0,174565947896875
0,174401697467996
0,175325480646324
0,17534760644102
0,174477737256372
0,175128536880793
0,174154467968101
0,177610521507729
0,176172910308423
0,174940939595175
0,175829231149222
0,1772269644315
0,175544401072612
0,177440289994873
0,17847987605816
0,177983474353708
0,179735969701237
0,180892717617848
0,182176513044593
0,181086795039706
0,183537020782603
0,183322058859585
0,187330771831604
0,186930541006009
0,186417224873692
0,187008792968898
0,188026637094883
0,190839208792258
0,191546889255416
0,191162959571316
0,190954851518251
0,194300079416196
0,194713511460783
0,193226938551798
0,193863890713818
0,193712307265419
0,193899964524162
0,195099651764687
0,195273378513642
0,193802410790669
0,19375924644616
0,193712316702401
0,194577946952895
0,193439435284214
0,193639252564892
0,192681968443873
0,191815919630805
0,194100034276072
0,192539579951102
0,194520858975026
0,194330213396792
0,192398438376215
0,192711833668747
0,191681777134209
0,192884221693263
0,193975681223808
0,194222790691179
0,194112258340814
0,192332982901899
0,193151164301446
0,194015163073443
0,19430066284789
0,195254283991441
0,197381693804634
0,198037953940336
0,198708851783895
0,200593140967352
0,200978659273909
0,20165666407317
0,201541187918478
0,204141672739011
0,201648145531013
0,203274353142852
0,204050288101307
0,205637005035184
0,206330150380309
0,205470089921169
0,207225985229659
0,207249208575655
0,204855713174094
0,204584916668057
0,205895632708607
0,202657234538431
0,204716037338049
0,206229409345769
0,202474563974169
0,203811431901185
0,204219618685544
0,205048192379501
0,204800890678881
0,20329179283778
0,207585482324412
0,207595742615262
0,208941269024402
0,211204941628444
0,209738726690356
0,211023072545429
0,212239083206425
0,214110701247094
0,214065612229592
0,217473578340506
0,218055349543176
0,219083413625219
0,218168382212852
0,220248632816475
0,222528218331792
0,22066246430612
0,222532880596706
0,226180935705611
0,226138066101721
0,226495729315272
0,227407718372995
0,228516440055612
0,230886419838428
0,233480369805048
0,234767703280171
0,235699324713978
0,239175035074687
0,236883979793452
0,24154587368843
0,242502746952874
0,243171134284497
0,243120426425212
0,243077295698452
0,241974067498595
0,241762084537879
0,242668635730711
0,243318728059051
0,239222345742922
0,238794862263856
0,235053152520145
0,234620941849458
0,233861304763303
0,233322806998589
0,232991366269061
0,233481237615188
0,23175225148476
0,231835102815672
0,231433511154801
0,23011162742991
0,231923583414099
0,230917601256522
0,234931403732145
0,229486914339793
0,233279247150332
0,232972713499594
0,232215639337147
0,236259642944788
0,238150733969463
0,237726618518572
0,24000494822215
0,238010616426096
0,240219650843139
0,240030788711293
0,238647968789183
0,242269162316358
0,240097811754177
0,240656084404029
0,241472135614657
0,239023717507982
0,244218491256007
0,241219059813834
0,243189621503525
0,239716722782244
0,242604398120507
0,242079762551382
0,241362551230665
0,242496604231868
0,240469513850539
0,24052906402615
0,241257748641676
0,238717889442541
0,238020860090453
0,236715337859367
0,238950196752068
0,236183401130673
0,234226117218165
0,236130639049826
0,238141643421759
0,237178590863586
0,237037972553905
0,233586514795096
0,232617474981685
0,232640790547164
0,232753729651705
0,230807091401254
0,227647581290116
0,226708725108048
0,225383334248957
0,221649713075933
0,221540739887656
0,219256649895144
0,216973644914335
0,21586738420116
0,218737322757676
0,21673591534492
0,214786452664994
0,214185143054934
0,212584797360405
0,214041755922798
0,212645398588443
0,21935921296243
0,213930645246378
0,222139118493955
0,218316600061586
0,217389107959333
0,216299433632024
0,220154539694459
0,218078397554232
0,221403762114166
0,219769480129505
0,218834028012972
0,218393524422064
0,222105317859568
0,219231327984023
0,218230502105744
0,217535713676278
0,221024394531855
0,215435092782255
0,216144020739628
0,216092644066408
0,217784401498552
0,218540972835276
0,21793944604782
0,218474480689466
0,21763614935336
0,2177354169812
0,217854381495394
0,217350122620368
0,216418435066822
0,214722987901328
0,218786625896545
0,220264846342998
0,217920992261841
0,219745639081606
0,22047228784889
0,221845612865569
0,219680921362152
0,220140426194122
0,2215333679304
0,220279001723227
0,220083981852321
0,222423532139935
0,219538919175205
0,223124195198678
0,226721539601399
0,224585865903483
0,226648913500137
0,231425095163035
0,229351204681663
0,23130558230386
0,232996635713122
0,233805716422807
0,232117161248921
0,233806323963594
0,236060152439896
0,233093826998375
0,238201412495573
0,238683550111229
0,239154058579701
0,237435142522533
0,243209226537109
0,241541130164082
0,242890154661657
0,24168662423763
0,246558350534553
0,247788730804398
0,250029690356999
0,24761449386219
0,249643200464615
0,249012368037313
0,255677856403906
0,255544781957749
0,259343372151585
0,257594449986147
0,259115813146428
0,25229978846636
0,261324403966099
0,260387414933894
0,262576967093586
0,265567889087542
0,268119317772049
0,270654713054881
0,273094350512711
0,268601882458676
0,275793206983485
0,276205131758131
0,274057001801602
0,283497868688169
0,280898226544685
0,280208578995398
0,280503003502414
0,284372236716113
0,282153815820783
0,28798825277856
0,295736905410135
0,290041229901878
0,289507823859787
0,29715728174163
0,298300800563642
0,305039219312941
0,301355957332899
0,30638319326587
0,302219493003063
0,31570398033512
0,314436929886781
0,310379488368346
0,311362585596783
0,32158309942028
0,320669759471835
0,324404386169208
0,330063219568437
0,322690824848559
0,326456439162187
0,327377785196152
0,339158087596397
0,341738309917059
0,330979373713511
0,339980615147115
0,342604384409875
0,343434614336292
0,340696196574551
0,348019473266177
0,352973589263608
0,350426346428991
0,35547692163501
0,351767250004043
0,355392542140664
0,362774024591853
0,361699280611921
0,370441781047819
0,370217247424862
0,37453685313743
0,377964536665289
0,381424739216029
0,385654673464745
0,376717831338612
0,383704347554777
0,379701810758393
0,384440838273731
0,389638761438874
0,400576686976548
0,392393478884763
0,401620490636279
0,400603554587575
0,405363006107878
0,403484368655868
0,417658441936857
0,415813204743833
0,416519301934661
0,417304177928526
0,417489714628959
0,422662966964261
0,425575069914613
0,424982761802194
0,442262077975627
0,436596165904037
0,432925388861394
0,435433458230928
0,444723148064127
0,443053441718318
0,453990346478018
0,444617710248559
0,45499487200904
0,459071110802188
0,458191225167303
0,466175081159707
0,471097377931243
0,472987409868223
0,474187331501088
0,46684370477704
0,489625420581935
0,475848035523586
0,480759512437477
0,482467482860605
0,491419154147312
0,496260778170435
0,493578690999882
0,496796350519236
0,51066124946703
0,506889176307255
0,526882302223274
0,512882475049222
0,510272027320934
0,507262590742117
0,517012474224754
0,530200437914824
0,530860797257302
0,526522030131499
0,547855460428319
0,543708763679041
0,554386763461737
0,55035569043389
0,529950520701333
0,532017975393104
0,558836811068857
0,569242956107964
0,563396974399606
0,563317781543991
0,576328100908229
0,56268543770196
0,576597478343597
0,575911771724385
0,579419934365093
0,575438633105663
0,586482273000078
0,584839343158936
0,582763561286308
0,596022390535861
0,593713066146354
0,606821289875617
0,616002630055053
0,603230724723618
0,621425143442847
0,614363596856026
0,629593255424387
0,617160992089346
0,609429534021927
0,606904226046471
0,619547820784989
0,634256032988625
0,621552270079655
0,636755963298404
0,660631760046023
0,669157016197415
0,667743696256855
0,633754348234273
0,669025641392064
0,623293300549779
0,678253152105803
0,676813351609906
0,675354096791315
0,679940718989318
0,679018282886896
0,673147470594642
0,689885778084679
0,685538237978203
0,726465251802914
0,706130780856462
0,693431568231708
0,721828112536681
0,745110491261113
0,748282220247938
0,730774234364504
0,708349168651689
0,748378335169385
0,690148190471788
0,740850246632352
0,7392746364056
0,739025756574971
0,707513010655647
0,751391614498154
0,763165033899956
0,74793314796339
0,731363421144228
0,76098867466602
0,704944994457199
0,759381326791464
0,787772022416469
0,793182148239895
0,804305694548067
0,750395231304815
0,781714127887734
0,813899740627085
0,760271987571803
0,793214036949282
0,784489392823354
0,789377711460108
0,769082376636198
0,777396410396099
0,746387505557294
0,824989194142699
0,792011504294133
0,776417462414382
0,793530893925242
0,859294607235844
0,823740427162581
0,884985351406119
0,837571814821204
0,878314252149463
0,849957456938913
0,876792733966057
0,844372370792385
0,838006705225398
0,87031437013759
0,856619729337438
0,787951045134749
0,85499782055704
0,902784822417657
0,817899066854016
0,844562416816135
0,902298077486701
0,904938153689371
0,863618963459993
0,856898613714908
0,847180662514516
0,819452325580559
0,954224307081489
0,912614881434959
0,943795881582689
0,912547940161764
0,998348107274391
0,988786319751444
1,04754909185161
0,899424160226776
0,892088101189675
0,881234310477407
0,951484753558319
0,887256802061376
0,900636155767138
0,88174187031885
0,916689634389761
0,998574854746932
1,13650837017189
0,960014342507022
1,00459333518814
0,864576263851479
0,912660230515121
0,90744052918745
1,04697780732739
1,02772102524107
0,978553255570901
0,915017124671123
0,940949959420351
1,05187718485617
1,16299436333125
1,03881184282272
1,00404030278973
0,900099498124528
0,958966476254582
0,903583867834369
1,07854263229715
1,17682174082427
1,19033370630146
0,94157813048741
0,960213969442517
1,0412598576073
1,30730062573277
0,952502001319748
1,21393390215983
1,04245244616843
1,02927724863325
1,03791627742456
1,2256150983761
1,00093818861428
0,888675550648903
1,11353688979099
0,915096414787116
0,887770460994019
1,74180020975647
0,914575273329692
0,810633568670714
0,90486653492238
1,37502985544343
1,53318932627474
1,24297511116269
0,937293076094707
0,93314210566444
1,15958498803312
1,20901138953109
0,886077781111225
0,922833692306839
5
1,84163270397073
1,11089050763303
2,95867634717214
1,03757869821416
1,26818048787153
5
0,963143019493544
1,11837143491223
2,28235699012463
1,31984632222268
2,25239439491026
0,766969188849234
0,844189773984529
1,04536948422149
1,3110163965353
1,00842495925285
