3596
4000,36533379555
650,420452594757
1
2
2
0,00911853030040487
0,0120300185155243
0,020743322596836
0,0195823114751166
0,016435243238052
0,0124661677410025
0,011464853314829
0,00509933842841553
0,00825512906672224
0,00568987109176958
0,0122166116456813
0,0108713129798393
0,00628884423468969
0,0144084857335404
0,0160940662082423
0,0138182048778369
0,0124356366971669
0,0123409398896988
0,0133872478773768
0,0131442702473025
0,0115431362517734
0,0135910551465133
0,0166563089890624
0,00176826326594466
0,00699668895548248
0,00899010487331446
0,0199331202681599
0,0188612190895602
0,00343058013431837
0,0107490296844337
0,0158688372183647
0,00930316735100168
0,0125823562681526
0,0125319765686717
0,0100149454274782
0,0105364287456462
0,016342704341019
0,013740293849751
0,00911357389727095
0,0122014135900947
0,0153920553916692
0,00517815191270721
0,0138266723404427
0,0185300462388742
0,0134151657616657
0,0163047044119318
0,0101649332457492
0,0103474562373992
0,0145122966273355
0,00662652116243248
0,0143498417910114
0,0129615061644901
0,011445052025978
0,00964652374430171
0,0135716503265442
0,0133408005973981
0,00755733162000433
0,00738859330880382
0,0188124484936981
0,012383731600106
0,0110490478363
0,00938093128865185
0,0189150988142462
0,0179299460953058
0,0138844775686436
0,010559529888657
0,0217170241554961
0,02222015229715
0,0146489421920705
0,00701971142517749
0,00831848746502437
0,00831568515744105
0,0191748485828366
0,0147927999162
0,00820411262241544
0,0135382098085189
0,0100385754469801
0,00621772312252122
0,0108679001106516
0,015574545333589
0,0223120804434254
0,0128378193645539
0,0104120764907442
0,00781432257790758
0,00928532054270841
0,0161102734219074
0,0204269310215587
0,0189579017732831
0,0159369152037648
0,00906743418615208
0,0133118856245275
0,0116852616612655
0,014555611529851
0,0150452171966156
0,0162376524456158
0,0134623042877193
0,0119591901838638
0,00754666537034709
0,0134798670880842
0,00862695293065851
0,0145829468614057
0,0151969564267037
0,0237086960940408
0,00995597689429489
0,0173945248962063
0,00960813734779804
0,0127336471032879
0,0166862530885458
0,0132255081610953
0,0177239220694275
0,00469622863114125
0,00322714751722761
0,0124161578635957
0,0130534594738497
0,0115793037143912
0,00684867490472363
0,0109002201605042
0,0169505365850802
0,016849499352475
0,0130409416703601
0,0111571016797704
0,013140882481609
0,0228470731152381
0,00630591915813174
0,018255526342223
0,00978671941974162
0,00409794031680666
0,00889575831278415
0,0227650913821672
0,0143966650614987
0,018050280314604
0,00753742748070937
0,0102457313892492
0,00667478175110616
0,0176470524286334
0,0187885798208185
0,0148893283277393
0,00269044397776396
-0,00204492507786669
0,0100573879184066
0,0150563237446017
0,0132388510207855
0,0155553205667275
0,0140379909753903
0,0225653353529248
0,0151875632200714
0,0119592322671556
0,0181813225901541
0,0209742660827927
0,00963611779344123
0,0149664794250777
0,0105917554500532
0,0122624700470377
0,0122586998364778
0,0116040102761955
0,0057950979287387
0,015892293630031
0,000648931980080255
0,03138072700539
0,0110181499577217
0,0135245336216148
0,00641349188019193
0,0122148057989236
0,0100114128161839
0,0139559616223101
0,0136879015469428
0,0121162464491046
0,0111492471099764
0,0174026931030282
0,0113048919074613
0,018783803716171
0,0145378468367238
0,0113757607083745
0,00385829102557665
0,011841122702288
0,00739514119694614
0,00500845922523168
0,0118376265233778
0,0124505926976906
0,015365214241114
0,0192950106402067
0,010305495840773
0,0180209280477487
0,0146812227821151
0,0132945947526147
0,0115278327073375
0,0135383018785034
0,0131915351831695
0,026338644956307
0,0150472393054585
0,020137538516754
0,0122537863018162
0,0188490753234856
0,0114033934222961
0,0158336911812625
0,00839307446320482
0,0111345000503935
0,011586914344194
0,0109601315592192
0,0133780138204389
0,0206278849200192
0,0211091482741235
0,0204473644483996
0,0104342564196752
0,0157961260529754
0,0102072289949378
0,0158945793612099
0,0112030573831963
0,0211254398457137
0,0216895239913094
0,0156819485122483
0,0065012939176544
0,0164157783252429
0,0168394821616861
0,0139044151581469
0,0187923688719379
0,0166674702930526
0,0131503807942309
0,0148400376790678
0,0167692376350566
0,0274061330506037
0,024928588052291
0,0205185568891967
0,0127599531933869
0,0200530142783732
0,0183738941805407
0,0256906294125798
0,0207789356433583
0,0173759007010276
0,0227366771779831
0,0180620407099358
0,0162493847731319
0,0218026958982404
0,0152161379667387
0,015262911616588
0,0176323596380633
0,0341776453141135
0,0228894800066634
0,0135978083784881
0,0148902296134525
0,0241702966757806
0,0153694617032732
0,0205867341125788
0,0113033491702006
0,0144668632246905
0,00927330248865142
0,0298426738282402
0,0247910616942571
0,0227508695626479
0,0212932431037076
0,0256377265931758
0,0313224364487033
0,0230126810880113
0,0178862841700724
0,0190647917083435
0,0237313148009505
0,0262927079285183
0,0284011779323049
0,0232307111002115
0,0234722035668756
0,0255704861646675
0,0271385618962448
0,024332498931857
0,0244490748862126
0,0178571327826472
0,0198247227549417
0,0199536793734744
0,0158395581885899
0,0354575270886477
0,0219942758958577
0,0163743006627759
0,0236874668361432
0,00871318373104911
-0,0017649712412612
0,0288730097678108
0,0282855622284444
0,0260350757578902
0,0260927252582149
0,0327495841008202
0,030250234262294
0,0313850474806379
0,0243500562725034
0,0361626956870493
0,0129936937304028
0,0311027782341235
0,038734503862916
0,0280329769704901
0,0269486186796943
0,0344052158592724
0,0336126533769923
0,0303351850756825
0,02439035866085
0,0235893760632757
0,0368831273286459
0,0303233070726334
0,0314180419785235
0,029955665092408
0,0410208667673298
0,0417919963955066
0,0319282410194941
0,0390009299300864
0,0419324319728801
0,0295668557502834
0,0361039031092343
0,0361736761149472
0,0364342607789376
0,0408090369665085
0,0374191719592969
0,0437009042181827
0,0394109617763273
0,0430834466475317
0,0538938632613648
0,0496645854519561
0,0444146326188172
0,0503940548679427
0,0549145738980329
0,0492313497133687
0,050860395440969
0,0545082001512604
0,0612052053130657
0,0589500370563571
0,0505951253249469
0,0544802365343108
0,0604790120624028
0,0620849494535882
0,0567625534998005
0,0665477329809817
0,0658872585449376
0,0669882511874998
0,0743595108608279
0,0697801094996165
0,0743160165283157
0,0779001774690009
0,0694712477280199
0,0817297856987904
0,0813649891404834
0,0868136706526922
0,0812319120612199
0,0813072820379744
0,0866884675028365
0,0935025341337619
0,0988486386974405
0,0931803583173913
0,0890573254675008
0,104558258036698
0,102970083059181
0,113834777246362
0,12030754956896
0,111058125164052
0,106881301222779
0,118622140402472
0,122998858077108
0,123967273254615
0,130606367012189
0,127086342152528
0,146645797822213
0,140677572582023
0,13985421514164
0,150096358732219
0,155313997369099
0,155156110201367
0,154303911544481
0,162985055959814
0,164779016200824
0,174417110292372
0,17200870184574
0,17750066217266
0,193436073223608
0,194516593708123
0,186755193596479
0,186337993341809
0,192073155200334
0,202233319451464
0,201594261049123
0,22277172398604
0,215317277776984
0,214571598192554
0,198533878128224
0,213428457563217
0,218026967206339
0,222523177748614
0,224420373202331
0,2290267918754
0,238801792431044
0,236502955761576
0,234859654955653
0,24857329326719
0,251280933258602
0,248241600110444
0,256317508188404
0,258424279141967
0,268098963293936
0,268454637394921
0,282202573426367
0,272926690434416
0,282185257795304
0,303526533255341
0,312581179954035
0,270461688557501
0,280024223332395
0,268231316941203
0,29681007334692
0,306014022972262
0,314253463634704
0,308540862708617
0,312969656283611
0,310874370660553
0,311621188730568
0,31801065912313
0,315912535283578
0,319325369079904
0,332696573671127
0,327792648050021
0,338330304908962
0,334776763181162
0,340814104608657
0,326078834514915
0,344009441496354
0,363128938047281
0,352537668860695
0,358044759283076
0,356549501380974
0,346761798812591
0,362624293234283
0,360502908562976
0,362388741318352
0,360508085575148
0,37519838377776
0,367728706881557
0,369368564082038
0,370175221893984
0,397420207198632
0,391213855142941
0,406994942762322
0,393046343502468
0,401156717270497
0,393245772005258
0,408292442613863
0,402890003539177
0,415801259613482
0,427708184279505
0,421194142118056
0,413659556979266
0,422341691826675
0,405977599548161
0,419856595185279
0,435139192002515
0,421049937857838
0,42133648214729
0,450129675491319
0,444652096034987
0,440501190182644
0,435346014323887
0,450612443551844
0,45201697015181
0,455433229170952
0,44828800806392
0,472109622948188
0,461458261883018
0,48795947476758
0,460778033151128
0,500687256558213
0,501838033912639
0,490469123350088
0,472747276074777
0,494975992751303
0,47917666762986
0,486863364401354
0,481721230637756
0,514839185332063
0,496381395367187
0,511821682852311
0,501103457692428
0,513783900341614
0,513681432860509
0,527110126524604
0,513243064131878
0,547428907932884
0,536619845870332
0,548268839804989
0,543806976688729
0,530341432423119
0,513855186256416
0,560236614090533
0,535365097761902
0,558573886675892
0,54118755711502
0,560415670187514
0,562910220889351
0,577203290547112
0,561213071507832
0,614835179098269
0,594305141060798
0,584411262816469
0,581416276373526
0,604730506180693
0,583783258810554
0,622037156642076
0,59914915903404
0,611296101741363
0,599720359938753
0,631360930447886
0,629314963611549
0,617593650438464
0,614487253311371
0,658731824912642
0,638278076613365
0,643756150011394
0,619536533804146
0,623192274420918
0,621250019672041
0,6625429174751
0,650987782298248
0,668525237454734
0,658144519657103
0,673233601011204
0,637774147933574
0,661649678895177
0,643534413311505
0,669361550450098
0,681133451117991
0,716378096600636
0,689993427278435
0,7336677059277
0,689631644261157
0,734960152282838
0,675865147163846
0,71584595460511
0,686975615243922
0,751882732199048
0,672243241805883
0,7473803184881
0,702560377964703
0,747827272411387
0,728986386120524
0,725263126625296
0,706708799103004
0,796237339879468
0,744015692164765
0,790048607550378
0,731940843898824
0,786792781815634
0,740077528833781
0,757691950011264
0,762526225367505
0,822756585051699
0,75253446957132
0,797502261287455
0,756415917396554
0,819270074460157
0,754881852793419
0,824987327829519
0,794231346128288
0,817330570577406
0,7572512206602
0,83187840440725
0,814587181782061
0,837456344632439
0,833103921836732
0,819501003167517
0,781871231332806
0,845151314723022
0,820190605125246
0,878632027653445
0,800119891093221
0,822014430219894
0,792026264107788
0,897458232155306
0,7841337654113
0,853977333056036
0,836072015066438
0,889254435582459
0,852799794648479
0,928958695798565
0,884461542203739
0,945704358915929
0,899617583688288
0,959204202480546
0,933606968755427
0,938095720608374
0,870402378098656
0,916697056482235
0,950470962015367
0,926993322689684
0,835650305120849
0,926965855084966
0,891891533118719
0,97331647407691
0,900692082000798
1,00080387224063
0,89625496062439
0,928234133684466
0,907476493968503
0,994070993498747
0,916452997621811
1,0159256807462
0,928322637606849
1,0037221150264
0,941039991936778
1,06941168137979
0,939592928428124
1,05083952590359
0,921122945041847
0,946802371484161
0,935362364154416
0,950493101140617
0,902654674422694
1,05192787005871
0,991113193425839
1,01593314851123
0,934927234787253
1,08107520741488
0,98465827793896
1,03735945719229
1,04469286509694
1,06531788092012
1,02979127637037
1,19250115506979
0,975118269253414
1,09108610603496
1,06486072268526
1,07402949833015
1,03883206460384
1,11087023962874
1,06089383368058
1,17118818132199
1,00648088919153
1,12304859486989
1,07682763458347
1,09594793205315
1,07647282490566
1,05174017885038
1,04597756761862
1,15603756447259
1,1567623308289
1,14580805993838
1,03000733616756
1,17963073616836
1,05916961051565
1,15807201788509
1,00439537198349
1,13376028823207
1,03371773651133
1,19866045332416
1,09039327599113
1,13380446874201
1,14393440079077
1,11984645381801
1,1285454840101
1,14819816033466
1,05788769649204
1,2800864045222
1,11259814827846
1,20706656297488
1,15091123896316
1,25485828443216
1,13862595176897
1,21352271097868
1,12447348132348
1,24804378561939
1,16947890883712
1,13585454407728
1,11738965339619
1,31399986019056
1,14653677447302
1,26720248503773
1,10196907057898
1,20645621107942
1,14334878130849
1,2978423726514
1,15094211334889
1,21938763116892
1,09999158425425
1,21760963606429
1,09670135485875
1,2509284040321
1,11829972755518
1,21641020777256
1,24798056020389
1,19678267781934
1,14961100837596
1,21366675708912
1,23485275515695
1,24056130280454
1,12783492936989
1,23905154042363
1,21221329594925
1,2566240480332
1,06941273055494
1,20613070433843
1,20791746877378
1,18274978834801
1,17744700139738
1,31554343272505
1,17219341355061
1,16348307149845
1,18623755818064
1,29579443305225
1,11458234549345
1,33994206667302
1,21945014434005
1,24172374673103
1,1374567169362
1,26785605946889
1,20628057577402
1,28926263410857
1,16886859033731
1,24853703591146
1,11129160612149
1,28324932852638
1,21556008832169
1,27974566470389
1,22626941674231
1,28664251487425
1,18372998257439
1,28981687163733
1,14710041564282
1,21943789026415
1,20631634776453
1,23862944476082
1,20507118830452
1,33959728702707
1,14103562432172
1,26094144162694
1,19784895302323
1,30608471954823
1,17370580604802
1,18193351320923
1,1229290167761
1,27086084456894
1,1660384231459
1,24878566079952
1,20995487564133
1,17263975981017
1,18451515676234
1,26710209898368
1,17932552188326
1,28808956409896
1,18627211944132
1,19353833100127
1,15511444742711
1,19465701115113
1,15739652323488
1,23120827139296
1,17603262474417
1,23820411714775
1,24907292052419
1,21530087173879
1,19987468483951
1,2564355252535
1,17154831708864
1,22896139809405
1,21612264574218
1,22096414671009
1,17688544007282
1,21894648224398
1,11476325950351
1,27800834429861
1,18298166782879
1,26315705453489
1,19831760101881
1,23112376460468
1,15483182680326
1,26372732082178
1,2106451441746
1,28825526015178
1,10919829150363
1,19721243441583
1,12850862317015
1,21486857655359
1,21369279045126
1,16387773512596
1,19575207897043
1,24099212638069
1,13061167831943
1,24994696959603
1,1372330455357
1,32124296866426
1,10200942690162
1,26503484861078
1,17006129258257
1,19623489301339
1,13642164566704
1,2597585488171
1,1771222706262
1,21552370529268
1,13047395301195
1,26378785198668
1,18795889054701
1,22483030052305
1,22053320553008
1,26722723058911
1,24315923894208
1,21326734122981
1,15966316422723
1,21307008272089
1,23530643496594
1,25215522384244
1,16845165163003
1,1859362063301
1,1439059420392
1,16616023717372
1,14824113488123
1,19764917836705
1,10304086642504
1,2044565491488
1,14027136508626
1,20772982843127
1,17198888554798
1,20269030665254
1,20007495181913
1,22051212599113
1,15813897446109
1,1665861995577
1,1284892596546
1,21673977126332
1,18119468452896
1,23476965194512
1,16459717398929
1,12784005590562
1,14695687440278
1,16272562058071
1,162550865416
1,17287366261671
1,11878029003221
1,20958561504678
1,13427633737427
1,15346928094382
1,17724917670695
1,2288256769998
1,10059077894425
1,16656996581017
1,13282743235531
1,15598023434362
1,1109036207262
1,20179648349419
1,15594774306596
1,19491434230805
1,13875503277914
1,1730415417104
1,11122433856406
1,16418619066829
1,08439584715481
1,15684358602063
1,04766898640943
1,16042508304394
1,07574447123075
1,13517324081807
1,07823387630299
1,11678199649612
1,12702419226474
1,10264486885842
1,04661202775958
1,15597263227002
1,07721318193822
1,13990919391725
1,06012929954223
1,10022610334051
1,04205453337607
1,09691330111097
1,02364168432124
1,10524735769116
1,07147092161856
1,06435440837607
1,03582077393255
1,07184868623759
1,01237138946355
1,0855671399013
1,04687954428366
1,07603604826614
0,989305337887944
1,04272064362217
0,990550804799405
1,07920826068685
1,02682496474512
0,995414179038987
1,0092655440299
0,999971142708296
0,981674584743776
1,02648681860643
0,988880056860606
1,01799263093649
0,976183030265656
0,96580682601622
0,985536125440388
1,0171604855671
0,96386552171617
0,953908420701095
0,914372947873283
0,956814218998249
0,940277853805391
0,964175295437968
0,909214722756868
0,959772765985047
0,920007576666783
0,928302040816794
0,892781123156796
0,925029311781053
0,877737006278541
0,900218521247383
0,868019382341461
0,904257075413617
0,86009646041833
0,883919698303238
0,862430748978529
0,84791364488312
0,847484545760049
0,884506419397086
0,841500606405976
0,873309591548174
0,852951953973353
0,856123652668651
0,833026092865322
0,849540091079062
0,813474534707061
0,834697043548815
0,822466871289193
0,81240477069748
0,793289868924633
0,816213771603428
0,766771360358018
0,801796880704575
0,778895425951467
0,801307647697325
0,7802354914103
0,801528486653391
0,761167897406547
0,796562927177848
0,753890536283095
0,772553698023453
0,744297492343628
0,768395758460924
0,739713858573329
0,719885089520339
0,726883516140844
0,736402161064158
0,721069538747338
0,746144447958919
0,70346927461456
0,732478856494165
0,700762927258526
0,692645786596888
0,687830225191479
0,700204992556461
0,692377327234738
0,686582510814285
0,68594365121026
0,694670509875084
0,659202970947452
0,674422296757182
0,67369871018152
0,657110036524791
0,65317586013382
0,645409543603585
0,652252568655566
0,652271499612151
0,6328710373342
0,642943390272942
0,615161824257841
0,631661520442868
0,621030666433933
0,623082333332373
0,612187471953244
0,616457306311734
0,593944073115558
0,613278011766791
0,596601387995645
0,602278231060122
0,577114234376755
0,586846784389597
0,569014068790994
0,5839563588743
0,563862379988715
0,574071975571789
0,561564532007903
0,573524320887803
0,5476215897732
0,571150643977911
0,544109921480649
0,561568514156437
0,532875081558393
0,545581765970891
0,532344713143089
0,536295532347923
0,529648613601828
0,525144601819732
0,518980811346569
0,521743952190586
0,505231522693173
0,511430380063843
0,506876217762592
0,511745692727948
0,499151802755201
0,501749220422098
0,487518535685106
0,49471336981995
0,486205245721498
0,481116305956994
0,474950037051033
0,47736864576162
0,464030184433297
0,463459746537786
0,468146504410489
0,466178630284512
0,465152764818989
0,464343926910564
0,451759838581095
0,456803328729059
0,447331487284626
0,43686893196495
0,442912986138409
0,442349864524156
0,429280118217663
0,440107749761595
0,437503702764478
0,436236811642316
0,417526898989608
0,425477797315265
0,424459056669997
0,41444797555625
0,409148524083356
0,419020995408875
0,40209158106135
0,40558696086826
0,389787551176571
0,398182592102277
0,390889991189739
0,393342897682746
0,387191188500814
0,39089024157717
0,382577728111173
0,378663941589434
0,372754998687174
0,377836723315845
0,364415051470807
0,372129085766792
0,361190721046141
0,366706183380082
0,363238702330833
0,363567481560676
0,359186712950878
0,354007538332915
0,351800396944107
0,355895305873962
0,348731087254001
0,343439701021746
0,335741280930788
0,343588376190301
0,339715309322418
0,334048084637563
0,327956021221474
0,32907929709517
0,321843430408439
0,325909510301837
0,317620062870083
0,32514054047931
0,319449028757145
0,320979667448213
0,325391725331833
0,320920036035789
0,306908534331331
0,310084100495973
0,312399892543801
0,311133438122465
0,30189467957881
0,304475208070385
0,294150047778957
0,297946376071865
0,294604682077342
0,288617002584104
0,289026336629547
0,292498065506229
0,277446734263295
0,284048946212868
0,274856400599079
0,282307236914596
0,281476280652281
0,277476388522629
0,268977790492671
0,275841442718656
0,272750929922949
0,262453256394329
0,264963041508383
0,268414889823206
0,260281556426189
0,266813812252807
0,261698041000568
0,263981060689581
0,258260707008475
0,257896731535719
0,250640297006695
0,251660656821894
0,252765370137237
0,250245825027586
0,246202467598823
0,247397668754991
0,23706832477933
0,241168149987881
0,237990595431749
0,238891599555372
0,236523506414556
0,236806444163342
0,226416592714593
0,23566844344955
0,230072003498064
0,229954330653295
0,229958964141794
0,226735764452912
0,224090678767256
0,222717350197775
0,224603895021754
0,217611621807079
0,218362974061132
0,221712669767973
0,214661620939003
0,216860493972537
0,214377808481207
0,216329402399682
0,214927254062652
0,212786686205302
0,20354601813945
0,204421685497795
0,205022067741038
0,209206302250182
0,203875270833299
0,202140844138526
0,200648851888534
0,196432057682336
0,198405703272382
0,200449251824562
0,202097552167638
0,192957051475678
0,189843996427787
0,193478953599003
0,193365864627018
0,195232992965789
0,195581312529405
0,191225392273182
0,185954261665411
0,192853549253089
0,184607179475253
0,180255223228705
0,180846582882288
0,178795524731315
0,181560735479484
0,182924970415502
0,184817100556402
0,181234949736263
0,175433066790803
0,179615609597081
0,173744183837937
0,171997931925459
0,175266794541545
0,171879309679134
0,173467525316488
0,16666779201404
0,168583955985357
0,172292691618376
0,161394851136775
0,166967634781909
0,166294137417829
0,158984546979386
0,163109801992562
0,161189797468266
0,151678296989126
0,165515422049143
0,158913164575535
0,158340387546577
0,158801269162101
0,153568198308244
0,151850712802806
0,152662828481305
0,151262807818264
0,153363175659514
0,147683468847733
0,150762616107312
0,148477525030561
0,151038475676013
0,15240827118918
0,150467988467862
0,14441536148649
0,143475468653628
0,14515701596394
0,146858276193611
0,140969296031541
0,139301925148404
0,143355272494068
0,141075300367109
0,138479525614806
0,14116285950936
0,136483593880348
0,1348585164057
0,134593313026181
0,136420020463138
0,133659179273848
0,134260664888096
0,134415547255571
0,13280428340216
0,132031263329384
0,131299430795644
0,12968658071281
0,128642542113048
0,127543935499285
0,127750554220867
0,126967757231775
0,12516396005588
0,12377406934748
0,125348177717224
0,12461328950821
0,121938739584442
0,122141010276328
0,124929671249501
0,118538407335887
0,119007113015115
0,122859533028101
0,120594736529814
0,119291933206046
0,120310518634234
0,117318770874287
0,118749980093578
0,114919502295103
0,113583080763261
0,113704284188634
0,116366121028147
0,114337894218709
0,111876004989923
0,113584189712328
0,113040591248561
0,111329689756206
0,112350484813822
0,109927027195372
0,113847530484911
0,109654039935285
0,109903660926056
0,109165796660091
0,10444010175559
0,104144453951041
0,104562758421806
0,102482492883557
0,102578084409247
0,103011182933663
0,102755122388918
0,0992680878281658
0,104947927175047
0,10218104261126
0,0996566726004772
0,0996064297833956
0,0976527895646448
0,098468503722818
0,101157000513996
0,0992427444399589
0,0974095091195381
0,0970082782630372
0,0981186780848834
0,0923755979361114
0,0932100188923884
0,0972047185903949
0,0956658368631907
0,0917311225956108
0,0900589622250226
0,0950531582661305
0,0985240153859555
0,0885624158995867
0,0917644206964322
0,0928126287439382
0,0902317727994541
0,0904038252603752
0,0907464615771407
0,0917515691988545
0,087820945890609
0,086834937936761
0,0894063823491279
0,0851672488318011
0,0848406474392214
0,0867645430290928
0,0893316799006861
0,0841162888407553
0,0838670929910507
0,0871244716750153
0,0830098651542606
0,0835214089928663
0,0855741109518597
0,0799304352243158
0,0815768625300688
0,0851097433686081
0,0870434596511755
0,0804957594745909
0,0837466500897158
0,0840458564497035
0,0815442907094298
0,0796009117088523
0,0832905135211042
0,0833589579975262
0,0805884968940636
0,0803504487679509
0,0775711579094299
0,0771345125602627
0,0779375232453281
0,0787377059717363
0,080075483551418
0,0776004441906213
0,079159775744301
0,076859115738628
0,0736188112967713
0,0782865616737728
0,0799759461099222
0,0763468742012004
0,0754537278903079
0,0744254393561022
0,0748846896002696
0,0739274989022266
0,0778833670256093
0,071652375490651
0,0723619982963195
0,0738009463695823
0,0715296932480919
0,0718887034455649
0,0703950005719011
0,0727880897057203
0,0742223233171029
0,0705616508000396
0,0729722639049647
0,0731233358357966
0,070297784533433
0,0702385936661616
0,0701829882617672
0,0702376264396456
0,0729156388491625
0,0704126910688907
0,0674331772104771
0,0682038392059274
0,067862177609366
0,069627050633434
0,0679438626228624
0,0676976384767603
0,0690307334370872
0,0666108513029972
0,0686027255176087
0,0671220546942372
0,0691535947825668
0,0677667605786693
0,0675272461569986
0,0660165843866705
0,0660081347170723
0,0649443784174234
0,0637900215682826
0,0626625990328274
0,0655768903477671
0,0638022888175531
0,0628203924300574
0,0647938812372768
0,0665196642730039
0,0667639321634109
0,0638127512170558
0,0627713613828893
0,0638540598631698
0,0660718940193262
0,0655432085544167
0,0621087999978846
0,0631793733112975
0,0645407208074389
0,0639456451436782
0,0624118878178166
0,0622195330036797
0,0605359316549509
0,0637164068061789
0,0652371418108426
0,0643102680065452
0,0657244700168633
0,0645951965598516
0,061743908130834
0,0600754663373894
0,0611028635394236
0,0635929630816805
0,058603311668111
0,0592016786875552
0,06211792948396
0,0627489508142505
0,0617537460096036
0,060879640174436
0,060291346185428
0,0592380566229886
0,0604534284514621
0,0610328770489326
0,0601960362143629
0,0570317004401243
0,0584199865433049
0,0599480362542284
0,0603276616359924
0,0576276604973288
0,0573942698075354
0,063931159107087
0,0608692681037065
0,0597713437598391
0,0581972221326042
0,0599457614881634
0,0592911697355726
0,0579193460418318
0,0570802576614236
0,0570122338474076
0,0596942537393497
0,061067038424645
0,0600388511014627
0,056868152049328
0,0545103832417686
0,0588377475903435
0,0559902520351504
0,0581583330653272
0,0574917614334106
0,0583021212077635
0,0558613580000906
0,0585753844867284
0,0590029431190227
0,0570008720287773
0,0575501553525149
0,0575987684782718
0,0567425753405799
0,0555276303206492
0,0578699529178465
0,0552354551520482
0,053414382411588
0,0550369832708179
0,0571440376075638
0,0581079153375051
0,0592703003233339
0,0561543704742567
0,0562051492384229
0,055207671514812
0,0531423263268251
0,0550324113995749
0,0541769403692345
0,0534186381600635
0,0558483795796172
0,0551513575263248
0,0545213435446797
0,057314985617965
0,0559900633782442
0,0556567768608193
0,0529195417219904
0,0522490187153315
0,0530884624195756
0,0524621066288032
0,0527713222564353
0,0553367137407381
0,057510658812322
0,0532407492052592
0,0524278119261631
0,0531031426185555
0,0560034601809691
0,0560950415397402
0,054884138693926
0,0565891316080302
0,0527096906000973
0,0520026160900792
0,0542659959797928
0,0565767727084685
0,0534601887571148
0,0508755307207601
0,0502649156986985
0,0507387948262535
0,0526815963093855
0,0562505123025317
0,0541751521224508
0,0540970513744671
0,0538673155283159
0,0516205993450885
0,0496604485752839
0,0520015399954122
0,0530666798212718
0,0521642327258915
0,0535251006233562
0,0528370125327876
0,051841785501644
0,0529048277848165
0,0544509941018558
0,0538134048972321
0,0528397417125538
0,0542087896407983
0,0531802657047987
0,0517767524700708
0,0485675511518156
0,0498612743568294
0,0530728369181583
0,0491174671187631
0,051601705797541
0,0525603324529019
0,0506602167328025
0,0514647672249762
0,0519828307844583
0,0510537532229873
0,0496811805374188
0,0513476576216288
0,0500514050318886
0,0501024774293189
0,052304274114474
0,0519165736987281
0,0510137629909012
0,0541179296946814
0,0516114428679158
0,0512161626414763
0,0526092927769819
0,0532661405193383
0,0528076839886644
0,0529050765558357
0,0501610986281024
0,0531327576181744
0,0518681078042945
0,0511763802542191
0,0532137899659307
0,0522171963126319
0,0504331556097786
0,0497517737014722
0,0522640722946193
0,0515159025606183
0,0508457441540021
0,0551239628608397
0,0518143680060385
0,0507555830970661
0,0523266496324877
0,0513650136562178
0,049135205484455
0,0527246409429269
0,0546663833803772
0,0538161293621803
0,0529538477248126
0,0512529378775564
0,050505979765293
0,0516289534347223
0,0516587626556746
0,0542810649792326
0,0528860060021345
0,0520031716390083
0,0460770349285016
0,0516485802661663
0,0555229207854805
0,0533466327931497
0,0499753480267023
0,0523428232840258
0,0531526250008203
0,0520506310581035
0,0514969518175573
0,0521099630015844
0,0502192895954709
0,055005464347188
0,0519762279766233
0,0535730246402784
0,0535658622406324
0,0510389442418771
0,0519308120757516
0,0520387851311367
0,0514836129173415
0,0516752745584349
0,0551705784859975
0,0499848721439497
0,0520749555491862
0,0523074586592093
0,0504768948890641
0,0526278230446245
0,0525638434855806
0,0542537484114335
0,0525121516505436
0,050876557379923
0,0532566042943192
0,0505209930464029
0,0560420613064803
0,054683683997492
0,051641233940884
0,0532611710124307
0,0542820407312887
0,0518800418703925
0,0520400411019799
0,0529427228011421
0,0533367301607579
0,0530232983362803
0,0523465338883368
0,055094495106504
0,0536391399578873
0,0547138016645418
0,052435787671528
0,054931313756701
0,0527360980053067
0,0530664603314949
0,0529064477189326
0,0530142870545651
0,0535524879150716
0,0529274620671307
0,0525489821689914
0,0536498660378653
0,055380783490397
0,0524300567420504
0,0544754243721948
0,0534070049998948
0,0546074362100304
0,0521158733665425
0,0514489901060194
0,0526798814238339
0,053674644652178
0,0533453595095074
0,0543770130862409
0,0553228963456865
0,0527926133398509
0,0525590508703246
0,0528812845322266
0,0546493337115357
0,0543068480910629
0,0538684043970408
0,0556997712788731
0,0559792587958605
0,0564752562001425
0,0541302016858008
0,055378969705976
0,0547896958304175
0,0540253173305527
0,0566881777697025
0,0532071239936424
0,0540326953263747
0,0555519889391832
0,0559900867975077
0,0551879383859134
0,0543499529024629
0,0542269417781949
0,0543952369107076
0,0566119554206483
0,0556420257294548
0,0555850099235558
0,0563842148008663
0,0572081104721427
0,055212271583155
0,0562659981074826
0,0570908267563809
0,0561011577252719
0,0557505069327223
0,0555554942047788
0,0546654717050402
0,0553760757913119
0,0541090103028835
0,0566309818559686
0,0557042474837601
0,0547109008627107
0,0576331554333923
0,0547167212217715
0,0540219765665679
0,0571954391522106
0,0553671255835925
0,0566071716169218
0,0580000400189259
0,055003463338736
0,0578114440993549
0,0540281169387537
0,0577615432722237
0,0604827950102825
0,05896299047284
0,0614266095813528
0,0590680286958731
0,0582563854796529
0,0590102515848523
0,0607207083283592
0,0575899669733779
0,055553466784182
0,0538969663462855
0,0572186202706849
0,0564050036683129
0,0557256451479155
0,0557954619167676
0,0575563182553133
0,054686973989602
0,059660433967527
0,0592756792176862
0,0574344378130582
0,0595149721788635
0,0600176281089742
0,0581436426289154
0,0592893536513891
0,0581043502682817
0,0601624055549802
0,0594001280178858
0,0576613869369234
0,0609419738163042
0,0587100175859073
0,0577330431556506
0,0601131371880442
0,0598486647640892
0,0589477318452932
0,0573298729968417
0,0593993735999611
0,0608828506609689
0,0600696712337556
0,0611070298397206
0,0602234725726665
0,0584845324901985
0,0636916724761024
0,0613832283206773
0,0612017500139534
0,0599937632696571
0,0612131696936163
0,0589085691349772
0,061102685807241
0,0620380556215369
0,0588675710530666
0,0592004417508203
0,0603065884249327
0,0618630575676949
0,0599528540524052
0,0589734509487527
0,0636169495893287
0,0606526248187487
0,0601857073970275
0,0613959216539986
0,0635084690669428
0,062919417337836
0,0618147102441079
0,0613486888892949
0,0601349416647576
0,0628176883276809
0,0646643054912781
0,0634841534527372
0,0605954498972245
0,0608791639095796
0,0649510000459636
0,0614833868486592
0,0635290438499062
0,0631925096557842
0,0642981687162385
0,0612590268622375
0,0637955305243605
0,0637131306427466
0,0632797026030061
0,0617763846258338
0,0645712286349985
0,0671113801339658
0,065083935439142
0,0602656166746893
0,0642066254547112
0,0650581803073042
0,0658498983692559
0,0622915026577555
0,0654076230226036
0,0643075035648821
0,0652163736947705
0,0656836301720602
0,0643572976150456
0,0623283512479034
0,067208430554179
0,0652838883425418
0,0677213624378917
0,0664500876047004
0,0694605604851627
0,0637367903843536
0,0692654854090179
0,0644066595419452
0,0680490678581844
0,0653998596554093
0,0722731967614836
0,0668533921419059
0,0707836586115917
0,0632284994385239
0,0651518272612861
0,072741097336123
0,0709345816821837
0,0627566241762926
0,0702302853944291
0,0658286449417951
0,0735778566575633
0,0700083417164365
0,0683175274764791
0,0651116755090234
0,0689240398208037
0,0647463043087086
0,071194246393201
0,068194588777833
0,0696542317179224
0,0683910743360763
0,0710440436793535
0,0668131627382283
0,0681549649167725
0,0635834241800996
0,0728031952055041
0,0686767818214321
0,0690371892818787
0,0667955858627738
0,0740437194404208
0,0640953123695593
0,0724161283352896
0,063009847809071
0,077070776884976
0,0696418108681295
0,0745006969715179
0,0701770270066872
0,0733979170521676
0,0678472411951214
0,0756583500631044
0,0677593297410316
0,0752327122449364
0,0673368315136221
0,074499596433858
0,0684405915714755
0,074538804054512
0,0718336666073321
0,0753721096803692
0,0759970014084913
0,0734597841718092
0,0714200173879325
0,0751350993951049
0,0772559405644287
0,0716819709227929
0,0790134981028739
0,0681595822468935
0,0755316617128333
0,0702041504537227
0,0780515460297037
0,0705470701798782
0,0783919793077296
0,0707430501518441
0,0759299685706975
0,0740857358927573
0,077488650634302
0,0763904268886719
0,0742955543471121
0,0744315693341385
0,0761985847762887
0,0788214742686092
0,0759795689195868
0,0761261712755138
0,0781270764218589
0,0741166341895231
0,0768304753517494
0,079406140506301
0,0782006956273256
0,0766985909507314
0,077302554691026
0,0742708788334613
0,0798827095913636
0,0767046668385088
0,0799680049443749
0,0776220494978311
0,0755413503919329
0,0798880365003382
0,0798743217757864
0,0755386213179946
0,0796361704127196
0,0807074551765313
0,0811180781754374
0,079420742747793
0,0772903864482255
0,0794087085400847
0,0774838322361232
0,0808546620743144
0,083144677711097
0,0795778254125111
0,0828560008619578
0,0805609665404535
0,0821788459056781
0,0824260269315622
0,0815393371150767
0,080005440847829
0,0840209214311477
0,0804893721548626
0,0851248169697357
0,084025699484647
0,0813885281682097
0,084491564535384
0,08372794378834
0,0821002622192096
0,082436701347205
0,0834466312188303
0,0874434967504926
0,0853992429294558
0,0836753882745707
0,0834166369259539
0,0834875861534861
0,0876789188681514
0,0860358261056852
0,0842453213190665
0,0845928658418527
0,0848096175098675
0,0835515810859187
0,0848862319038799
0,0892379337434321
0,0856444325065558
0,0869754731069387
0,089797092294251
0,0872943638325436
0,088521046430817
0,0871790350489019
0,0902028441296868
0,0893308620805378
0,0884327116173878
0,0875600586754994
0,0899825387162439
0,0892339621775389
0,0892548184649312
0,0886167317192982
0,0884209572656265
0,0899806131463696
0,0930453722951989
0,0897303957036072
0,0910452035316092
0,0918645870327681
0,0897408526088112
0,0920925315501613
0,089566365686063
0,0896899649583296
0,091435740418722
0,0902298531010757
0,0935702990761358
0,0922506261573407
0,092657035848658
0,0928661390377778
0,0922812249921734
0,0930438918541948
0,0942618103384202
0,0935903246038676
0,0927970709780754
0,0937404658605951
0,0937707737219717
0,0911949326611298
0,095559267587983
0,0949775199975146
0,0934923820877892
0,0955777638509582
0,0984918293205156
0,0954374140973641
0,0964780655587449
0,0960057963865268
0,0966199622402796
0,0948126444812031
0,0964039232330281
0,0976399287837669
0,100241564063945
0,0977641310009979
0,0964209063643059
0,0970157745503495
0,0976841931512316
0,0982920469441403
0,0979767141202086
0,0973573369147327
0,0987246875403811
0,0985289897500153
0,100492894502548
0,100421279571712
0,103358580419735
0,0998170128138349
0,101956323001058
0,0991709127021213
0,102036586122873
0,102142280657492
0,102133632445142
0,101390406543593
0,100116186353427
0,101667864828327
0,101148627027992
0,101862584889446
0,100379089603876
0,0999990064098759
0,102295190908288
0,10269202048862
0,102397920491129
0,104940358880302
0,10374793350617
0,103827467760518
0,104190616311998
0,102777300161045
0,105214189088514
0,107293754517037
0,103732662631946
0,102188793237512
0,10249760056674
0,104340846565865
0,105363471660987
0,105056888100845
0,105199190747959
0,105244987385951
0,105823139707138
0,106730540936635
0,108726000626802
0,107064046123022
0,110391019504962
0,104463373682758
0,108656350838117
0,105306968370455
0,106528121526662
0,10700663083042
0,110214094844647
0,10775723691509
0,107976968668468
0,105383654495448
0,106671046492756
0,106857743128044
0,106509233267807
0,108540948295503
0,108994862105142
0,108290989961858
0,107550660066837
0,106249334603729
0,106920078217148
0,109032915856677
0,10880419288017
0,109703736099803
0,109587819051892
0,110823136454225
0,109283180885216
0,107978371739894
0,106754520669397
0,109524922628843
0,111186095069483
0,10865353246165
0,109903172329045
0,109297173479754
0,106600833014575
0,110849235510283
0,109064274684747
0,111262662618901
0,110855415574873
0,109038680068774
0,109069167280692
0,109290538108478
0,109085334215062
0,108101168784163
0,110958197927165
0,109288762364
0,109569428886663
0,108969206206745
0,110101375370347
0,112791432467073
0,109785679717935
0,108739013705283
0,107439987891337
0,112524549902456
0,110973954742022
0,11019523959797
0,110606108989972
0,109147469777728
0,112250666558267
0,111471233612178
0,111166379261846
0,108184761972933
0,109582290390163
0,11211588269979
0,10638869922309
0,110390845242527
0,108602876238287
0,107886573753219
0,111332439529037
0,109111790784434
0,108682273928356
0,108566340187802
0,112211904806878
0,10803433013417
0,108886098256393
0,107965633766366
0,107825269371631
0,111726874114626
0,109286526914246
0,108083328484184
0,108871519335888
0,110469383629355
0,11129292171717
0,109840122058933
0,109145747248805
0,10849860673287
0,108830111845481
0,106502101855491
0,106739395975351
0,106660418456985
0,106946000751226
0,105649713667977
0,108451389830396
0,1067514696703
0,106924911508904
0,107427441623306
0,108252648586878
0,106255898659853
0,107987033987843
0,105627300885095
0,106475635403094
0,101302547798024
0,107191832634536
0,106164174207939
0,104532965919272
0,105443330245695
0,104774462864036
0,102470887351968
0,106270665274699
0,10364666657258
0,105003874610643
0,105196877539249
0,105283502998771
0,102842364379235
0,103837226159888
0,102404937104553
0,104481434457664
0,103597052311418
0,106262836610556
0,102903146495414
0,100594404892488
0,102551591298817
0,0995915224269332
0,102493851702067
0,101712999211269
0,101991056708019
0,101419444511911
0,100012417503517
0,102463055509608
0,102321495487104
0,100546674052022
0,100865336405003
0,100565492042253
0,0972859380369006
0,100748841306571
0,101853454863511
0,100605212314003
0,0980926735698959
0,0984097398942431
0,0978242797558206
0,0992521698104518
0,0986229165441018
0,0978689091791013
0,0968656413868886
0,100896761106138
0,0957568863698206
0,0971583469898693
0,0979301804501801
0,0966762626148495
0,0964454790083645
0,0978159179010035
0,0933062385524647
0,0980511187449027
0,095739086823206
0,0965342954235234
0,0982513120630761
0,094382736471813
0,0931716417262804
0,0961977211113483
0,0936766986015479
0,0933971620236649
0,0924325121148729
0,0935760696422885
0,092142498852804
0,0926598935680185
0,0902483337930982
0,0921084664967671
0,0898620119108547
0,089647838386005
0,0906816641121785
0,0933763820998833
0,0901401277958215
0,0910503816349188
0,0923081156503579
0,0897492185174205
0,0898083385669681
0,0901904432564068
0,0903237678924242
0,0900847885302902
0,0885511432586352
0,0890471209261258
0,0868757186318858
0,0872763918606106
0,0866658468610003
0,0877100837675921
0,0869784355737081
0,0880085043644198
0,0870686788676303
0,0870974125094294
0,0876512923575096
0,0869867299658327
0,0864716978321056
0,0865381799461041
0,0848150631533162
0,0847532508078109
0,0846518257686741
0,0823284604853306
0,0858558581591389
0,0851478037072846
0,0854649618315121
0,0846331614058406
0,0837359302662224
0,0818966198173557
0,0839045496609416
0,0850856167867159
0,0831242890614401
0,0828104236834151
0,0824163033483671
0,0813742584923155
0,0841776858366417
0,0828554527948694
0,0814622475291629
0,0817365130448545
0,0818898763121025
0,0821060369495439
0,080941580543968
0,0809440216264518
0,0785885622489731
0,0812076281248634
0,0816346709638779
0,0790088749260248
0,0800497304993263
0,0808198892441423
0,0794253238807441
0,0792555553166739
0,0773083116911885
0,0778478614007077
0,078111826042303
0,0775728829428043
0,0788823704596052
0,0777134994359318
0,0783770066561237
0,0781077323948968
0,0766959376639148
0,0802291754598634
0,0772994972948021
0,076572131780793
0,076239894227084
0,0787319399336922
0,0733958685531657
0,0766933367278976
0,0742183716654604
0,075437820115863
0,0747942452813376
0,0769542824385407
0,0761683006935889
0,075410809631537
0,0733639453529171
0,0777440494217897
0,0754399468455936
0,0754878581814157
0,0726287063044849
0,07375143244127
0,0742639849530883
0,0741536087230979
0,0754741589381681
0,0732718405514049
0,0750340375072719
0,0760842654605421
0,0712513382688812
0,0754412904782786
0,0724259206023306
0,0731244596520472
0,0709865612950089
0,0714278799898963
0,0697666488630734
0,0762067375047711
0,0740246706521771
0,0714607903608652
0,0721711571747315
0,0712519101665286
0,072883987981797
0,0725664542916824
0,0725515027724176
0,071734422018239
0,0726368203558659
0,0718124093374388
0,0694905206287868
0,069725905622173
0,0722065298706426
0,0717425131468141
0,0714687697413502
0,073845205763189
0,0686490101863227
0,0711406919715055
0,0700707125542838
0,0690330428326621
0,0690881021282292
0,069558699731586
0,0691512214426459
0,0718691864058028
0,0718822089286276
0,0704098443471515
0,0717133576162707
0,0711716428376203
0,0683129502003778
0,0693020271605701
0,0695124225395328
0,0705936753461851
0,0681540958246684
0,0690289604093924
0,0693185447151099
0,0668153587243779
0,0695211555602456
0,0712552176365689
0,0698851266904882
0,0721760208328603
0,0689569307353079
0,0691980027333211
0,06942991254364
0,0699642948948294
0,0694553526325108
0,0692468871448696
0,071142062504977
0,0699389976740297
0,0665288917651774
0,0673882762593022
0,0688347543184099
0,0723610173341642
0,0717073005131803
0,0690188894084787
0,0683859113236126
0,0674318609484759
0,069259622250061
0,0703663043839597
0,0693855480594722
0,0699844982131525
0,0701958854064788
0,0680292493421226
0,0678076467321793
0,0699919241138845
0,0714262536606632
0,0690299889642589
0,0711877610486127
0,0683297301504569
0,0685971701591201
0,067711227977702
0,0704958129689335
0,0661756752063138
0,0697069847157269
0,0712198906001224
0,0695862316407995
0,0694604345681342
0,0695885853720883
0,0701187777019678
0,0686439319171465
0,0725550534174791
0,0711404459383831
0,0702890242735337
0,071892138385741
0,0713042271020414
0,0694900032699689
0,0714544439487105
0,0701733685540188
0,0711307876604969
0,071122065595227
0,0719175750167456
0,0711876898342857
0,0705330126754301
0,0715465665020007
0,0744951717277873
0,0725318158001129
0,073427042723022
0,0707258861838584
0,0721519733298535
0,0714551728674499
0,0733966021449654
0,0745409568831923
0,0709258679001825
0,0727886539420763
0,0727534323782858
0,0720865790258983
0,0709020454018592
0,0697904695597683
0,0752055462159253
0,0766484188909911
0,0744109731807326
0,0738184161633524
0,0746612953762834
0,0745257979726697
0,0760840291370821
0,0749900310729313
0,0740655473570401
0,075486327319634
0,0781893909246917
0,0762740995010309
0,0784155026748196
0,0801539672863291
0,0781044645824178
0,0772662513772141
0,0773334725662094
0,0778555821686174
0,0791916004808777
0,07939571629165
0,0803974346757097
0,0825043915499886
0,0779405317249166
0,0825483412206157
0,0799449164868083
0,0822579305281262
0,0810349658515258
0,0852396331835922
0,0822747965962987
0,0843492107682641
0,0817458803469375
0,0836850488274564
0,0831675252165928
0,0824916510540522
0,0856342821953341
0,0837538738630395
0,0854026970416704
0,0880646180578971
0,0866880058784648
0,0882886568210697
0,0899318206948976
0,0864467716601536
0,0933088627688332
0,0897285185960679
0,0897965955823522
0,0935985589153485
0,0925476304048737
0,0973002027497838
0,0913717703487171
0,092314439692611
0,0915329282135795
0,0928710986419333
0,0972256716932522
0,0934986701865779
0,0975390722903352
0,0984268348452992
0,0956737976673757
0,0985367351241151
0,0993115653641621
0,104568265028389
0,104444491971942
0,103891472462177
0,104764140145975
0,105958469811598
0,102840543034565
0,109591262415253
0,111389748525926
0,107972258061339
0,114809935338277
0,112620592511685
0,115597076810649
0,113722116994629
0,115810568801693
0,114327838327751
0,11651624715104
0,119899531964648
0,120081693108921
0,118928606404697
0,125781597700641
0,121979814709782
0,128899150657851
0,132201217334299
0,131967155993461
0,130997401888394
0,144623889070963
0,138182981440795
0,13681110221794
0,13646606309351
0,140938608956428
0,142756178645539
0,144492015068761
0,146092731549087
0,148841508146044
0,154369524341141
0,154430611863462
0,156844897246441
0,157744685180665
0,159065724313161
0,164406097807963
0,163022647855328
0,170841233610589
0,169793452401624
0,175387525655831
0,176160166016751
0,181885553912372
0,182484791004204
0,186028196194399
0,190939141596208
0,192545643348824
0,196694923064981
0,198680643936404
0,201282866711421
0,205249330708449
0,211064939503063
0,216726781437049
0,214795242744633
0,225150203585384
0,224181310128903
0,233122108532405
0,221820124209387
0,267942788213636
0,247622655884179
0,247860145119328
0,254512251696078
0,246322585134741
0,27592865849459
0,26708605591893
0,269546371732507
0,28383443665615
0,282899165542923
0,283837875004915
0,291581641291021
0,295251636729711
0,304005094917419
0,311444623895843
0,310084534629167
0,31651579165369
0,338650502089809
0,336736582691845
0,339582968861732
0,340628472833059
0,345165011849502
0,359670027400548
0,364747169117666
0,369828639063607
0,373089552919461
0,370289621889724
0,40303086222318
0,391826098482068
0,393529619771819
0,398222222593619
0,414601531892999
0,412276196083048
0,428514934514408
0,439027762423902
0,433174496618101
0,444767529242263
0,450139774320668
0,459706800639242
0,450321517112632
0,465184288515032
0,474885784642732
0,473956325792746
0,48624043488218
0,491002418295502
0,495203467723112
0,501182966297639
0,508174132296823
0,507450552006753
0,528388877842015
0,536526229772556
0,547160617862492
0,550590252097959
0,546519125989092
0,552617441060754
0,552521915569849
0,57068600879638
0,559019755538107
0,574029347988475
0,576131350920148
0,57061978716237
0,582984705705791
0,581629934747007
0,586579660094254
0,586134702297621
0,592783544201528
0,59024794935758
0,594254125788563
0,590251340720202
0,609047412861717
0,643303203060937
0,588994345878214
0,581960024539507
0,581382611789414
0,586041048609135
0,586283755439484
0,582153263783869
0,580744871598209
0,59517225276735
0,57144320348313
0,568071285486125
0,567075727735865
0,560986196764818
0,569967732258766
0,548956331256656
0,549833035329504
0,53977644131671
0,532010890372146
0,524139286191687
0,513737065044973
0,544409482012203
0,518356043778021
0,49972435672598
0,493732015456844
0,491582970616046
0,477196879088014
0,472741579298324
0,476923450961812
0,463845582203451
0,45325109499819
0,44990620561933
0,43948611932616
0,431697293000933
0,424682260892925
0,419622555555498
0,412842372046533
0,406334807657868
0,406677258780216
0,398002853077175
0,391534969799632
0,385742953296083
0,381317879826967
0,375940614664236
0,373806070274437
0,369453225925602
0,359119641098035
0,359969507488755
0,354820612830262
0,344102689142597
0,343992546477062
0,341533018018962
0,336953521100258
0,331180074607066
0,326178759283209
0,319381092109941
0,318545316347315
0,317820453078647
0,315321984637389
0,310701347623553
0,307127242667553
0,300846234032165
0,300777453601382
0,293225118729874
0,302870267509739
0,303289116277128
0,286609529290041
0,289034179653506
0,287099447197045
0,279369434135583
0,276004736451186
0,286127270256625
0,280727764182637
0,27396411632337
0,27030904243306
0,268470876444563
0,270354349536011
0,27165650881854
0,268522397824916
0,264003149669827
0,258274884093863
0,26062040347877
0,264945588753
0,265367177193634
0,273971118784735
0,25108363701888
0,252238776865509
0,249287178034459
0,249925285674476
0,249148109503283
0,248750860158835
0,243868569484359
0,241209149215229
0,244824911717632
0,241016120136075
0,239769210386451
0,238495509068054
0,23746584011446
0,241300132009496
0,233676927572861
0,232876642766667
0,243378868254386
0,230765041959769
0,230107808131386
0,251147911240746
0,230936549429508
0,227402596595315
0,226346610514254
0,225274292781984
0,224451241846348
0,228075974186917
0,222777354433728
0,221966849539329
0,219938560740911
0,217912657795479
0,218496678359031
0,216983887983315
0,217325642146527
0,210898934414594
0,222660990942575
0,218693202874229
0,215240600446506
0,218771153683965
0,211558810483344
0,225017864600399
0,214551536648466
0,211467983264499
0,20450847191836
0,215885534044666
0,208647916875105
0,213644024921395
0,209549311929195
0,203249057973806
0,209026444583764
0,204037109829127
0,203223422333396
0,205204868801848
0,20459662373847
0,209529454807806
0,211215337802068
0,207967074437961
0,204062909066426
0,202180811488096
0,20468592786595
0,200390217275873
0,195724915316507
0,198383465907995
0,193391722092809
0,201360767895481
0,198098017764217
0,202858873745959
0,199112293479103
0,20098916333347
0,198336158716526
0,197455976265936
0,196706165117391
0,200914195072015
0,200210762136391
0,199621724616783
0,197614001411976
0,198167066626812
0,194626587409471
0,197728888969287
0,198261831428735
0,195009406312065
0,19634980785342
0,195555311676777
0,195169217510242
0,197622556263017
0,193031353235801
0,197982514625126
0,199842067667765
0,200155746331923
0,199875958440825
0,199854290691188
0,195103350432123
0,197577030099756
0,20006268808566
0,196086782824906
0,19840989955528
0,195267296110084
0,198610878872084
0,198897350158491
0,199716181360918
0,201118391838191
0,19949639401914
0,197625973651118
0,197801667447377
0,199938011960357
0,198647797625213
0,196728373937074
0,20564554737173
0,206139416357097
0,208080630340068
0,198493000821435
0,197417487118275
0,196473392514139
0,196774885512722
0,196884233906609
0,196133936441888
0,199158545873916
0,196649056696941
0,198160833798553
0,194800882525317
0,194339124015553
0,198386702132763
0,195561369552546
0,193485295738876
0,196560606241573
0,195777157373776
0,197633871723065
0,194965929342055
0,196019975312769
0,197843668333395
0,197837301275992
0,194409293870732
0,194691588143245
0,196025193898645
0,1917684850033
0,197108307597516
0,199921995615551
0,198702398970233
0,197224366128299
0,198364391236061
0,198292740706141
0,197002875707143
0,199230447166915
0,198516531761223
0,197194199095755
0,19782266005608
0,198523961898674
0,197844846838875
0,190831874872947
0,202129819207484
0,195191755519199
0,197446448906442
0,198769198866426
0,194060154577354
0,194686618267646
0,195339320029319
0,198916556300658
0,197944326593525
0,197568699606432
0,194381696663866
0,19679271479617
0,196024723260116
0,194584050781281
0,195378037901534
0,196665902051675
0,199571895836425
0,198112737594037
0,196086660057399
0,191754557063085
0,195597848390711
0,195986848829524
0,198652897561801
0,195588234045284
0,192609264354747
0,19222587067505
0,196879905335734
0,198336813834577
0,194401498281292
0,193327830432801
0,192699895181392
0,194938101523955
0,191497693500605
0,192330759189431
0,194788429706867
0,197245145700673
0,197616909360697
0,196691396073735
0,193225545956727
0,193362327095087
0,196068556499117
0,195459068504246
0,193563174573061
0,193697054380393
0,195498569476108
0,193975508529011
0,195609422164655
0,196077254186278
0,194510083373326
0,19907981007487
0,198553222714029
0,194670899480992
0,196647264991242
0,196897679071978
0,193238875787081
0,197382824942687
0,194876308213532
0,191980581009083
0,193299010033347
0,195787508175429
0,190671512615138
0,194969453935993
0,193532151706894
0,191470306876145
0,19068478286898
0,193562701374281
0,193393218562854
0,194756522536249
0,19273941011383
0,189576538494807
0,189365945836629
0,190229661980733
0,190097431830391
0,188575802915492
0,191572981037068
0,192182546137873
0,190196530568185
0,193129595358738
0,192796771837025
0,191034270294865
0,190762179413129
0,192186890044798
0,189529027926109
0,192209302769602
0,188734327370319
0,192616560376326
0,190931783604594
0,190950192444293
0,189450208293393
0,191270478987159
0,189557456975766
0,191272812498484
0,190361917011673
0,190667300059939
0,189840012871968
0,189905947681257
0,188136050228728
0,187773033216315
0,190702341384591
0,189719233957637
0,186587563571039
0,188882113827588
0,190714224165257
0,18827582269082
0,187931099775307
0,191600038829884
0,190026444736789
0,18895857058549
0,186163723113203
0,188665292678548
0,188747126243653
0,187646773747432
0,189303426493928
0,189677536800682
0,189296111495968
0,188937507957262
0,187399977784159
0,189470048963753
0,187970271012292
0,19059715558764
0,18651349558064
0,186008711168632
0,189314954360299
0,189326568803667
0,187810659870585
0,185003573269581
0,186559757269169
0,185675814116403
0,186104274745733
0,18756031725632
0,182381840005812
0,187909146318163
0,185602096465127
0,186541931559302
0,187379765022891
0,186333381035514
0,187835101537366
0,184398329349438
0,182355267549692
0,187307263505787
0,186624236958018
0,185567378225869
0,184914742364935
0,184274881073645
0,184264964642105
0,188176950196785
0,186349863779934
0,182383297478054
0,18634520189709
0,184921857912115
0,185044888991984
0,184747376671671
0,184889569805133
0,184147949372884
0,185869158101154
0,184324455389103
0,187730914437692
0,186141803187236
0,184665454039593
0,18492345531885
0,185829547398233
0,185227829981625
0,186274793465144
0,186460911755286
0,185614627461195
0,184478796664417
0,18340912584865
0,185992075733452
0,189755414038422
0,186377855566446
0,186375555386036
0,185015065814577
0,186069595451811
0,185712938165634
0,186131982409471
0,185028395958904
0,184992888741334
0,184952490418357
0,186122595039534
0,185757529341425
0,184483219246939
0,185337741110656
0,184078769904015
0,184379466490935
0,185306194740259
0,186217560778432
0,186729936650361
0,185666150765546
0,184141630866216
0,186849219128215
0,184728342078171
0,184240585570942
0,184584119172248
0,183384266719293
0,184147866648454
0,184855859066412
0,184355841432162
0,185186003733882
0,18263485434464
0,18563881234351
0,18218099216652
0,185405935571186
0,180582999471347
0,18374824578563
0,183569122925186
0,183679101391874
0,182396025936692
0,183306244315575
0,184245229060299
0,182873808198578
0,184262242683468
0,183779095988553
0,181510408479862
0,182895333098496
0,182665226470948
0,182802323011164
0,18202587451265
0,182956059072787
0,180345331646854
0,183011908990206
0,179396363210711
0,182185948523841
0,179164428538521
0,17808857160189
0,178673003821636
0,180785955803333
0,180430097662141
0,181959291438231
0,180971568196415
0,180223053887522
0,180027386554829
0,18151135827902
0,179507261907913
0,180432360638115
0,179849410030865
0,18188046126996
0,180254197944938
0,179981576229565
0,180552821098302
0,180004897839499
0,180065452972248
0,178707608362743
0,177720701231456
0,178099004045572
0,177266998974255
0,176893144887715
0,176657578643321
0,176542723765712
0,177056870337488
0,177269888358436
0,178406055978919
0,177236977469313
0,178401462634699
0,17732313082021
0,179147656780595
0,180655998693896
0,178150304052398
0,179693989674155
0,179524877974959
0,180800425323409
0,182177170840215
0,182040606319117
0,182904149301967
0,182986046627574
0,184484883787646
0,186444647740064
0,18577136183261
0,188516795606991
0,186743993210472
0,19014189623419
0,190413105517939
0,189875890547784
0,192893147858947
0,19154108174254
0,194843911440903
0,194428629476569
0,198147859606224
0,19552216123589
0,198591204224589
0,200121157939735
0,198219438760262
0,200292719968934
0,198910016476969
0,200184916838832
0,199026765642436
0,19983055174718
0,199143249438078
0,199490378322132
0,198755394701788
0,197931109590744
0,196655343423033
0,198886564971069
0,198992179644383
0,1973936453607
0,19775163876483
0,198691939964499
0,197733194709193
0,198147078575662
0,196311570481061
0,197690626375712
0,19754803723392
0,196753037347798
0,198140661859859
0,19953059651927
0,198857451094395
0,1971647029338
0,197643174107199
0,199286696320245
0,199020740708004
0,2009073429723
0,201584720057972
0,203154330104472
0,203149457050807
0,204106206302163
0,206877591072599
0,205585392469457
0,210436363882701
0,210862371568028
0,209312254235964
0,209934566005127
0,209813929610482
0,211675660669783
0,211167115717722
0,212141534267079
0,212206862763282
0,212375096988694
0,211381306352643
0,210956778224365
0,210884915390606
0,209124098018999
0,210169366869931
0,209089875296893
0,209568208117597
0,212463582829842
0,211803971795519
0,208663455796998
0,209597233166816
0,211662998712371
0,212455460275453
0,214052205298968
0,21611408731698
0,217662317374394
0,213235323282754
0,219901551005425
0,218257322909691
0,218411209079115
0,221444053376828
0,223064688843796
0,221593954915682
0,224467307758773
0,224336902233101
0,225795543175876
0,22936376911221
0,227566140769224
0,229485244308136
0,231346545163153
0,231999847506392
0,232635286412529
0,234729848142512
0,236993807662264
0,237571227406161
0,241414509524273
0,24037973274603
0,244570382891028
0,245817893034466
0,247748801371757
0,249023544629491
0,247600242662362
0,249033728765175
0,249885314214765
0,252435839142832
0,2515768899742
0,250391670619333
0,249391999236841
0,248873745917615
0,250737119030026
0,247755070756599
0,244356579131265
0,244884220184792
0,242279749554853
0,239956853382328
0,240246215759061
0,239291858949958
0,241891277923986
0,241135508374212
0,239091476088458
0,238517675890193
0,238776982162203
0,240132186764831
0,240000179630822
0,239071957850975
0,240684920637438
0,243178834687097
0,242606334081954
0,243068847074323
0,245641749393693
0,244102959811541
0,249025523748405
0,249631856393931
0,246595308168514
0,248172205087059
0,246341182810206
0,247925937569283
0,247183416045657
0,248376684201495
0,249917788938049
0,251459788748381
0,250348272651168
0,251954505830189
0,249557154905799
0,250285391448473
0,249818269208139
0,249204058590179
0,25011806076157
0,247912140298181
0,24987069749756
0,248543649755115
0,249846024961684
0,248923336834395
0,246650544434142
0,245165749682321
0,248477689086457
0,248086994826093
0,245744485566466
0,24223263818836
0,245563992075899
0,242174047910958
0,244274881626731
0,241732883858227
0,245154697240555
0,241205819048363
0,239140103803555
0,239962565278995
0,235429694144721
0,23466143354516
0,234342313837195
0,231357550856064
0,227206166944006
0,226355302786762
0,224979193547375
0,222937171970825
0,223854904810007
0,222113040745328
0,217678711944523
0,220543367054314
0,220203204331457
0,218657024471546
0,220274153715785
0,222738101369415
0,219828547945903
0,223831397768889
0,222210717059143
0,223813179645184
0,222737873446381
0,224436237228051
0,221935677408348
0,224064872256922
0,223545826006365
0,221971963458568
0,223348486303691
0,222047741778366
0,225123653130519
0,224546399692295
0,224129481798953
0,224655291588226
0,221290167595911
0,222366090844212
0,221951831183774
0,220020132581268
0,223504086152962
0,221668275059666
0,22448568568895
0,216918660934187
0,221189855572203
0,222342102747397
0,218476848340758
0,221064301258431
0,223706352591201
0,223535463701574
0,221804487398216
0,218953653018765
0,223294512845752
0,221702391669353
0,225199962165919
0,223545908477606
0,222410497033596
0,227612119642905
0,224087549361248
0,228639652985273
0,224499405104201
0,223381602433532
0,230700002113115
0,232851616155778
0,229637393047886
0,232585712261679
0,233485260719435
0,234042521313673
0,229799500286377
0,237411266100995
0,237670835477333
0,241909759871368
0,236948805588313
0,235333431998738
0,238242806885922
0,238728500689446
0,243981222305051
0,244125432291642
0,244009397603208
0,242321478190172
0,246695064453627
0,246558626268258
0,24657884562885
0,250370104379648
0,251021283554524
0,252435058176874
0,252161841461631
0,252588745578607
0,257203910343295
0,256180229597718
0,256391326194296
0,261961945100446
0,26063179948567
0,265260945700612
0,260996706151696
0,264871289292467
0,268335733102208
0,265651753758934
0,270982645902982
0,274332774949523
0,27087953530648
0,273886624840618
0,275847272599006
0,278303529134804
0,279505380209945
0,279240985485055
0,281876008110152
0,285497955864602
0,289149854322672
0,288819110061344
0,284001939649679
0,290557649819932
0,293716821160939
0,299459579590569
0,293734111696865
0,293211389755391
0,294043606707544
0,307702202791893
0,308727584698065
0,306373661301918
0,307668505797053
0,315273943260854
0,310585343340255
0,314187066277112
0,315055199861699
0,316827898502947
0,316626229017712
0,324465106509628
0,326629965764582
0,332351119219629
0,329497176976517
0,328653688967316
0,336201154829145
0,33803382969086
0,341628460080906
0,339711418399083
0,340646309431972
0,347280639593999
0,344304318222734
0,350464055772428
0,358022926760358
0,349581124381926
0,358412993563799
0,36598361064118
0,361835052247199
0,368925646118709
0,367353723342886
0,365890637229682
0,377342470828749
0,376567068879244
0,381564586093753
0,379271405507775
0,380726370380092
0,390988536692519
0,390420134024515
0,401463364206794
0,3894260916408
0,396417893987415
0,399205362480859
0,3965576640787
0,402998501576732
0,405222765033263
0,404174696006643
0,413419715018969
0,411085404730745
0,417630787644076
0,412230757069182
0,422945340071431
0,41669406208711
0,428131882008338
0,427050350109421
0,433412705731423
0,427060519873513
0,439663445338298
0,437615337827844
0,448029498212259
0,45701160462744
0,455848018983924
0,451195229752005
0,454944522187184
0,45190336961044
0,462620918426844
0,467715404847623
0,467972815303307
0,476508740803471
0,479024081826824
0,476621527951179
0,485923544307032
0,480964836362912
0,483794496156464
0,48359489079679
0,499038119125398
0,483910514799243
0,498378522337854
0,493435808139552
0,503558699578364
0,49449129212851
0,508036876982808
0,518393426789085
0,535087291325493
0,513918788267221
0,512911718416393
0,511005710842256
0,526234014501249
0,524487252051618
0,524651427117358
0,537965809668444
0,545099931063976
0,549674683833768
0,562542815318795
0,550775226425402
0,547373057764853
0,547535277608754
0,558505053531034
0,562301852187625
0,576558017134204
0,578103140587967
0,578492757852845
0,568938910317884
0,602771422795677
0,596721234641411
0,576912830588928
0,582292277403368
0,595105438749107
0,589990287913318
0,611260845661662
0,597647690291809
0,61425438160581
0,621447119853592
0,606266866108742
0,60611308311471
0,638406536570257
0,630339958218016
0,634016684916114
0,615782173604079
0,641355993303748
0,64027700634868
0,653233488203201
0,658014685791913
0,630388992908799
0,645194147860394
0,67217120627392
0,647967250907278
0,651525771936428
0,681283040533388
0,697712358275328
0,641395810291204
0,649843721483278
0,650386043775183
0,700616920541164
0,697153343722959
0,723533587055959
0,694284965512428
0,673909150389849
0,693120442147908
0,697236080531388
0,708695566967294
0,700297810962472
0,728794192320112
0,779614436780851
0,71316501981019
0,750510705917001
0,715077491433367
0,733309249978
0,722105458746553
0,752249198719448
0,737869633675106
0,758740555776529
0,741431633200542
0,74424370267547
0,726019403039186
0,777829538278275
0,761416252712218
0,820764552753017
0,776781685882542
0,771429533192997
0,755230184507458
0,78722644845031
0,801252989811972
0,788991030590145
0,771029034456629
0,845918990832612
0,748110108798036
0,793743452187415
0,776558693919409
0,818635314852808
0,782867377952851
0,813048785375729
0,768244982196496
0,864267602807846
0,764469845839338
0,805387461157531
0,822266015386825
0,80979188805685
0,901938446395254
0,856048111820632
0,823009618961947
0,824840504434658
0,838542001041696
0,962344037440326
0,89836371951054
0,886089875571329
0,863626074843626
0,843840071895693
0,892184733771494
0,949992776463627
0,891887760520641
0,925334181687711
0,842514726851851
0,95378451919521
0,924918412922023
0,903869546847368
0,803881402754568
0,938716588637085
0,843009488470304
0,913645082721765
0,879170072124953
0,929378318213639
0,928673007554602
0,853143310681067
0,812264347925178
0,991121291342843
0,890050004311815
1,00768542316843
0,980504407432332
0,907073823285628
0,889056929125103
1,14120343922806
0,967252999316412
0,914443099992057
0,994682024231746
1,0840298193733
0,907429986444364
0,93508053849366
0,930314162054812
1,16016933065881
0,980376888873745
0,953872106241517
0,869079094794051
1,10997491280353
0,957569795866053
0,942976767375533
1,03404164154491
1,36759449466187
1,01519564871596
1,09675164394136
1,13324906621567
1,38584771485398
0,917869775052966
1,05693884315958
0,977653112459758
0,940276272436795
0,856966078357045
1,15005539321651
1,18557940376279
1,16504819926535
1,0135558205979
1,06048457224605
1,25393620591868
1,40898763130654
1,01271696343217
1,0233032020913
1,11927736389901
1,26835868338855
0,960097773666487
0,974605360283473
0,999303600819306
1,33629811143463
1,28368703044935
5
1,09333734235467
1,0819603363394
1,31171499171643
0,881742114638173
0,911775732320582
5
1,11639549038376
1,08338547710095
1,63465734242224
1,22201512582788
0,984712116058573
1,01699577993377
0,881562418394575
2,03481973471811
2,05173162439724
1,45143091346201
0,766171263890509
0,779906585897317
1,31102333749741
1,02667384148493
1,40657907510986
5
5
5
5
1,72613493633565
2,31207451355994
