3596
4000,36533379555
650,420452594757
1
2
2
0,00885323061984624
0,017614698905176
0,0175452875421511
0,0169624991808052
0,017216427414884
0,00833552998321234
0,0115851341709307
0,0140799219798812
0,0179977629431108
0,0141662387159256
0,0159359616060018
0,0132061728707715
0,00911327276935457
0,00532519602321627
0,00873406384493582
0,00916113892555418
0,0173110568105388
0,0128864114450612
0,0137452937869592
0,00877902142059901
0,0133981094236446
0,011309642968916
0,0169824138600001
0,0061906189807241
0,0135440233609459
0,0134148733869617
0,0161179340045546
0,0146095835864804
0,0105889178715431
0,00919458814937655
0,017990299423574
0,00903031731765354
0,00923908915814281
0,0135591677575159
0,0129943182603371
0,00960197146621906
0,0206088336421094
0,00929670706030128
0,00649961113635148
0,0126583808686324
0,0122319292000488
0,00291977644199907
0,0145507974761542
0,0146261400895186
0,014930435705583
0,0170133097810926
0,0146124691430049
0,00957007628236057
0,0175212811677961
0,0126975722462876
0,0191339784122124
0,0121841170703832
0,0146581338977603
0,00675692053725355
0,00367366232390317
0,0176182144428951
0,0135918001941993
0,00827367863264406
0,0150233398782319
0,0171206660456107
0,010575542659355
0,00364056225473788
0,0197490487263915
0,0150994724957504
0,0114442717775433
0,0201327269235979
0,0153607205639286
0,0121748071136377
0,0177693761925885
0,0195088290733083
0,0118108106048757
0,00912294477308868
0,0136516684019146
0,016993391735489
0,0120136322314244
0,0122873330586701
0,0148914903851351
0,00887549188273553
0,0161647789165077
0,018299022275731
0,0185817348954699
0,0168276006895999
0,0186510374364857
0,00981785799552731
0,0144866448747348
0,0153047638340834
0,0115655383711468
0,013597860188254
0,0150540597974721
0,0137579626603736
0,0131362047366025
0,00759018915107313
0,0100523241682992
0,0153233102310933
0,011800258874569
0,00907570062336286
0,0113760701338559
0,0138820713763875
0,0147770318552466
0,00281455616604644
0,0190033743309201
0,0123297616990117
0,0256589090757984
-0,000506915638498525
0,013253941859823
0,0079073151607227
0,0111624047876194
0,0204285039827744
0,0142449654175651
0,0199026857961462
0,00969336824919554
0,00575811669603385
0,0145961441427148
0,022159751204042
0,0167829914294245
0,00332707308602044
0,0107869543053809
0,0202039108083534
0,0160713080226592
0,00863349387684894
0,010823197437601
0,015163731705136
0,0203853719230514
0,00853343894734896
0,0232880153138561
0,00902001522748196
0,00616553583084307
0,0154152006080618
0,019844606895784
0,0105396488617477
0,0194960237427039
0,00687684026469828
0,0164317548534505
0,00812882915227353
0,0124021507704847
0,0156858592068836
0,016692439748213
0,00430614264531146
0,0172716273215623
0,0132770616178993
0,0131260647539026
0,0115153524441119
0,0103331779613249
0,00854351322402896
0,0282255044029682
0,0141398522043327
0,0183125046142528
0,0220904981884953
0,0222622669308901
0,0150901531440106
0,0200344090208363
0,0098967992525128
0,0114154443052492
0,0122325547461192
0,011189941197392
-0,00570553072575248
0,0298202208414989
0,013411752145433
0,0398076280502864
0,0154433817931481
0,019283858832553
0,00682306238596708
0,0136555051731931
0,0106115252019603
0,0133991605497526
0,00783502832912616
0,0118842490582642
0,0170427788388146
0,0194825737275747
0,00973381991179781
0,0264556408058789
0,0178786824130133
0,0118472663826058
0,0145456302522316
0,0110944317871541
0,00101720749975891
0,0155679746033626
0,0173392234046592
0,0128766999873446
0,0138979707997616
0,0354871334842077
0,0158933215170127
0,0227070175331565
0,0210759713911448
0,0191180082419311
0,013903459119116
0,0126181887588162
0,0118268468289781
0,0234699197500426
0,0131416606005463
0,0270493707715304
0,00803403222999504
0,019021351957411
0,00949881978511178
0,0157533330433301
-0,00109687686768789
0,0192748353633862
0,0194692985688304
0,0144011339225179
0,0157568118908793
0,0258645341095557
0,0241226304420473
0,0203950875555493
0,00997137847464036
0,0163409825761052
0,0118072065202012
0,0248198862776177
0,0123529669078616
0,0222497764593463
0,0187674837689381
0,0166644935659742
0,0120685479802379
0,017516605096973
0,0122960834185157
0,0153769416774674
0,0208734590972204
0,0186527517193621
0,0175936825105689
0,0190774640073452
0,0161159703258878
0,0219642571467367
0,0200531537104017
0,0206673597778295
0,0178812173199633
0,0239594111668883
0,0197656401213007
0,0228182084318168
0,0154549400726712
0,0265231335959161
0,0224744595997026
0,0167949099060829
0,0207408928188665
0,0202264644302264
0,0158251799970632
0,0180572314065308
0,0164353282390905
0,0285395362458731
0,0199263562463217
0,0268874273622489
0,0117819336482994
0,019439367836474
0,0202253378715717
0,0202374716456688
0,011256214329768
0,0251978351724681
0,0168534135406044
0,0325367575812452
0,0200744254330037
0,0215391036135616
0,0261449216287615
0,0252261549814985
0,0299340599863744
0,0270128649627478
0,022460328489875
0,0202324219497063
0,0269277555153029
0,0269797302091511
0,0290371931034282
0,0274023825126284
0,0215723939318362
0,0316936541365185
0,029452484860802
0,0203444010174602
0,023739920566427
0,0237822141020771
0,028416965343732
0,025979597179
0,0093938050361472
0,0297734792759755
0,0211272809506534
0,0228391613939121
0,0343280633578002
0,0156506605878099
0,00941988784242393
0,0311452701813145
0,0351627675964243
0,0293613623155175
0,0292456025673363
0,0339655975273588
0,0300418072212952
0,0402815612394483
0,0337618067437666
0,038687417379557
0,0129982904456723
0,0374993736768096
0,0297106346343652
0,0347227343434796
0,034410345223365
0,0315523445341965
0,0385182477434104
0,034444074220686
0,028056165303767
0,030120671994205
0,044353678639054
0,0346008914624691
0,0366851043078208
0,0342841262113807
0,0431325619928252
0,042054373244708
0,0349419345073581
0,0318536679493455
0,0450206554535327
0,0335018373028836
0,0388945596105297
0,0417706344991591
0,0351009933467184
0,0454106487100397
0,0412871051194719
0,0475717514061608
0,0476652260046383
0,0444555068513951
0,0487539236069471
0,0516986060550755
0,0514917469844323
0,0568577111508261
0,0548221543140917
0,0553298896676591
0,0635012327474126
0,0625024389876016
0,0640169103631669
0,0661767724849471
0,0578350041070069
0,0651807734182595
0,0687575741360885
0,067223353684782
0,0661042433036418
0,0735261371053231
0,0720641330920639
0,0725020644193012
0,0783492026111231
0,0817449776106206
0,0829864051892749
0,0824763215377018
0,0787137075053227
0,0912715541402955
0,0874841816405737
0,0946086406435913
0,0910212552393349
0,0961843258828656
0,0936137430588767
0,0985335532927778
0,106937116204529
0,104472508007726
0,106370849231859
0,120355034977103
0,110587659856997
0,12358484332792
0,123477066347776
0,130737860886392
0,127009565152321
0,132560820169528
0,137211334488137
0,132200017509482
0,144891124357902
0,136135038255303
0,155033903297836
0,157856202746328
0,153077395557585
0,155216094293749
0,163631837275672
0,169153300564364
0,171094204228428
0,184398707369282
0,183305161291251
0,180742145421401
0,18672339146013
0,201998489373176
0,209109396195526
0,204097401530896
0,204832079403812
0,213893301654969
0,206787532594878
0,214306003896942
0,213697535994369
0,242310429060826
0,241475476314929
0,245809629631002
0,223490495784431
0,230616197130361
0,239092357234828
0,251571276233746
0,247651468675013
0,252704477272467
0,256511443961612
0,262420947294447
0,266943576930429
0,269295854706845
0,26400266697537
0,28033201108321
0,273003571550115
0,286074672502499
0,300751248562083
0,289285091754061
0,300574879252671
0,299763973147409
0,310501522392496
0,318914942986082
0,306095928355588
0,287040708408844
0,313300318248461
0,316415768287575
0,325325161878415
0,31487339372101
0,338556372832669
0,338002387449504
0,346334183930354
0,355977849563479
0,352093172180231
0,339484379183819
0,33843739608487
0,341283402604606
0,35293248477696
0,364497842753205
0,373333470864583
0,365905909351069
0,377069028913245
0,360687098563818
0,37267361658966
0,379899171882307
0,387100653690188
0,381471428975665
0,384294975506383
0,372795635569626
0,387359142577925
0,39601935930314
0,392000183818504
0,407965740804381
0,408116719350561
0,401516467811476
0,425763192554375
0,408969631877462
0,427328800090117
0,436836756684087
0,442376719286337
0,417070769830834
0,44144842906723
0,431724419949592
0,44186509320764
0,434844004336626
0,455946602968478
0,43858455583226
0,465495329940848
0,461861045237476
0,455306791045329
0,45804738936211
0,455971393227004
0,460109925439397
0,457494921427903
0,469791087156329
0,477937353981974
0,463439602132784
0,479865721193033
0,471919623584288
0,489554002826607
0,479446111049472
0,499853128199042
0,498809702975341
0,520546657057492
0,528868279021576
0,522230535355022
0,488677009100623
0,524367642081452
0,530037202517912
0,54228957785486
0,544933365584184
0,535562839728382
0,518811143189915
0,507089914406145
0,510260849164941
0,57294119068083
0,535111739536715
0,567629865256996
0,555327683169544
0,561190310048719
0,557183705610801
0,571059801728511
0,570147524210008
0,568906683843071
0,559795891627563
0,600986967524547
0,595241112036477
0,594477946708919
0,596777093032891
0,614115747835265
0,568037056331783
0,584450930309152
0,61274783086414
0,623618333296464
0,604225496686432
0,643725453969728
0,605538016199775
0,677357656577293
0,614823764096551
0,63713885391224
0,62020649789089
0,679207308929287
0,624009520283069
0,674717919215587
0,644972329561063
0,663356879990161
0,667804377551153
0,666661194127484
0,6637875614807
0,681829051073244
0,672075170763169
0,710622034789726
0,658805666269822
0,722703464761141
0,645015359315934
0,680133685018797
0,692771805033768
0,726593313755442
0,692934927721533
0,764443699538256
0,718203667254212
0,723562089834336
0,744398041430286
0,74382585900372
0,701800865474914
0,732894584883908
0,696143464306567
0,771667340591501
0,744217566327168
0,724233616349208
0,75393266598883
0,780537397184434
0,737345246386133
0,750443223075447
0,754186746495616
0,769984763655581
0,763625707963162
0,774577145461743
0,718604507977805
0,762975814051386
0,774978648151002
0,836578012452422
0,787670391055559
0,825056787890426
0,795430617740682
0,838676227380977
0,751031422340925
0,819280563324501
0,834522588027186
0,869174076096501
0,804327091989508
0,847122526516182
0,823590311606407
0,906905311320888
0,809415809973387
0,879039070825018
0,870823728566039
0,917126083008935
0,84501587629085
0,905228793211036
0,836425792387165
0,927444521639722
0,897983851359686
0,87773422547165
0,833314872147333
0,97365172773253
0,867450905069293
0,928275388668388
0,892135778859593
0,910790433782746
0,877448093687645
0,924852953943297
0,871184273240445
0,907781310319823
0,860462608780176
0,965973048064758
0,893945656472493
0,969819000983653
0,887699355813355
0,963970090891882
0,95177594883076
1,03079547554571
0,931150553525555
0,970161414553952
0,956655613291255
1,06666123229982
0,900922566440857
1,03235266424919
0,982906208132029
1,04554142115464
1,02723251842631
1,00879020998973
0,981819930283578
1,120030041124
0,983657362455619
1,06286517841224
0,980562949567486
1,04297894309593
1,05579586777236
1,06130332886297
0,947358959643552
1,04190575622516
1,03031005558335
1,09988129758526
1,00960324775808
1,09006238682777
1,02845760922681
1,02613595176883
1,0328016013698
1,08988253673228
1,03207140731484
1,16752845489899
0,996057192564745
1,10569786340658
1,02559574725362
1,27401957594392
1,08291189914525
1,13641529382057
0,987869168975638
1,15860324200246
1,05654139456648
1,12939656700564
1,01958750940425
1,11142541447027
1,09233939283592
1,14751487826261
1,07966677374102
1,23526131723182
1,09861944470866
1,33948815787879
1,11024237953398
1,15349864810167
1,06598530351242
1,22715251574279
1,13296344928693
1,20465805290673
1,08566355062173
1,19267438046361
1,1922609798896
1,2033776038129
1,11001022040145
1,32525805999289
1,16645670812626
1,21375417322561
1,20655660983945
1,24217931930843
1,07047380513477
1,22179299460544
1,12581833256277
1,1803315390691
1,1505738638736
1,25919187694641
1,10820583857461
1,28202816356517
1,18808287485934
1,27872724005383
1,12467708082892
1,34124452973847
1,2174894595555
1,28947713849111
1,16604603402095
1,41967644771918
1,2022011772287
1,35670196421357
1,20731276280306
1,31735202697317
1,18277955568086
1,31684563790789
1,21930226074744
1,29088025489966
1,26301434535604
1,34032267075676
1,18537571259727
1,24149680024469
1,16736965252136
1,28313785597545
1,23462477190253
1,29653934658537
1,20704001221434
1,24827687373692
1,22770335796666
1,37939144957449
1,22033173684175
1,38772084470935
1,20311559579931
1,30203803542398
1,21865689886836
1,39717068585049
1,26846966904099
1,4039196131966
1,16432746439459
1,21980263136522
1,19218722409603
1,39512526298932
1,41726615289301
1,41051460524224
1,17763003690629
1,28705730211766
1,26835756432467
1,41277499049752
1,21886776870944
1,36412215365255
1,23189973795116
1,29963015804502
1,24140933431457
1,35141452955098
1,20970042949957
1,34907290465604
1,26014343288939
1,3207865400996
1,25991148085631
1,3158735736972
1,27700616094102
1,32852681861319
1,22410354455123
1,44669742407395
1,2047734469343
1,44802619529852
1,21974975716811
1,35089674952467
1,32175828145461
1,38532982993156
1,32023169674252
1,36371724254435
1,25971880510028
1,36845774787199
1,26627758366765
1,41112438204422
1,26116390188085
1,47981502151771
1,22743302646465
1,25457417443489
1,28246409621048
1,44871160177861
1,19085672491245
1,25502486552093
1,36477808432094
1,48221554565935
1,27524980898505
1,33809733204642
1,16375665343895
1,31893398782494
1,27259101758221
1,40175284497274
1,27188079763405
1,37815232501391
1,2188946237369
1,38920680379953
1,23163363562485
1,42724554931264
1,31423552758952
1,49922007887446
1,26338604928848
1,2478910733283
1,33642551814773
1,40224295119551
1,20617420365783
1,42250016199272
1,26143994305325
1,30154403581179
1,18888471231143
1,31701894585901
1,17073295158625
1,3209835983332
1,15744049266368
1,3894774893569
1,21473783506441
1,41020160332727
1,17746275188205
1,35189021174757
1,31379382479734
1,35847249437818
1,18145172025807
1,33511798695672
1,21009783609728
1,34609355993581
1,27623599119768
1,37077686505499
1,24894512260411
1,38969384838291
1,21362848441568
1,32897449896783
1,19496546761612
1,25225584701216
1,29625572970668
1,30696869010662
1,18162477702062
1,34216807661176
1,22329094149374
1,35961528590174
1,25414481393725
1,34819771525299
1,22984044126564
1,3303468643801
1,32835646742356
1,3009653571449
1,24094497618249
1,34902114388775
1,20327495660069
1,34685555319198
1,20759191659147
1,31968078471579
1,2573668035624
1,34495005722428
1,36643614328832
1,35054544145199
1,32516080362251
1,3364222155665
1,245321148996
1,28920744868167
1,25846543169389
1,33057249620224
1,23087576468089
1,35957175285514
1,22433771669884
1,36565890055405
1,18318394064551
1,32806913209669
1,26299959537463
1,21911746971492
1,26649581156805
1,26235625770319
1,23182082518896
1,28084469854395
1,19303350902656
1,25826368545403
1,24337891028733
1,30347856237311
1,22502448759364
1,26856110192516
1,17980090054886
1,30687270510449
1,20531705845099
1,34704356679905
1,19293678914915
1,27726709621081
1,22671983033555
1,27843037162292
1,24316377225602
1,35939463397067
1,18806516866924
1,30776348251827
1,1894367567493
1,30173793499548
1,20753698278425
1,23381870512434
1,24147876952658
1,24420451660532
1,16347209640245
1,32582688913891
1,18587341266681
1,25326555289913
1,133958225061
1,18570607096382
1,16455471157523
1,25961065074167
1,15996573361792
1,18690110957059
1,14059859743556
1,20067918284347
1,12095647353601
1,18579294531141
1,15693854839964
1,18170121848
1,08229027866782
1,24205471512483
1,12933009595442
1,15892783267569
1,06091694315394
1,25396535683666
1,07551766015413
1,19738918898873
1,07531937244464
1,19932276999141
1,06947886034778
1,12145958244715
1,11975414937852
1,12014815689739
1,10967665576135
1,10005810985852
1,04722023296105
1,09612831784259
1,06153229418481
1,11329337668708
1,07683503639705
1,07511306750607
1,03969437626101
1,05674077510052
1,05982625597034
1,06485131745005
1,04534511256787
1,08354916946953
1,03416381086398
1,04458603716056
1,00103060923425
1,07339689789802
1,01204053192442
1,05322552623229
0,981098661707202
1,05102899367545
0,999486427222143
1,03001253687945
0,949233490896739
0,995946856868804
0,999726828389956
0,986958502538626
0,930614618958208
0,998564276758446
0,959363525304468
0,958026411664871
0,951805270508144
0,962903571130182
0,918297531868037
0,94315604858969
0,910693038044826
0,951370802597164
0,910557090146395
0,960533843042598
0,89700028901949
0,952048264894957
0,87546865296608
0,948819407999526
0,881651635715408
0,905269648673972
0,878256394414201
0,895098319295376
0,869625379712369
0,879329805804409
0,846177161361949
0,873487125465767
0,841229102305581
0,85379059626836
0,818386336305546
0,897541299218874
0,819724791795026
0,853634119304922
0,811859244434316
0,810858638535922
0,799438195701409
0,814133253984143
0,787352994962734
0,799455981621784
0,761333113581899
0,814700373207792
0,772795692420835
0,774402112159086
0,778258073215074
0,75928665252286
0,735408184146781
0,755064838893927
0,74830454861315
0,745854919618874
0,727808210242843
0,738875526721576
0,713227027016124
0,732532167765934
0,727243803665929
0,732368380845989
0,72275114350132
0,72182775790034
0,70818446525703
0,70022927500498
0,700998397126703
0,716758149867867
0,665956935703344
0,683048743149331
0,676423881889208
0,685364554308174
0,666390445814204
0,672083501168787
0,645423787136351
0,650968684723114
0,657344229863012
0,645207955184194
0,631848837818615
0,638809509393825
0,637556471270379
0,650114840494095
0,622007127194667
0,622661759686739
0,615018753462423
0,609644316430867
0,611304993150209
0,62249188162677
0,590584518809051
0,606737765613573
0,584152206749454
0,597993555264898
0,580046492153129
0,582810681380444
0,578401438062778
0,583400038157704
0,568792297106648
0,56494807445286
0,552817580951928
0,56463016118468
0,552609981456178
0,567158958964015
0,547992119123195
0,550348731891429
0,534817751628878
0,539127883880694
0,534300019286729
0,545282539309309
0,521214965063278
0,528631483551467
0,517344447447734
0,516348357992884
0,504042938918552
0,509938760639405
0,50373611077235
0,497389371127662
0,498864096718586
0,496409677805282
0,484343684413134
0,492091496615028
0,470644727191341
0,478825653796335
0,468802425301045
0,471054971083633
0,465262457507558
0,467643426293929
0,449744583504049
0,461566320405237
0,449623481003305
0,450334947110069
0,447339545513063
0,448832188029956
0,444677266854415
0,448260446009442
0,438640869278537
0,438955772617521
0,423467727859556
0,429120768778741
0,412735537914265
0,417493845753714
0,42495018452475
0,420386888220047
0,419625022051697
0,412436285313277
0,404301808944376
0,406737872919278
0,401866488783162
0,395624244099617
0,39464239981014
0,400246561914681
0,385729737459034
0,393593052221374
0,388823259647441
0,382695395366661
0,379104495454472
0,377006913971724
0,375375620358781
0,37258613793235
0,363887165728596
0,36209272323926
0,364788060136763
0,357586996906551
0,357876654560186
0,357683270393781
0,357369572663307
0,359856054574874
0,339148820602575
0,340305084702646
0,344823216960755
0,344216621167037
0,330928522137847
0,337843748512121
0,331122739735699
0,327434017606164
0,32571108814214
0,32779531905229
0,322301031759845
0,323903649611665
0,312231418707262
0,312950569144156
0,305938469788748
0,308657016199202
0,302342090522582
0,30315810114967
0,298680569499659
0,30099429284743
0,300014351375865
0,296748631016441
0,291726570368927
0,297240273631009
0,29458516751185
0,295857349484385
0,281480054774938
0,288528004206113
0,287665815023051
0,281944949282878
0,280799243093906
0,28190132557666
0,276544945496419
0,276760940230965
0,2735319370783
0,270835075302055
0,266460572186902
0,269182813616966
0,265576363842215
0,269005300746913
0,261746255994701
0,254375990637523
0,248256810770299
0,258316302840526
0,24894676555035
0,256422576783278
0,251915849699709
0,254263794173873
0,245702647332686
0,247938480150644
0,244045360236348
0,23939611525129
0,2377080828921
0,242526047476902
0,234290239998544
0,23615699548874
0,235409501318309
0,236847568867641
0,228583822463503
0,228166194451938
0,229188042449805
0,230206775187127
0,227383441870457
0,221841990981178
0,222563519924027
0,224178435901204
0,216736708164459
0,214432558474343
0,217197309476255
0,224498908205197
0,213505510691975
0,212711900191837
0,210986592668941
0,212650970828461
0,210980458571136
0,206291709063025
0,198378299654789
0,204877250685885
0,208153289763009
0,206368788624457
0,208026061005492
0,202837282267255
0,193798719616534
0,204027419605282
0,200087066461593
0,198483441736096
0,189279239118362
0,188111818467273
0,190189346957437
0,19581009162595
0,195530613845361
0,193158536178146
0,186908858618767
0,187900725049006
0,187912637946786
0,182262572266906
0,178249690883604
0,179405938529713
0,181892665942409
0,186609851756752
0,175715674213092
0,179998468407351
0,171113909550235
0,169302649622492
0,168803510846341
0,16750045568399
0,169663142507177
0,167498795507345
0,165495455516547
0,1740981577277
0,170546107583366
0,165016503699913
0,161824353239567
0,163744249200707
0,161248770127404
0,167494219900762
0,159495779805077
0,16107791661783
0,156707659693977
0,160511320147172
0,158426716602147
0,155524973648171
0,15352409707962
0,156767480965217
0,150729324842108
0,154148110287605
0,153052193919184
0,153181469817923
0,147458417180516
0,146435045866082
0,151706979259002
0,154601151229248
0,14531465790419
0,145620115593939
0,146042373697064
0,144042320757831
0,14241099498932
0,139530894367954
0,139568495149394
0,14320823414457
0,139783571052212
0,139174822726281
0,143249186438919
0,139760934295381
0,137555882111944
0,140837357842271
0,133680796116331
0,137521999152829
0,137199248500833
0,132616119333136
0,130233616954751
0,13405054307706
0,133753660323618
0,127257114729007
0,126584244159881
0,129958755306374
0,124818992020738
0,128183060003304
0,126287899210212
0,125948290329981
0,12303825024775
0,125358915505701
0,124739510507909
0,124952497656032
0,119331748546731
0,119374344750137
0,118149283174184
0,124924845606825
0,125048692171941
0,117684150288978
0,115933706739562
0,115538992743644
0,113093212844337
0,11528719415545
0,114168192374126
0,115145568094299
0,112418582031017
0,115418927443266
0,1108281506194
0,111894597194595
0,115232021485091
0,1132953534752
0,110582968822045
0,109476901596281
0,105841303696094
0,108677928895728
0,108813318533905
0,108753068211929
0,105391729888993
0,107079438137919
0,104419252434497
0,103805551579349
0,102510305479359
0,107212600317591
0,100450611524863
0,097166241812724
0,0969879950811958
0,102225098442576
0,101005340657683
0,0965983273913807
0,100820968171797
0,10143098082884
0,100032009922647
0,0966362177867877
0,0947799520895549
0,101081431742078
0,0945870104411956
0,0977970035045649
0,0985543277570625
0,0974045618691556
0,0951065165554618
0,0930226048073235
0,0923912758410125
0,0930552242069399
0,0919650800708211
0,090383786341344
0,0894975374307794
0,0901780484418356
0,0931001611513661
0,0921720029824343
0,0911298151796677
0,0902689898673859
0,0847645608846261
0,0858983558362492
0,0868338982116938
0,0894044139235847
0,0834169117409441
0,0821231608743477
0,0872386465647987
0,0916327350860714
0,085991470834411
0,0867853195326095
0,0861938344315731
0,0858410293393831
0,0837842906551785
0,0838599983198984
0,0854017123027901
0,0838195305793563
0,0851085510662815
0,0853277235436622
0,0795683689729757
0,0808440312525761
0,0795627574530598
0,0797844096698593
0,0803772162671796
0,0844015090195577
0,0795150269549945
0,0770685437888292
0,0782448506285927
0,0822490996946711
0,0803731572353877
0,077519960207742
0,078843672418241
0,0770430266571904
0,0754890271592193
0,0799538968063693
0,0772007948482403
0,0797249875871882
0,0793545388473292
0,0746177294562173
0,0725698361531681
0,0747723870500892
0,0764232188761973
0,0755643150991118
0,0727592689122133
0,0788499398063865
0,0767681895809589
0,0739070756864891
0,0749610631593685
0,0758587372153458
0,0762916623747656
0,0734787774069681
0,0707516983508266
0,0726303309908618
0,0716554129884526
0,072619508695661
0,0706855017036145
0,0719636694356731
0,0699953176979042
0,0692503742188662
0,0691554176816626
0,0722484010406054
0,0716015662687201
0,0722197979491089
0,0689102354599895
0,0686466010329498
0,0691931690979469
0,0681313254144192
0,0671568233286472
0,067072998760003
0,0669020065966661
0,0652552391381471
0,0669196158241042
0,0704453795020887
0,0673496968202749
0,0688307223298548
0,0692064658162786
0,067629471749816
0,0640740150444677
0,0657119538002951
0,0637142594184056
0,0657591875304128
0,0656799301503428
0,0647280082220323
0,0661359754274101
0,0655791197443921
0,0680899998862191
0,0653830401439183
0,0618668553351765
0,067107131707799
0,0675707548384962
0,0672933333022632
0,0633905280862646
0,0668882820605043
0,0671744584092041
0,0613575627481734
0,0651409901834296
0,0672992101518365
0,061734419593218
0,0607667920370906
0,0634998001869602
0,0661586640396103
0,0651171385783792
0,064948825049291
0,0607809702070306
0,0595489257112401
0,0625622847043289
0,0644015691434342
0,0608630391309622
0,0603238567143631
0,0613470827906611
0,0631146691742509
0,0624616979253177
0,0587745544516909
0,0592525333742575
0,0608310888616854
0,0602561444245826
0,0644631274977018
0,0620771246846009
0,0607494341885846
0,0600761144913368
0,0594740965104069
0,0580935686969881
0,0606183214257795
0,0603624899333115
0,0604720088544137
0,0591009663478607
0,0605244352003985
0,0600374296628988
0,0604660509935207
0,0556863620850639
0,0606173290865324
0,0593061735664062
0,0597288669229126
0,058869748142935
0,0584865757202703
0,0619656413394833
0,0597294742249646
0,0587759287980459
0,0609054551726262
0,0574958714223422
0,0579851601843665
0,0594843674303825
0,0575478483671226
0,0563113839948568
0,0553424432792851
0,0570740891345027
0,0581423163913272
0,0593679868402607
0,0601315456430449
0,0559938350770181
0,0534854534590759
0,0558663089518663
0,0601991881335405
0,0544353683526951
0,0553362896618123
0,0604738178731405
0,0562869518643592
0,0542906117085094
0,0581340024812275
0,0539813092938527
0,0553808059031002
0,0551341371136567
0,0576817258344049
0,0578776589351882
0,0524165158139104
0,0543609298736028
0,0567726218839042
0,0558467581984634
0,0547294992018078
0,0537064399855453
0,0575598714795197
0,0570964574602693
0,0553636841423837
0,0570303313817448
0,0558624332200166
0,0557177288509593
0,0560094448986308
0,0533766705620698
0,0565088251807012
0,0562517219740119
0,0551812746130532
0,0538021553088311
0,0544947925406263
0,0545167912162485
0,0582268109690047
0,0545246622264724
0,0515271451806207
0,0548197829459184
0,0556770930431634
0,0544709393467723
0,0513645526563236
0,0513509985417485
0,0551262085026702
0,0533062857077032
0,0534301715999427
0,0548184965892568
0,0527992754078208
0,0544220786604242
0,0528953430440169
0,0502009446066708
0,0540007600138859
0,0555285599744844
0,0528064938218452
0,0509693977766356
0,0541806371075099
0,0529939308972291
0,0497375666858766
0,0515612878336462
0,0531057723158838
0,0533555717769348
0,0545116790019052
0,0522762497752983
0,051704397198115
0,0516676244122814
0,0543084360097721
0,0540849139274238
0,0525238724751805
0,054055045468163
0,0558032879278738
0,0550580963358325
0,0549063261047823
0,0503388770129401
0,0533149325369276
0,0541557680009562
0,053745674391306
0,0548672654893491
0,0544269168807859
0,0550800673004555
0,0532402444409749
0,0521935183371656
0,0532548089027386
0,0536811056081129
0,0548555220880632
0,0523097287889338
0,0530031489080336
0,0546096694845182
0,0535383742833365
0,0523507753284274
0,0536708199236211
0,0518982217335976
0,0515193324608706
0,053404584774671
0,0536281792333191
0,0541809201335923
0,0566618492135382
0,0543074304898282
0,0535880755213815
0,0546110337625183
0,051422043754354
0,053113723630207
0,0535977495383973
0,0528528650552824
0,0553149013662247
0,0535729119570959
0,0551374673383632
0,0489192532981351
0,0534622118356471
0,0554733736634008
0,0513662125459906
0,0504232773430308
0,0544082477438643
0,0552589713033774
0,0527854620781304
0,052898418029773
0,0565538356815563
0,0524135707805692
0,0536639227975596
0,0539753243427768
0,0537651542937207
0,0542638388690488
0,0539230144868046
0,0525320194883432
0,0545759574183175
0,0546091226413557
0,0527806710388512
0,0566259725199683
0,0522252419526435
0,0522753359486147
0,0542893394704234
0,0527148696015103
0,0531698111428495
0,0573944509635403
0,0563074422821999
0,0551363089656248
0,055512348245306
0,0560205412580601
0,0532282667297953
0,0563399169448325
0,054319217489649
0,0541818690547923
0,0549369836689135
0,055716354686453
0,0533440952778735
0,057990825806589
0,0572358708905215
0,053550506742395
0,0548460087455389
0,0533459766722434
0,0553549802778595
0,0556889803548192
0,0560307822499695
0,0548084665069383
0,0537066927871594
0,0558999908015671
0,0569990209749671
0,0543026811553455
0,0539968678310462
0,0545774730757532
0,0537928284793039
0,0541360104807147
0,0540266361483387
0,0558434571911813
0,0551072780077561
0,0560210946459839
0,054082243944173
0,0549266736707851
0,056370230894737
0,0529903122884446
0,0520699098818269
0,0567827890638533
0,0552872044631061
0,0549994981221684
0,0585614278526179
0,0582956804411274
0,0534666436051752
0,0565486537020207
0,0569960695335548
0,0547336381711697
0,0570196999890372
0,0566126411588971
0,0561503779081282
0,0564933487202091
0,0555269042054756
0,0569857154416643
0,0548127079037151
0,0586169697104339
0,0595859361404387
0,0539454417337328
0,0583876917617271
0,0566613688683162
0,0557626197991872
0,057173041729553
0,0576103140487779
0,0606658037769964
0,0573222842193243
0,0588979108054759
0,0590506926269482
0,0568052936210161
0,05727552056403
0,0571160393195622
0,0551160072460334
0,0566305131875929
0,058421667990498
0,0582485162960726
0,0577817748053301
0,0585729230485345
0,0593573433055577
0,0577700634653299
0,057800172196753
0,0590521014539488
0,0596780736847909
0,0584937660904859
0,0583114694727016
0,0589863129715582
0,0601416260063531
0,0588846946154718
0,0556869337364406
0,0594586401079568
0,0616097739027049
0,0596911162610977
0,0609979488480079
0,0614228338836359
0,0605872208291087
0,0611934902942579
0,05810441518736
0,0595275697189631
0,0606499414287113
0,0578948248656503
0,0610836607014377
0,0615060124331241
0,058821462461651
0,0582318123138019
0,0585579528987496
0,0622193107429448
0,0598114011468554
0,0600033781165726
0,058204941249974
0,0603748881253319
0,0616456860964686
0,0612110511827857
0,0589334237156342
0,0593951951248993
0,060047590740907
0,0641360292703646
0,0612295078157842
0,0644124336198144
0,0621300525318414
0,0629639905531352
0,0613445656814223
0,0602934846398422
0,0652049087120093
0,0611503813044081
0,0624302288307779
0,0629211098493476
0,0642207668800188
0,0589520284531849
0,0632797453685542
0,0632491765111135
0,0611197707371336
0,0632076410470569
0,0621006492210932
0,061601309988023
0,0632948341493521
0,0677584793790853
0,063130700250451
0,0644857983894598
0,0652767060298999
0,0633622676777696
0,0614347640852691
0,0616645959255424
0,0638628724567824
0,0641400664567643
0,062307600979468
0,0625303869312259
0,0645653802515067
0,0647911358481209
0,0630908357616543
0,0636082511562216
0,0670642978884034
0,0631276164919584
0,0653823086813351
0,0675228858510214
0,0647972823361114
0,06310761261178
0,0664594318501807
0,0655310820982143
0,0663090398158296
0,066538589544062
0,0649209259517723
0,0635637786658618
0,0662581522719218
0,0681451055988873
0,0662600394817863
0,0650164495938941
0,0642216786064617
0,064935786700836
0,0680838404277821
0,0706715123340219
0,0654410976424101
0,0672264521417955
0,0683651989852431
0,0682682765487486
0,0692716212019314
0,0693263790829219
0,0674709576143083
0,0665053663834271
0,0676241275496078
0,0692587234386958
0,0657675052113107
0,0706882409074102
0,0678374051565021
0,0676153733512035
0,0703764058512676
0,0683867677447739
0,0674909453098571
0,0698546699746983
0,0657681773488369
0,0713584112728005
0,0713645289124616
0,0699022045133004
0,069383501237162
0,0720819099102151
0,0668733664178395
0,0736389595278553
0,0684157501127876
0,0728104251427309
0,0684764243125021
0,077292626697403
0,0705910044507412
0,0727735111494977
0,0712485939354388
0,0717875495760563
0,0692564960043399
0,0733313405980301
0,0691193657175167
0,0792160108479885
0,0732031238937944
0,0698455550782151
0,0701621293341092
0,0734072268730598
0,0674519368396427
0,0756253182232428
0,0711463137359624
0,0739839479054615
0,0710421822966059
0,0739547201534862
0,0741462796649556
0,0718520902619289
0,0687064643286223
0,076079899810287
0,0706926780115016
0,0772645786862837
0,0707210249097824
0,0779749500274948
0,0697009067047217
0,0768413517938268
0,0679473754162109
0,0802338557849031
0,0708118636139629
0,0822764951721214
0,0758558617958867
0,0807246581711728
0,068648408055972
0,0786747850107187
0,0676039781179783
0,0823583596053418
0,0692946867316288
0,0788402014844681
0,070191925427549
0,0811616198285845
0,0740609145282131
0,0799706571440414
0,0764170445781101
0,0771548769231102
0,0771390116205331
0,0786525694035986
0,0803293504440734
0,0749338869084859
0,0831916615825612
0,0721134094555759
0,0829480393509344
0,0704670344623086
0,088372897569961
0,0765773684302365
0,0862322512931409
0,0743406782256097
0,0841891304557653
0,0798673056436092
0,083007796813719
0,0813233759061518
0,0811587823035108
0,0811798681402457
0,0819119672994211
0,080718320467533
0,0809032210459042
0,0822954256896085
0,0837806445562027
0,0800432262363888
0,0818191234830022
0,0811135380152631
0,0836659285372498
0,0808701220516573
0,0816616597555035
0,0820976442158499
0,0825743069750909
0,0833265761312632
0,0830556015161726
0,0808799192820372
0,0809402615741588
0,0846525498821132
0,0841007862543021
0,0840822613317574
0,0842140135805527
0,0827535068000815
0,0865121809724775
0,0847456953425514
0,0837240708940791
0,085096760389494
0,0865791864580958
0,0861971915082017
0,0883365507398346
0,0836510566433442
0,0894944987812196
0,0882541937987961
0,0852363813499466
0,0870396513578614
0,0862844664694624
0,0878656723899262
0,0870682264580552
0,0863660665312068
0,0890168482917291
0,0901925689039001
0,0899631760127393
0,092559984661763
0,0908032014262621
0,0846809567757326
0,0899305953087993
0,0869801846555483
0,0907226213958217
0,090157828159241
0,0884014389812086
0,0901848782178461
0,089698917104583
0,0947355074356293
0,0908608045605662
0,0889348524845419
0,0905039068181886
0,0906674643489078
0,0905707599230194
0,0901032818221449
0,0943874192556746
0,0934885893371102
0,0941197084996835
0,0951736646339054
0,0980237348695204
0,0941089707955681
0,0929663432283052
0,0933025719450154
0,0959793056864338
0,0946324030563909
0,0943041320351747
0,0974411983988657
0,0936515434081484
0,094308866915649
0,0947423141465698
0,0955377166324452
0,0973615820638205
0,0980214200714594
0,0956391339805783
0,0949424830692572
0,0965112394739109
0,0995346461335706
0,0960702428373641
0,0980562766705336
0,0976698675417741
0,0969747964268688
0,0959476897260245
0,0982467320058189
0,100317402614391
0,10064475612954
0,0983474655088015
0,100866581282314
0,101212138812817
0,100885894134927
0,102018001477392
0,101886071435347
0,0990120204864443
0,101363055002971
0,101752552865485
0,101815252715722
0,100243424109771
0,103908597057841
0,102155487456743
0,105736340409121
0,1009544270256
0,105256638659355
0,104652889722775
0,105136044246498
0,0999325227712143
0,103897657980214
0,101693927319844
0,104029091962295
0,108076857019548
0,104334695101678
0,10524993208944
0,105636972414011
0,103020216293203
0,105596998005353
0,104213526449887
0,106339426293441
0,10760347898102
0,106624584466055
0,10554345518666
0,10865393330482
0,107733283946981
0,109778421633549
0,108251608410864
0,108058455700453
0,107183257366276
0,109701136774067
0,109770672737872
0,105552332105722
0,108802673833125
0,10949700840345
0,108956128769313
0,110011176821101
0,10900189942513
0,111098261294416
0,11021503129736
0,109492544746321
0,111706354088614
0,111228117660332
0,11184688354903
0,114019412595973
0,1096528095237
0,114063557920835
0,115801848840433
0,11206430178618
0,112917011696512
0,109608636438548
0,113791941624742
0,113621875181988
0,111379571243062
0,11544830185616
0,114070597304398
0,114571025925589
0,114049487699435
0,114647708546021
0,1152528338912
0,115357764558094
0,11546864043692
0,116332794523009
0,113571326432348
0,114165589693612
0,114327673741422
0,114549256213891
0,117307230859907
0,117438581131094
0,11383618252964
0,115502622824361
0,114430680040408
0,113906982380739
0,115479618858994
0,116955938958378
0,117750377060917
0,116413708231915
0,115488572417266
0,117009603010787
0,116884941878308
0,119489270496901
0,120033546183394
0,116755502695818
0,117131611008456
0,119603962283599
0,117110741973469
0,113524407139804
0,119138581088671
0,119075431306851
0,116957746243961
0,12085398795374
0,118553817933397
0,117197440927974
0,116870001768418
0,117178074497043
0,118803616882574
0,119136035453348
0,119724866266878
0,118727488822073
0,118547751298275
0,118937989781752
0,114863102605334
0,119744157534905
0,117345768393839
0,119504992580111
0,117536524689101
0,120946192609629
0,119806759472659
0,119354162406483
0,120746129572024
0,118280407577868
0,122120429404494
0,115909579561026
0,118416941678206
0,118125864733271
0,117987865697063
0,11750615827751
0,118154866624996
0,11917081625023
0,11691595289113
0,118405563325041
0,120070637271885
0,117369175214873
0,119915793493714
0,119194723645296
0,119399831356475
0,118898604835712
0,118257059893851
0,118573887292667
0,117819001258457
0,119831585902697
0,115265374962448
0,117866642631861
0,117206507717602
0,116552325458614
0,116822358974649
0,118101900204376
0,115662872302546
0,118961428729672
0,117090542465849
0,11784317214393
0,115586245177575
0,116876428752556
0,118046059200682
0,117074716038647
0,114877164982462
0,115984336202519
0,115387812904861
0,115856634539119
0,115312845219501
0,116540532309388
0,115082777663887
0,11649883315023
0,116015593703406
0,115293066451388
0,11333984179611
0,114839407841893
0,117223072836345
0,115875352272996
0,111240262540098
0,112758354801963
0,112958492218973
0,111997462951426
0,112964390687926
0,114118457366079
0,111007140732696
0,113167349419989
0,112705935500321
0,115863720450464
0,111847971980364
0,11314427083328
0,112082431763105
0,110700644057906
0,110941591530873
0,112602810395342
0,111269456171593
0,114521788256273
0,110446551136882
0,110054577201801
0,110600502545943
0,109203885059305
0,109105711278268
0,108209216980541
0,107643565308216
0,109011666153551
0,107703407050817
0,111149105628221
0,109257407186444
0,109260207240003
0,110437978440192
0,106391626828488
0,107090248112927
0,107536988716354
0,108581651328727
0,105851846394798
0,104483753400617
0,105256768299387
0,105780028612217
0,107630316976614
0,106050433743754
0,106060670191875
0,105285263425679
0,107118200209979
0,10462210420555
0,103223246167324
0,104945725555886
0,104130048838472
0,105738603669655
0,102892777139947
0,104068806442729
0,10143706804448
0,10178723671838
0,103000469723181
0,102321889861944
0,100591460343402
0,101321515047328
0,103906581756152
0,0986087943975746
0,10087052547929
0,101268121509765
0,0991527423452366
0,0983445033842094
0,0989552529161865
0,0984721117816474
0,0979534195034463
0,0971133274764827
0,0994859056970662
0,0990786351822049
0,0999264014174806
0,0972167967002807
0,0973854201387431
0,0970788602834707
0,0965710067999096
0,0971795416643218
0,0974660195175177
0,0973696795156768
0,0983145340931203
0,0952863075148782
0,0952137280852309
0,0953846249910462
0,0952441864294196
0,0946703934131682
0,0943564049788418
0,0933550524132691
0,0937149156482189
0,0916403359824434
0,0920298018424621
0,0937034190256242
0,093742316525873
0,0908046850520109
0,093549284253282
0,0903334105989089
0,0925794106292776
0,0913019734697494
0,0909566784185911
0,0908980479053096
0,0914577856879156
0,0901772541519155
0,0893213247838945
0,0917115316927728
0,0897159890444485
0,0904116975609309
0,0904392542426291
0,0887634707992329
0,0892438670838171
0,0910395472097095
0,0877963509403096
0,0894723656624939
0,088829853418867
0,0859628270676654
0,0875758685130646
0,0889509730998087
0,0879708185775528
0,084650356642777
0,0875101893019257
0,0885904225366372
0,0872277057489421
0,0849741924018741
0,0859788455799294
0,0865613469555249
0,0854297105453859
0,0852177216334008
0,0853656388238783
0,0837691288434364
0,0856464966275366
0,0836287029993373
0,0832662831002093
0,083484765052494
0,0838524210691409
0,0828754018533074
0,0825945282454894
0,0837901796747674
0,0857616582845265
0,0826033662846734
0,0845125057721678
0,0810432993744251
0,0817847052554583
0,0813476193338325
0,0826776552073672
0,0791419515025031
0,082747440737273
0,0814357346998527
0,0819932056338839
0,0805676366529346
0,0790569899589322
0,0805251791991263
0,0835901711468268
0,080756387511734
0,080790226841469
0,0803505681010383
0,0810126637180627
0,0810404090741927
0,0807016638069656
0,0813040700475357
0,0803591878056166
0,078697194835558
0,0803263296112821
0,076956859805186
0,0821491048991016
0,076239253917279
0,0775634579112036
0,0759178453275871
0,0764184287936236
0,0765883431305883
0,0801200506721629
0,0783804707023401
0,0780088036548734
0,0788160890604312
0,0777325752164735
0,0757656924392725
0,0780054798619346
0,0778386478203996
0,0768275060483898
0,080064946868717
0,0780438626776992
0,0758473515555985
0,0767073986939096
0,0774058815550477
0,076325011988486
0,0754798300066249
0,0787230028738932
0,0764775104499375
0,0776660994802485
0,0753821649127028
0,075181990341489
0,0749011791418598
0,076597288194183
0,075386945554012
0,0800101467162177
0,0777677717148471
0,0750361459994099
0,07522136963965
0,0747547545967557
0,0743209969591558
0,0754366076100254
0,0756829107938885
0,076407946202609
0,0744278828481449
0,0749864830899909
0,0753143902860856
0,0737275165183093
0,0744203817492439
0,0745851404451697
0,0746320105648404
0,0767812643991826
0,075014811250354
0,0749161157551785
0,0741483715341237
0,0773777920410582
0,0739992096244113
0,0756268151973711
0,0763284729450586
0,0756907321330259
0,0752138985500773
0,0742622385135077
0,0726476297989424
0,0763892156365725
0,0775116545407119
0,0756534781816353
0,075700889538799
0,0736555642031891
0,0748290924954657
0,0739917778380541
0,0743788307425777
0,0753714490266783
0,0758355766205327
0,0745588942320833
0,0726894174942424
0,0760294706146077
0,0778788669668974
0,0755423567025501
0,0760310989283619
0,0754950375789755
0,0768172567175802
0,0735629306130969
0,0778644769441063
0,0737953202137658
0,0782889740303172
0,0775186750693435
0,0773250938429101
0,0749047233264649
0,0749819194324753
0,0748421376535216
0,0752359925714797
0,0761205693102989
0,0759976838167436
0,0764331493076187
0,0762900808493643
0,0761022664924728
0,0766028118211512
0,0763983601915643
0,0763771572667206
0,0780330349484066
0,0766574958678742
0,0776497716146476
0,077659426156071
0,076529242213584
0,0761732343056068
0,080478969210753
0,0772497836100233
0,0788576557900854
0,0773479365879786
0,0782115303206958
0,0777154608128303
0,0788282558853184
0,0796798795036645
0,0793674323626414
0,0782431811091699
0,0795863967234587
0,0810887397724834
0,0808438244471592
0,080881866919287
0,0820083316507702
0,0820989373737358
0,0822157758328032
0,079430567394023
0,081173622718787
0,082191743667427
0,0816536223030627
0,0821375831806241
0,0813663143466755
0,0845726684844864
0,0836198905401918
0,0830466866161297
0,0845680197747575
0,0874151237200234
0,0861453265438305
0,0828673708409639
0,0861931213317234
0,0851691631300782
0,0871131435457379
0,0859555829207484
0,0877712681194186
0,0889364035722473
0,0855258711433873
0,0899154799730953
0,0874128953146248
0,0903353058777996
0,0883947097445473
0,0922952847803421
0,0864293562243943
0,0925304328357014
0,0880938723607338
0,0900109208115181
0,0901821634301641
0,0938908086525333
0,0937431890136961
0,0949689839020234
0,0942321099161052
0,0960711367610878
0,094012862660776
0,0941963103043911
0,0980056752835776
0,0927945351418042
0,100764826964092
0,0985870264536778
0,100513150424068
0,100540112593284
0,0987395362734349
0,104811339378841
0,101011323657413
0,102890546893344
0,10199406297368
0,101459756836641
0,106788576998479
0,103317518198659
0,110283129236133
0,107533925026061
0,104999594913852
0,109355809286217
0,108875672898981
0,11511056418766
0,115156755425072
0,111686338168434
0,112262913426577
0,115961426912364
0,111904026658914
0,119619804414497
0,119864635847637
0,117846507747985
0,123998623742591
0,121495027944386
0,127496495178848
0,122497755688634
0,126187493675793
0,127023580926534
0,13233076029162
0,131931812549561
0,131591469047475
0,133529757936304
0,140797107103177
0,134113561475917
0,143451300329971
0,141547806737519
0,144168899118914
0,145616368313899
0,149916483734771
0,147069382447653
0,15056614158495
0,152214712461736
0,161601305090279
0,157247461943178
0,157880344466444
0,158343833210114
0,161964857654424
0,16804635360208
0,168642816497311
0,172526487285103
0,173672889068293
0,173058672908968
0,180394581377407
0,181136837995331
0,18723200791361
0,186761161200261
0,19412606023051
0,193102909934693
0,199464836722892
0,200704631652795
0,205692194397231
0,20844478943061
0,211299682760991
0,21698850425171
0,218839845280942
0,219466556987265
0,224059670003809
0,233457307941677
0,240481759438696
0,237066238049641
0,25081550176016
0,244846942801876
0,251202662718794
0,240557804276581
0,288542491580942
0,268065822926537
0,275160023831625
0,278794516909922
0,268444003972573
0,299430141852343
0,292978009348493
0,295687634279266
0,306489724318461
0,308183980004975
0,313094738736527
0,318841006656278
0,3271330999182
0,336881418164461
0,341884030831476
0,343163278996911
0,347938766997461
0,377198799967037
0,374305470744482
0,374619561158097
0,383680758851945
0,389906045050978
0,390905053152265
0,395857445671433
0,40396253294515
0,409732259230343
0,40808140404967
0,437141563202653
0,432213956667883
0,438654104187722
0,435176837206773
0,456510951593656
0,455715499792069
0,463335994350128
0,483135284885765
0,478063116985572
0,486193088581161
0,491323771956485
0,50626278904332
0,498001470126619
0,518493863280936
0,528170309625682
0,531393790318665
0,534683098952594
0,532548113635153
0,548794289460731
0,558424182253298
0,568358130210039
0,573565797248533
0,582493685126925
0,598861122855284
0,608601605091773
0,60616468089323
0,59802565474628
0,606954223618819
0,610041224007382
0,629974610799427
0,615837909168531
0,641843505193355
0,636576640463863
0,636969077407271
0,646840707845586
0,629328990393095
0,641825212284633
0,643388215014403
0,654375322465174
0,65204022063388
0,65441652500211
0,664397315017404
0,654509595162262
0,684942338661288
0,657914341290241
0,652559100574589
0,647948458192668
0,656244668453155
0,656089429690818
0,65095986868596
0,631070839697507
0,64978585530584
0,63929177930263
0,622379518686953
0,618799950071003
0,63020995236475
0,632155604254018
0,612365218942244
0,606583495453123
0,596081318596802
0,59434965747151
0,575720158699412
0,574597419511551
0,599889906576164
0,552232517465485
0,539321259093527
0,544979510448403
0,542266497344181
0,528809068882313
0,524779352806598
0,516544254158042
0,508547478451875
0,502010630905695
0,49484264919419
0,489339768554567
0,48217767691709
0,472744569168925
0,467721918112346
0,463931288918728
0,449878402326804
0,442794925683782
0,442935184388533
0,433828386980784
0,426215400814494
0,4237907374325
0,416442956460694
0,409830488574089
0,40374920814704
0,396605201509221
0,394001353168828
0,38565982304657
0,381499295885935
0,380779969970052
0,374635587170193
0,366009714087179
0,360482257456713
0,363341684515505
0,356235146690755
0,351996005731228
0,347678213313086
0,344045660297094
0,338581125715725
0,336314158878454
0,331303238829987
0,32996283087744
0,329060468235311
0,335922997313078
0,332137659943927
0,316925568476056
0,319815283734728
0,314289154559738
0,311732747421359
0,304958687027441
0,309784666637805
0,312617201210676
0,299948615780818
0,297538929775957
0,297221427964149
0,291485037049392
0,295983263041677
0,290846027980419
0,288126596651085
0,285888396489265
0,295026063057134
0,31129176927762
0,266605607207864
0,289045013028559
0,27826058655266
0,276587301241573
0,275343507999878
0,275886638004828
0,267234380619711
0,27112843780041
0,271873928836064
0,267749350927059
0,267604964729394
0,264338544338262
0,261646774217514
0,255950957185835
0,256577782963375
0,259339848252179
0,249311665264822
0,250951642718424
0,260354005122517
0,250585390694598
0,246263033785425
0,248693430867587
0,250660772266809
0,24646859884005
0,246383734642218
0,24902103277031
0,243156829412093
0,255031222097541
0,245035108185614
0,238582698636646
0,242691610424849
0,239025790781694
0,240164088744968
0,238920269736703
0,237640393575479
0,231849394180715
0,239737689351488
0,233367597955553
0,231322541741034
0,234811741499971
0,22554524546905
0,243308795513381
0,230064636370861
0,228464471870237
0,232574171362975
0,234878530795199
0,228313107325662
0,229959586044776
0,227144616387169
0,224171140140639
0,229467812353733
0,225264042753258
0,219825896382894
0,226743597114623
0,227021355423688
0,222839436742397
0,227853481129536
0,231370156024653
0,224257283911801
0,222602785841682
0,222882326238332
0,218971601947218
0,219156754225323
0,219954214188196
0,216286341767989
0,223155584668
0,215399646569603
0,218954881442991
0,217327336255529
0,21609154631494
0,214963573155837
0,218429806963691
0,217143472803577
0,217801079724934
0,221517297608751
0,2183749679465
0,211088534615719
0,214622821103073
0,212690100137914
0,218616256474349
0,212372593059285
0,211871216832868
0,214167705163883
0,212957281834254
0,210443437592062
0,213647031434107
0,212382827065237
0,216624992632782
0,209943773981364
0,215730908283913
0,213894188023312
0,220738594398529
0,218329437327911
0,216252746541216
0,218154957311313
0,212721164511641
0,214802519543232
0,212165684990541
0,213911081822105
0,2157132319346
0,217012664644714
0,219414965963699
0,217151200018191
0,20985664573193
0,21197418270001
0,218223846016994
0,215424216317382
0,214045584678681
0,222025746553323
0,229009593337318
0,224959273626695
0,216844493183142
0,2170914310808
0,216265698725036
0,21238946439141
0,214539740599047
0,2128587294397
0,214665398941107
0,212908590430602
0,212181494643777
0,214086091548144
0,215611304302428
0,213531053993997
0,215639579861477
0,211480152370691
0,211087808125382
0,210765847940719
0,214962284057726
0,214445490887712
0,21295515335212
0,205508105130674
0,215923704660326
0,21311099742571
0,212299286371796
0,218677955837631
0,214722668583318
0,214055679641864
0,213907329589941
0,213614665858159
0,214892971654999
0,21431231580558
0,21166131030387
0,212219434611437
0,213121455913648
0,216155974643858
0,216215743910898
0,215159790533914
0,213630311909207
0,215090876247722
0,205958274524549
0,218949746810419
0,208858441114301
0,212245873666636
0,213932424061525
0,214601974811471
0,21272595658483
0,209031328461092
0,214188851424179
0,214621652667018
0,21544197801048
0,21467451835211
0,21605036051738
0,212937534584843
0,211068602393431
0,211420192561897
0,212922808322749
0,216970749483169
0,215417996290019
0,210197362251714
0,210240271185728
0,213647189449065
0,21266571729618
0,214968013554214
0,212491151576772
0,211474913631817
0,212073076761268
0,215939065136688
0,212911773665886
0,211903990899317
0,211194284669218
0,208265344386354
0,209846225864956
0,21093389586389
0,208292978332282
0,213225623069805
0,212956495411882
0,212818368993576
0,213903405769168
0,210051893110511
0,209687089967206
0,21369337515441
0,213118636086053
0,212261544332677
0,213908319626492
0,213356336509835
0,212580499984223
0,214427140158672
0,214196483115925
0,210323137239017
0,213736318580384
0,214716158825858
0,212425875207251
0,213811006991186
0,210052469541373
0,21301685216735
0,212692751198546
0,213179081618534
0,209982288951308
0,21210973956125
0,210866129208744
0,212059936943891
0,214222797022323
0,21008807563108
0,209264623607883
0,210275775357685
0,21093652276327
0,210295697454706
0,213106869577863
0,207769118204549
0,205653828852932
0,208007980813095
0,207828871167551
0,206929641880255
0,20862482933089
0,207764622934526
0,209161977928304
0,206113584207172
0,205472975282068
0,208771915022968
0,209505591416436
0,206310182196881
0,207707019312366
0,207942089905259
0,209760780383237
0,206050773060616
0,208153052547235
0,206974534387305
0,209188721005646
0,208580427223421
0,210292719802962
0,204648226875902
0,205868948286735
0,20780406835396
0,208789722984569
0,206338315779216
0,209442326311563
0,206266090079651
0,208286259015443
0,207968890249424
0,204810824202841
0,206450180992329
0,204593427276974
0,205734633010228
0,20472601101124
0,20452979191217
0,207510108490126
0,206091903562699
0,206066268767292
0,204635896790196
0,206377119915085
0,205741604142149
0,203456320333784
0,20532342201005
0,20515487288877
0,207700464711224
0,20789966160679
0,207401313078793
0,204637705897178
0,203092184702483
0,206681054635867
0,203936520399165
0,204137460874881
0,204095027671061
0,206432383385704
0,204242122697404
0,204373123775073
0,202329354715522
0,200208535929829
0,204693252795715
0,203549578354038
0,201123936843706
0,203491742452849
0,203297338869699
0,201818343336215
0,201222104852666
0,203401574834487
0,20376298979136
0,202036318651283
0,202580450427295
0,205144573066738
0,204820451485781
0,202441695361162
0,201858881045037
0,20160870524759
0,200833874780066
0,201041654530057
0,204514953095214
0,202711569749774
0,201804167189645
0,201503187578591
0,201982764924337
0,202074119115751
0,202548094745167
0,201911270204691
0,203759293711471
0,201862481880377
0,202499690191033
0,204232804681309
0,200077104819543
0,201568175374072
0,204544400455367
0,202240791871631
0,202094675419782
0,204098016267194
0,204888600409857
0,202118308958599
0,20034086578888
0,203579674556094
0,203665875150285
0,204372012639895
0,201822099206312
0,203749169215416
0,201580822556323
0,202317000202164
0,202080861696309
0,203625875960679
0,202435277856138
0,204428793093807
0,203005589505031
0,202289391704986
0,20149134634951
0,202487558954088
0,199996259924686
0,200889160934085
0,202922712196605
0,203517462898339
0,203647894975947
0,203382032339499
0,202258349022181
0,202572421366966
0,199180309250236
0,204701066505796
0,202828732208888
0,199459389754869
0,199241754587071
0,201111276951236
0,200260073804856
0,19999565090159
0,201696009665777
0,20093810520485
0,202813550727568
0,200686298023594
0,200231277887833
0,200467964771997
0,202631754839083
0,20026725675843
0,202111525901066
0,201453543747574
0,199196900573142
0,200716325505472
0,200583202866326
0,199341125676993
0,19933461563895
0,201354289921228
0,19853486791444
0,199232314615704
0,198306713910691
0,200423036086869
0,199160790463229
0,199179258327257
0,197732800284653
0,198062812429884
0,196415337672921
0,196052949510956
0,196346266980666
0,197998060074198
0,197392801306555
0,196763536437688
0,19646185477572
0,198153448702618
0,198692384191609
0,197747645954887
0,197205743592059
0,197378930654301
0,195200682753378
0,199055914787306
0,196487192699679
0,194675218471967
0,195850603183989
0,196953174065666
0,195587673502479
0,196453712545542
0,197213423344292
0,195429287246809
0,194473126290486
0,192848045639612
0,193156160291393
0,195699881185097
0,193007941730745
0,194340442390742
0,196836887187333
0,193047273387872
0,196856280045097
0,194533776759478
0,196154933858275
0,196206297078766
0,196498949432131
0,197031098649916
0,198883558894761
0,196993531072378
0,198413518830433
0,198201168450612
0,199404655228296
0,199474529997506
0,201789047906224
0,202139041322968
0,205018469656067
0,203809156081403
0,206453231332487
0,206505802205729
0,207409727595006
0,208910214386949
0,210485357037822
0,210878157447617
0,214244431055309
0,213702298407564
0,21552794501627
0,214239735806981
0,216365225881746
0,219899157098505
0,21790173926655
0,218777780506955
0,219496396380008
0,217903776593113
0,217165966189979
0,21889691578665
0,217196775001029
0,22017501336917
0,21691522131951
0,218320125663403
0,217870050287109
0,217451063620475
0,216594863552998
0,215428974015742
0,214712801967923
0,214738191244487
0,216982082155606
0,218011727717276
0,214720775169922
0,217935534650949
0,215613981463307
0,214388875916665
0,218032647149022
0,217534039679365
0,216384752085056
0,216112723442992
0,2182287785625
0,219358177438513
0,218325624119228
0,218967652620058
0,220336912195406
0,220677848244627
0,221817277789107
0,224473610980906
0,225006989122941
0,225507765980508
0,227391712249834
0,228456196545215
0,226192891163937
0,229567818263183
0,231522392519947
0,233299657757832
0,231433718609598
0,232205743454518
0,229782420320964
0,231461747140635
0,232437752024396
0,22929576781948
0,232453844106936
0,229522475678355
0,228447421270683
0,231593974582161
0,229964472380188
0,22897917786925
0,230081900593905
0,229368681280697
0,227874236463582
0,228663669796138
0,231267194284754
0,233343163831904
0,235695973976619
0,237102821766344
0,23452054152865
0,238623085877004
0,239496634586918
0,242484506210365
0,242518553086609
0,243230247057449
0,245869108031997
0,248088378675332
0,244615139654179
0,246674260988839
0,247143728148455
0,251562521202863
0,247714290457593
0,253334291288737
0,252422564604841
0,253821159468683
0,257210377680059
0,258857965446408
0,259637273380992
0,262868584694997
0,263801035340586
0,266005684773029
0,26900452545718
0,272877556551554
0,273212633108919
0,27380436148721
0,274285276631304
0,274007569943435
0,271927110234699
0,274405384373452
0,27172613376927
0,269936779271096
0,273903666535299
0,269346640284474
0,268573346240412
0,269789424851723
0,264715697810822
0,263960242636631
0,26541624389569
0,261951045472783
0,260598128219645
0,262116356487476
0,261802888785275
0,260786883974363
0,259235211715817
0,262417161288295
0,265489409602037
0,263334316499309
0,260274184639538
0,262453858204504
0,264177328147286
0,265321755004792
0,266165127193066
0,267812229351858
0,267139117166372
0,269493655856588
0,269805835893558
0,269911033960517
0,271345115305789
0,272192930560262
0,271468260389677
0,271041377016632
0,272138958200406
0,27233837996708
0,273188360528716
0,274423564229708
0,272191805650927
0,274765233604368
0,272932125764124
0,273461729237225
0,274602184882811
0,273852616830406
0,269113334876599
0,269144608781803
0,270697727583457
0,271443046978256
0,270068740769391
0,266762890860415
0,270920149355766
0,269366083866367
0,268233817179753
0,270035201739198
0,264921039742818
0,264867524340081
0,266169701290964
0,268302470853377
0,262672926275351
0,263754706991626
0,261179001159041
0,26024481283882
0,259616274466024
0,258841277733718
0,254559191726667
0,253120068560347
0,250171300583244
0,24640196984248
0,250464813481353
0,245124496710197
0,243775885620393
0,243849498482148
0,243933075278693
0,240542539960205
0,24301058025488
0,241650899995649
0,23944968371114
0,241222026904951
0,245276054239714
0,241776144625805
0,245447929453179
0,244752165122385
0,247015373233073
0,243826997627336
0,245269869255275
0,24429965529992
0,245154134526309
0,245599125928631
0,247766173354293
0,244927919617182
0,247560192703313
0,246549146005092
0,245915034999015
0,2477538773113
0,24432744619851
0,242363284969867
0,24442192293529
0,243643092074704
0,239721040112179
0,245293933401868
0,244294619239919
0,244171851462943
0,243327076727499
0,244358503165468
0,243528838233797
0,245568451797574
0,242311371556498
0,239683353952412
0,247455086195527
0,245849040148563
0,243481333148046
0,248553162730095
0,246102431539721
0,250280092174922
0,248470266369803
0,246207602280232
0,24750885832367
0,24443100231381
0,249954044698414
0,250184990971667
0,248168659564492
0,248887929840004
0,250326245400285
0,254113504014371
0,25381762028691
0,257294031028363
0,255845270206273
0,261062555453793
0,261646580594065
0,259842519191899
0,263957739005037
0,262853035568124
0,26303634868447
0,262314116018411
0,267795795955272
0,268031827183904
0,266642326712562
0,267933128535933
0,272097268610851
0,270477493290183
0,273993241970122
0,27446549531919
0,276670619465502
0,277089481624295
0,279792926545527
0,278506241899351
0,281567614126433
0,283728424457251
0,286926209427483
0,290808201084366
0,287174938698121
0,285554354114438
0,287104203575928
0,287407989748781
0,292121409273925
0,292655811934527
0,29307015662986
0,300481378099726
0,298403599675976
0,299670414363622
0,305488019736693
0,303386803579334
0,308637402564874
0,311187942847117
0,311249626840837
0,313929102514925
0,316958987711376
0,317622990611642
0,315056028241171
0,318198620846919
0,32114396592822
0,324206580471859
0,328065118913484
0,327571654694023
0,330804195616666
0,333590753729348
0,334824851161811
0,341668742621476
0,340898160720007
0,339132719420514
0,344390702477105
0,348941029651927
0,349085002920027
0,34987081622188
0,350543684551587
0,355467496401066
0,364002456712452
0,359815329248817
0,371897988323665
0,365355574818831
0,362375937383125
0,374482699695081
0,37463742783111
0,378429428449599
0,375006141862109
0,377766356990948
0,381326713917022
0,386223811626713
0,38855572892254
0,386177420200133
0,389584225165732
0,39755571391376
0,400866082842485
0,403165920469839
0,408308148481761
0,414088198736282
0,407245083373118
0,410231827400548
0,42183444535884
0,421647621279275
0,423652667373599
0,426123280844582
0,427133451066308
0,433174788592907
0,439779430874541
0,430801450608889
0,445471648732917
0,429843591705898
0,445410480140661
0,450443438812488
0,45690376849102
0,446959300186525
0,45640649768145
0,460962669592181
0,461976349668775
0,465160297721437
0,482048497221114
0,473241235641164
0,471030713866406
0,46478086671908
0,479505633374116
0,500610956803303
0,496762106805669
0,492873776972701
0,495446549529738
0,507004216925731
0,502909376644378
0,49537004254639
0,49862144978606
0,497800629436279
0,514914541925595
0,521294809697015
0,52799678545559
0,533391952839907
0,534883615116473
0,530985775030811
0,548265373428003
0,528127206173522
0,533911396609166
0,534987604095345
0,548594680502212
0,540304719704844
0,56351101907962
0,557716891506879
0,569962566797748
0,575980641840793
0,571563086468175
0,575184021039671
0,571797542162533
0,570387053589403
0,588027188723831
0,577846859892488
0,583305353373606
0,587522066937839
0,605456342249417
0,604142702585812
0,599061940307543
0,588441007489405
0,624472567335924
0,627392419759121
0,617673126077376
0,628728965598495
0,631898982257435
0,639709315086441
0,652545713214537
0,630728420822536
0,641184331104318
0,645256946045804
0,66106818692155
0,642030999259593
0,651258283049511
0,653670712294685
0,646050738816774
0,672590347950291
0,688923848089461
0,667106882184006
0,671549124295929
0,693797600102671
0,713997024839427
0,677610456794268
0,69552408497965
0,688649923055036
0,72585292593181
0,691621779752312
0,705958404363039
0,686340079741535
0,718801573974325
0,704635361139425
0,72918661612762
0,705546065320494
0,737843460071637
0,735464069071114
0,7508903802261
0,767061078200077
0,76451720523342
0,735122390778838
0,727465335084657
0,747358883112566
0,795410159751287
0,764330343435428
0,773222198187719
0,779413874223361
0,776321622057746
0,745414473398376
0,775432385051681
0,759305341870901
0,802360278689532
0,773107442993858
0,84483206294438
0,847614553004785
0,823030224714519
0,840874965408675
0,858333595479158
0,784218990685791
0,831946249273966
0,820731031563378
0,84057356511429
0,837791925321625
0,846903603397069
0,856299332741614
0,865267264363018
0,882151971091409
0,843435691845168
0,877084159754527
0,872881449053796
0,842700778247541
0,960021694648256
0,894032029741467
0,905023598019887
0,858377553487748
0,868141840644965
0,921521372012355
0,981237949760227
0,916230340238908
0,945495949875251
0,914260180612679
0,928029349415549
0,955327044794725
0,943480964321054
0,919850233026051
0,956768145130738
0,939701499203437
1,0467023955738
1,04664453524235
0,944211663046356
0,878243515296539
1,00107030258905
0,875336437000506
0,887267602765943
0,939104357988531
1,0120914556969
0,931178961799017
1,01386978301104
0,964345851891867
0,948208991740332
0,950162200900938
1,01198117711873
0,947098263484039
1,07142436573155
0,988949648578497
1,27920245539823
1,03727084049197
0,939277804518084
0,981493089767446
1,02436401784303
1,06646127582144
1,11401248589293
0,930541535301394
1,06595172714717
1,22325795212447
1,09220467205565
1,09564847188965
1,10008742520967
0,972994780245735
0,913762703511646
1,11964496307145
1,27742920161814
1,0043507341866
1,22424564167291
1,18814877553588
1,12739603231773
1,19265103454439
1,22094252287203
1,17546629550301
1,43644304517829
1,27191069966065
1,16671447255493
1,26980316046549
1,24439500418418
1,10725872246383
1,03943682891841
1,10587517374406
1,03030909070385
1,1227155908687
1,30853350980233
1,30891427691183
1,27282495558077
1,70351844073433
1,18216328924484
0,89578871735561
1,31896416444884
0,952482429881937
0,933870223206321
1,15418923585691
1,86403079235915
1,28327156855384
1,24067823791973
0,847229805462188
1,01300942437295
1,26242803062933
1,35815642363792
1,1230400399886
1,35955759334534
1,34995714735557
1,10548949416295
1,01746802864832
1,29792614353729
1,01562919725949
1,70355599765222
1,39270645686896
1,1071806349223
1,47557404093132
1,47862057685801
1,10164989970659
5
1,77990272863733
5
5
0,991912937727957
1,51495437360159
5
1,22340998806089
2,17509990690077
5
5
0,639726324558576
0,827126834669682
0,924864884331027
0,764198313789516
5
1,19604768798578
1,03709250475136
5
5
0,980620206305296
0,889328032531789
