3596
4000,36533379555
650,420452594757
1
2
2
0,0176441169474575
0,0142521663337692
0,018464110355852
0,015833691472105
0,0211610728002621
0,00687384882510298
0,0140253490344574
0,00932295220085997
0,0115863984588756
0,0133309861755226
0,0171095361192411
0,007445257665296
0,0115419656380489
0,000508934200511975
0,0157770878205329
0,0157032445809557
0,016641086165392
0,0140150905877265
0,0176380855725329
0,0119327280916911
0,0221276539057567
0,0209951573421911
0,0201599769140539
0,00567615257862059
0,0202589183091078
0,0119254102366739
0,020899640867969
0,0121871247245538
0,0126773389942215
0,00624959647892038
0,0104324713716333
0,0122501805135862
0,0190717363612624
0,00843743121133238
0,0139301193796366
0,0118604578641924
0,0160102096642373
0,0106926469901498
0,0102949559688689
0,0118294741251449
0,0181469015202115
-0,000310710887474271
0,0172173297969147
0,0206780409349009
0,0219331596662612
0,0202372396501834
0,0186003193155042
0,0209828610426547
0,0240499238663787
0,00807495720566576
0,0201746764270548
0,0124016183289083
0,0203492521401666
0,010086907492818
0,0148148791727577
0,0252734336658361
0,0136567485447788
0,00804316387075611
0,0255529113785951
0,00918651892439796
0,0178514220326124
0,0103901248637165
0,0175076867519935
0,0167564121030165
0,0117128053668632
0,0160317421890519
0,012672442585462
0,0141003074479934
0,0189347384687025
0,0151785482957251
0,0127276446177129
0,00443022118820604
0,0130195090964311
0,0177459736918583
0,0210138942249252
0,00789741178671497
0,0172119998062721
0,0140257341795512
0,0167235898677217
0,0168918190555806
0,0253832680493752
0,0155800601240708
0,0142108398688874
0,00724768981753799
0,0201810511549843
0,013997838881453
0,0120159265878351
0,0226395080536426
0,0154477526085801
0,0111626134637522
0,0151782722079743
0,0161728466913504
0,0171666967496258
0,0168009377066034
0,0141566437162259
0,00434617172627784
0,0154717612148481
0,0126458295941144
0,0155118214875182
0,0108045243120967
0,0278613506200067
0,00734725254953708
0,0302263587395338
-0,00247057379262877
0,0286320980936907
0,0107445156537119
0,0167087914129935
0,0166353893474996
0,0139713053723513
0,0219399727164506
0,0115728145169814
0,0058327876395479
0,00882605676630871
0,0190642211634434
0,0140986944903091
0,01124732913661
0,011365322275846
0,0139550860458774
0,0205130616048699
0,00884023361980917
0,00742037144247679
0,0235417162525113
0,0236238954011312
6,29379219405066E-05
0,0180348057386587
0,0124832357866462
0,0174397844729815
0,014111116214338
0,0233754977509588
0,00846507629425841
0,0195152834328875
0,0129246090277136
0,0221967351357344
0,00309141002094244
0,0300559651601072
0,00894380579637288
0,028006652785465
0,0088600089529053
0,0113808549576907
0,0108817244849782
0,017650429115826
0,020841292008942
0,0235606261873872
0,0157308382373688
0,0288854049552047
0,0187087109318286
0,0131821764573608
0,0156492850505655
0,0287861446253694
0,0107299344574905
0,016037557064762
0,0128698815619507
0,0237049567829157
0,0187128990154797
0,0179981699878049
0,00538205134973405
0,0363539302328608
0,00237159688543628
0,0415687401081059
0,00548015429994484
0,0319461996278178
0,00614631515890535
0,0169932428950706
0,0110562877562467
0,0241097211169571
0,0096956459470389
0,0125123398699577
0,0132374340504526
0,0199267756193212
0,0129186541407542
0,0307309638632313
0,0202608184444739
0,0201696049065121
0,0249788186949038
0,0156026634083101
0,00548442074913659
0,0201786263170977
0,010064318158659
0,0134064675442068
0,011754753003342
0,0286759404194685
0,00770462175363519
0,0258326711518085
0,025905216177721
0,0289704949828269
0,0115542689934138
0,0217780948588207
0,0126109231680851
0,0323377481580367
0,0116873837862803
0,0270177779852665
0,00981196169194904
0,0294993546657045
0,00296314115042303
0,0263642419476369
0,000629312248631539
0,0198116325275554
0,0172419873005459
0,0178111743395318
0,0108637633911433
0,0287025417764264
0,0226018104542759
0,0172173004928779
0,0122681543181869
0,0213613414364221
0,012051089980668
0,0393583514991421
0,00911966579510629
0,0311877513957961
0,0124753422625726
0,0206068847459648
0,0129144427319416
0,018365352319894
0,0191735627151843
0,0183962666575661
0,0217391265962601
0,0193478759489397
0,0185736273700989
0,0242011885418529
0,0176753723076988
0,0285668871335991
0,0135125063646256
0,0178675349366154
0,0188078381870071
0,0262211428713964
0,017836479345735
0,0287272243583181
0,0170331307379082
0,0217747132801996
0,0192898773036697
0,0201311772367888
0,0190133015125929
0,0247072207950452
0,0184438696601242
0,0161595421351438
0,013005326614399
0,0362900418540708
0,0163844316232763
0,0247418820878695
0,0119574801872664
0,0296069427211234
0,0210216493564281
0,0232779573919789
0,0120677953654845
0,0277585362079401
0,00688854560034807
0,038900744978583
0,0144569936857425
0,0264225355434425
0,0184028126123055
0,0300806795223951
0,0272294554601083
0,0273610989476743
0,0235109926859131
0,0209402487823185
0,0257161147020315
0,0283336272192479
0,0262262687689343
0,0222620616761388
0,0224638942088908
0,0367183683934926
0,0276922554950864
0,0200631892874062
0,0298968267941319
0,0237075850042575
0,029057672942871
0,0274278047806066
0,0172533945247818
0,0415188296157698
0,0210256419053155
0,0242929973704899
0,0297818216272127
0,0197341155042813
0,011563970666533
0,0278202916048568
0,0312754095987664
0,0331491048985707
0,0290431030630683
0,0335276568980833
0,0317151465505871
0,0368306379717799
0,0219969710033489
0,0532752229414795
0,0208650201633903
0,0480010508061429
0,0261554884899582
0,0435625820403835
0,0368449351595193
0,03511316412919
0,0367294274284578
0,032412994283522
0,0298673071912496
0,0349308647300268
0,0449516882589617
0,0351801189527023
0,038102331763782
0,0340226938391604
0,0441538348202123
0,0369966769419712
0,0383401066007233
0,0326603892660316
0,0421887944395068
0,0369251341728419
0,0444296609671257
0,0446503895514621
0,0384410078257622
0,0448409261085587
0,039457870926957
0,0562939618653868
0,0498339650624721
0,0481628305674394
0,054855653524999
0,0507781581305414
0,0433550699958171
0,052951913004666
0,0522545442509379
0,0505960385275992
0,0586634201055992
0,0591230832018872
0,0628989242324177
0,0664312203720911
0,0549587427794053
0,0596929448942496
0,0589457933106661
0,0639886118221877
0,0637881416034946
0,0751817564922584
0,0685121656047495
0,0675114904578593
0,0749142213309073
0,0793604118367346
0,0813440813460277
0,0783708992098901
0,0698141918957034
0,0927585804664087
0,0790428174475907
0,094420372033902
0,0835006748117055
0,0955349180673317
0,0885260812454447
0,0955514392081726
0,0961204135085575
0,0991478571529218
0,097696375567593
0,108651672402104
0,107498412879251
0,128023727037884
0,103842729433519
0,119145545687347
0,109553495367767
0,131073386212313
0,134454446609226
0,123070590834597
0,13368830660944
0,131561305400158
0,15336526691315
0,145065195691707
0,149055289707727
0,149905405433978
0,150958495198344
0,153698223325539
0,151790552023733
0,164309959622092
0,163797945599912
0,175355236630785
0,174049927057363
0,184439844486729
0,180724722603194
0,190048245454818
0,188483544011675
0,184602773732851
0,189537186626232
0,216129535893951
0,204396211855825
0,23721120592474
0,20938105805161
0,221336890211679
0,193604423663472
0,215290711144083
0,22252258839066
0,238464463331827
0,223315410783817
0,23343222357853
0,235664011149027
0,241738751596406
0,236871699384069
0,251272381996522
0,248255925904681
0,261759091296412
0,250709076215669
0,270100641238075
0,266341919545736
0,268117513433865
0,276386573282893
0,273751808917621
0,27636605883145
0,301495676846509
0,322510510987819
0,27415358119221
0,288014625287506
0,285151945813302
0,289042168161702
0,291831244338605
0,305902330336836
0,303091581025126
0,31241550437454
0,324194947884676
0,31926897388609
0,328333243720376
0,304447430596792
0,316477995879838
0,329554189092623
0,332175972749282
0,336966366843304
0,340209171243174
0,343299605281021
0,326598935138005
0,341114297187129
0,355271033334134
0,35358623927287
0,352517428896366
0,356992292272961
0,345896571713097
0,348351705427112
0,355157841843986
0,349356112448012
0,368084356465461
0,371009018527189
0,362715726134197
0,362544215805058
0,376864185862361
0,384162672874059
0,392775871380864
0,387969170694219
0,395715985970152
0,394241920461975
0,383631389272379
0,409255464607893
0,407957433807524
0,419637248527691
0,408981184787152
0,422366774550623
0,392879373566508
0,406658707839658
0,407403826341002
0,420180235676057
0,40606213968933
0,41481566770725
0,431174156552362
0,441633011214256
0,44190270223397
0,444526029301793
0,441845340405106
0,446042689178105
0,463109502386277
0,440351404054723
0,440492234938304
0,457526428612443
0,451917164715755
0,464336449720035
0,469430803337673
0,480771231525866
0,479357043915971
0,503781308013322
0,481342947594766
0,476675893932116
0,464392970578541
0,467631974771423
0,497926673959068
0,505635374912077
0,495114229960717
0,502919850366933
0,508378835996443
0,510966942598026
0,500838118410503
0,517458550173086
0,520304071419634
0,528034827754769
0,508955014647033
0,508350839438967
0,52012013253376
0,52908014878301
0,521478914786675
0,547382451126266
0,550943216925936
0,553921631905421
0,525610606740473
0,532609312705512
0,545824432550513
0,54474493697381
0,565177888301522
0,563354667945619
0,569925325449547
0,588873471428084
0,578630512597413
0,578479261146005
0,563157808493265
0,58047461344472
0,597788230528501
0,602576874300858
0,590737707294346
0,603138730176715
0,586884962279731
0,613353454950969
0,596033365656586
0,622382660812821
0,611534525658066
0,631457065172162
0,606542828987372
0,613245687703227
0,605193765951308
0,633832341831921
0,612935385402419
0,638405718531898
0,63735918911251
0,625806122188592
0,640817776694462
0,663108633492101
0,639902013792525
0,654640791719107
0,642627982430981
0,680822603390521
0,719815859626141
0,685831905663024
0,678959832702949
0,705497605383335
0,658697465445125
0,704626012748047
0,671840558931105
0,700712005279028
0,677149926207987
0,72264270547084
0,687153837733121
0,684815617697787
0,732871195189215
0,725687391022561
0,685912989743756
0,751399348521246
0,707243535288097
0,770176653874261
0,735846212349625
0,725179062549882
0,707731754122368
0,75604560097871
0,71186157396744
0,764892406757879
0,746167343056092
0,796674642482817
0,765756032709573
0,802776579103232
0,762910883902944
0,774007553364013
0,781186854525433
0,803375817877963
0,741821915384316
0,816052951955682
0,759269034360764
0,759743956358835
0,752525431412648
0,792800564683973
0,808069559560499
0,820770792937413
0,794606911233976
0,813644021601868
0,797786219545534
0,877755755407093
0,832253415780521
0,852280806316667
0,787772213741868
0,843806567199356
0,770414733110206
0,833594547764726
0,858500200623804
0,875797700952405
0,782681241724275
0,826528918580349
0,871803127634337
0,83790907231406
0,845202474430138
0,90487682075028
0,878758785013523
0,905625998998135
0,894295719721772
0,882329163250517
0,857370193526636
0,910933401749501
0,876062953425466
0,940458761172816
0,887846436353504
0,958656595727714
0,885501084389078
0,901752299167652
0,942836870056638
0,950985433611892
0,903935478837044
0,925683100604218
0,871974687352794
0,947023496392568
0,95702758657368
1,00634167636978
0,895676675698761
0,944743588718254
0,886655457886188
0,976170845442049
0,898699509262761
1,00064991721074
0,92874463707766
0,986227731371962
0,931810863861847
0,979387911121009
0,942568196261819
0,937617483676678
0,923837922810523
1,06019745871869
1,01239584058625
1,06129669928191
0,94080865570121
0,972989285051433
0,972513224219448
1,00176748995242
1,06013237307761
1,07851834978915
0,991249835510801
1,1224721904202
1,0276071664267
1,09330501584836
0,981192034200501
1,04531126959261
1,01028747178036
1,07882586938126
1,0385663696787
1,03390347865886
0,969988466482951
1,0470071038525
1,09071824803184
1,12086812533692
0,990997740430741
1,05111866389536
1,00087520288989
1,12307363142562
1,01605608566443
1,06540957150483
1,04445630618917
1,07570371656185
1,03562216137741
1,07887823849151
0,983644796213061
1,11893376213417
1,1226396101942
1,15435962528395
0,995182747363827
1,1230520027814
1,0829542354056
1,21490765698462
1,09014092195263
1,17245675152029
1,10116350105916
1,16062478065347
1,10529244356993
1,10770024834375
1,05249043483317
1,18212248762409
1,13837406229069
1,17773709977833
1,10455939258811
1,15622720719447
0,994759888832096
1,15203300123314
1,09680467213292
1,1736266837288
1,11890424143924
1,18340347009967
1,04882641703775
1,17415209188075
1,07903444634624
1,21373234180885
1,09704314656856
1,18454603734978
1,12647394647744
1,15552500082832
1,14941511041647
1,23169469368152
1,1480404834659
1,1861220671372
1,05644512829737
1,16374899966927
1,12761766895746
1,13447811466362
1,10747852935526
1,14901825094596
1,12743005130821
1,24555430706852
1,11596470412153
1,17192725842107
1,09269380708226
1,13316818213997
1,10886628191652
1,23985464444997
1,1434256625312
1,1873341642521
1,13641232987211
1,19740703690463
1,09643237084844
1,19333015996995
1,14457939953732
1,30133481522097
1,19980647348576
1,20261029974404
1,10741249063525
1,20056621839413
1,23774778304725
1,2176106395706
1,07022051712302
1,26907850968396
1,14127433944453
1,15254873492129
1,06311204829733
1,18996459781731
1,15960191507995
1,18086364344542
1,13649798811798
1,2222226611529
1,10675205304468
1,24880243094032
1,16832632936019
1,20761708563055
1,11503620039382
1,17822067055278
1,15434284265535
1,25818813472732
1,16434072987888
1,22203208367344
1,15764645073116
1,24489904332638
1,09599766174395
1,18139698647865
1,11908810706731
1,18943718890465
1,08009332147143
1,14252395982206
1,15005732118302
1,20807784270073
1,14881588693775
1,16977649086169
1,07077508228946
1,1852646407971
1,08471429022658
1,21351093690005
1,14005117134156
1,23718250399753
1,0692405367154
1,15094511921968
1,12955367184096
1,1940860574973
1,08331971787904
1,22862842865928
1,12199225143406
1,17226622651919
1,07739547725035
1,19584562559412
1,14315526959458
1,18327271844754
1,12847230252607
1,21982211380659
1,10801723180358
1,18362215763182
1,12062135667168
1,18219780534789
1,1256092623615
1,20617861665051
1,13381521514955
1,19237281103655
1,09234585827677
1,20214213409499
1,12949001666141
1,1985058836172
1,12353348262318
1,16424422318737
1,08853081706335
1,22073171779099
1,11597593505776
1,18284287802306
1,13767995907473
1,12124491652411
1,1767031026675
1,16318492536783
1,09525926201044
1,19039639768355
1,10414063705957
1,17065956204699
1,14113535337815
1,17647221208587
1,13209218197319
1,13831294235024
1,10188005462384
1,23273198536166
1,1994133079577
1,18726427634682
1,11757289566208
1,20498750168084
1,10136725942323
1,2809651967765
1,092018154253
1,14013423623702
1,1171278141078
1,11503181550663
1,16942124094869
1,16735402357682
1,16351659134282
1,15135509676978
1,10719276769078
1,17200645597664
1,10304170793327
1,15233491552773
1,10970896481243
1,15354742931341
1,07324560647808
1,12489089024247
1,07134029617902
1,16302401669757
1,08340489848419
1,15447260461561
1,07600447974301
1,17503344302677
1,10327235764596
1,11217722061441
1,13613103720253
1,11361601503175
1,0702318413402
1,07675300211303
1,09637860164667
1,18844939019157
1,04888047679119
1,1437056809033
1,07586280325111
1,19566854234281
1,10851297515093
1,15578717565645
1,03153164493745
1,13846233160892
1,04840139785787
1,09611942195946
1,0701195634526
1,13467627514822
1,05471754819904
1,15777601475396
1,03439237674584
1,1081264239031
1,03866915286153
1,08077626345894
1,01549566038218
1,09690640041938
1,07947719822104
1,07303955010992
1,02660847739708
1,09675550211018
1,03557372404258
1,07454832117363
1,00816268173401
1,06217612068944
0,995945365201863
1,09743683171046
0,993769776583861
1,09930203216694
0,969391997474459
1,07998885884447
0,991888069058848
0,998341420397335
1,01870704255344
1,01403910613146
0,976432975440535
0,966913322842073
0,964790297093597
1,01483062983994
0,971601715968
0,987369449107331
0,920872554197899
0,991504286162368
0,943866416221598
0,977097391468607
0,923725655241971
0,990119011266316
0,919178856046838
1,00078733537243
0,908929727226715
0,941507724247899
0,939313327367607
0,950782394208158
0,916073136241757
0,927668879695562
0,857555622790893
0,952576421515332
0,890070391728072
0,917714556870948
0,862057708411936
0,912828040232381
0,884614975092876
0,856688183594715
0,832637340762466
0,88814844785307
0,8437796128281
0,847229683380775
0,834844669260649
0,8407981590883
0,866711661159587
0,867916905794848
0,840205143269685
0,865082905090046
0,821123342665291
0,828454004291669
0,821978141075317
0,851031742971909
0,82262540101217
0,83616620794507
0,787878657398832
0,802686605966773
0,783931782591945
0,786218404065487
0,794182107576588
0,803570807346743
0,750683901284725
0,771548380292724
0,724194053204089
0,7597049551728
0,761293877018051
0,766595547521114
0,749205443528746
0,782473503262023
0,731539901685328
0,772921317751415
0,722211098933804
0,737817733393616
0,711895790060915
0,73432914185581
0,68990663318929
0,721988537468435
0,682664200154504
0,707594372780552
0,683603140779839
0,708707670881735
0,672830837913771
0,699902084734086
0,648484590131796
0,695155199116397
0,678160240207595
0,674050588168303
0,650889578474215
0,668952355023508
0,644825679353617
0,641619271861502
0,642198006573042
0,631517141440534
0,64249571136764
0,646095565808308
0,627165206694723
0,612402807442707
0,6039853101094
0,630071920542267
0,608977153503906
0,61218374336511
0,589027161258336
0,598462858584743
0,600151086776244
0,610887335764189
0,592311164393613
0,588985058505515
0,581511114454152
0,5949096060276
0,584613113328435
0,583407308246655
0,559457632138153
0,578447201335782
0,539072739456567
0,551480928643714
0,533712774180697
0,57006452945658
0,54266953752755
0,551492001529687
0,530310248855033
0,546907814941192
0,520459812581167
0,529881941954267
0,51663657455078
0,52083959828062
0,516631289084322
0,524479815246815
0,495690074222674
0,504922331818162
0,491287384656624
0,493356543761098
0,491148271361308
0,50663967743844
0,487555055097506
0,488135132098507
0,473865731639003
0,486573665399955
0,47229237005564
0,474269742016833
0,463768558417388
0,469356339244273
0,45775327359977
0,480163407248171
0,458596604416785
0,460507694216938
0,443737117844062
0,452151109480329
0,437292441522577
0,439325588863669
0,424827652685125
0,429128342766288
0,4239720956393
0,425992508276783
0,424620897180694
0,423680798575628
0,41462240079926
0,430405310942459
0,401877090337876
0,418463934668062
0,411555330270419
0,410369432801347
0,39904764913029
0,397865742575583
0,385418311596894
0,404601390114551
0,385788094797848
0,38678451177852
0,379566036168101
0,390318612059677
0,380120992132547
0,386129288146867
0,371970118907052
0,380337407276857
0,36218126873897
0,368989519467085
0,365835899652326
0,36475174480525
0,358887843128383
0,35721142796915
0,353107871900721
0,364362245304379
0,348532143613957
0,346290231357361
0,34301006440986
0,352048486389126
0,341594658310811
0,34838969849381
0,325964661790553
0,329906255445372
0,330664544311541
0,332920961552847
0,317762519659465
0,320773839288928
0,317573130447786
0,322498760023706
0,311328175626291
0,320769709586088
0,309049822835685
0,313695333750336
0,301585765587022
0,307863909394744
0,297219121331875
0,299217324513404
0,299286775269083
0,297644103928492
0,295545169176345
0,290419996452025
0,296357876883456
0,293835283333662
0,283530652655247
0,285534509493937
0,277079718139436
0,28029913889831
0,276115406021144
0,279933504115444
0,270184827816753
0,275072667177444
0,269088847369918
0,273408288281657
0,267310058305218
0,273785852289452
0,259878450359379
0,259750993300004
0,255788343018509
0,257082940719924
0,25614567287378
0,259647407399823
0,25275301914948
0,250194142127209
0,24839703801929
0,247026712499186
0,241751900876113
0,247426164990218
0,244285501263283
0,24520615255661
0,236657649560784
0,24389102673912
0,229381298384506
0,236780534642194
0,232463283130719
0,236876075113457
0,228857208931633
0,239306884103908
0,220336483483258
0,233128833794781
0,219029850205941
0,228653472626399
0,220873996171179
0,222386481253741
0,215697931395949
0,223385484125634
0,211920145882337
0,214203612860057
0,210409618460559
0,210210933581849
0,203543620274769
0,214340298034618
0,211206304487641
0,213770908619673
0,20085275568673
0,204054787042517
0,198246198538569
0,203818744060291
0,199972463603803
0,203766105096439
0,200478493742923
0,203293612949927
0,194818475316232
0,194440435873345
0,192389926365195
0,196465642547096
0,194110755542662
0,190872040544481
0,186613898489379
0,191605758864162
0,184060774536097
0,1871991450281
0,186156306212329
0,185369152499798
0,183519375028022
0,187452433308912
0,183059973086023
0,179119895093898
0,1718604742276
0,173321476390693
0,174350842732205
0,17980940981038
0,172985623448907
0,179403334174059
0,170509643886324
0,17687538099399
0,165871350296872
0,168168082237337
0,163661353896295
0,167809059474149
0,1641392301176
0,15954463014217
0,164726724311169
0,168373225560623
0,158344680622775
0,164331219853322
0,157256171037913
0,154756114400042
0,154510477832274
0,162591390077771
0,149244814827748
0,158123759520241
0,155994397623116
0,15441343196701
0,145712172085515
0,153157440364635
0,146764558114225
0,151105615486699
0,151586666257728
0,149602196438794
0,144002016536539
0,149706181312988
0,140989917102088
0,147175051752724
0,143392266784429
0,144334903922006
0,138337061225642
0,141171982825078
0,143505542356746
0,143655108208684
0,13608490901967
0,140533013107227
0,139775886263898
0,141215224690429
0,137923795007444
0,136244452902912
0,130659700850656
0,133640966168159
0,129716145771109
0,133554697412763
0,130076534968884
0,130178795597715
0,126480101991918
0,130550981486219
0,132160418763955
0,127059012691873
0,124875787485977
0,128012983011554
0,122984315935112
0,128068434829162
0,12832349002077
0,124703107608096
0,120425352653075
0,120689127363896
0,122148537888606
0,121217208310791
0,117167306371994
0,121058436684965
0,113269287898448
0,115469088730063
0,115135881567632
0,115062196271936
0,113919284803359
0,12250890131613
0,114865469179973
0,115217267540225
0,107484127853602
0,112810905758764
0,111051719211682
0,112462794752312
0,113011749782589
0,112735305542424
0,103784197199697
0,106324616193273
0,105359756037276
0,111003702378212
0,110947807284741
0,108696917484207
0,106637230441659
0,109564653266376
0,105387009645751
0,105567721167196
0,103364619108322
0,102738891661077
0,0992837954083087
0,101191836755697
0,103570007221854
0,101322207207785
0,100595968261336
0,10271389111117
0,0958563045471363
0,0992653155541015
0,0969274970138401
0,0950214028806197
0,0922231420932589
0,0969790076795631
0,0958825142417148
0,0934612191726122
0,0902922575148775
0,0925875163968784
0,0910474126670726
0,0946307707224993
0,0945352685112997
0,0957351393598188
0,0924415216866366
0,0948700162685173
0,0890450826880192
0,0944383632934224
0,0890594195495814
0,0945909882584528
0,0952628605182021
0,0904399627521385
0,0867003677624657
0,0885248946965561
0,0880576712814643
0,0883553575757666
0,0875173726615157
0,088178587839837
0,08278129071535
0,0844714014105262
0,085657865686444
0,0871031032916664
0,0848134650634511
0,0889045499542055
0,0838524566301815
0,0792754844304578
0,0807443985840944
0,0846577548130224
0,0798735861952588
0,082222434682303
0,0832889749631582
0,0869108799850619
0,0790190713301113
0,0837817291015511
0,0844799275724114
0,0831297396946797
0,0764426864407492
0,0751891931958262
0,0771616126394396
0,0776621242883964
0,0823011834026835
0,082835356666111
0,0768854472501478
0,0786090830651272
0,0766671827309085
0,0805256049881465
0,0730516529375136
0,0787795673604526
0,0744407200360746
0,0720603173291103
0,0767204293975934
0,0771322156676515
0,0738526358893772
0,0757798729644193
0,0730094220456406
0,0742280994859747
0,0733890911400368
0,0784157315403276
0,0764191047140266
0,0758356816268256
0,0708627410955981
0,0720922842917132
0,0703409776614688
0,0688414130554402
0,069685868453622
0,0734887717735952
0,0694240595957995
0,0726852609318109
0,0713869161682299
0,0722285991865905
0,0700568676063192
0,0695112930689377
0,0708045746984946
0,0711929963179482
0,0658810579273078
0,0698272463475824
0,0673707763085858
0,0709504377716546
0,0700699658075439
0,0713094149139632
0,0691441742446906
0,067632747538802
0,0663479041919994
0,0665640333958487
0,0685036057924305
0,0684234357625214
0,0628387100860799
0,0671854746688092
0,0639456850962038
0,0633648040626823
0,0645849370891575
0,0647220069925432
0,0602922740499891
0,0657572591218427
0,063901624430133
0,0640263730948531
0,0626615282764924
0,0673011588584012
0,0640446753765308
0,0629532988927008
0,0601884985453792
0,065599983049974
0,0679929524363514
0,0635414556545766
0,0618546306219398
0,0634773644689704
0,0622070919562049
0,0657124321471903
0,0609519094708721
0,06071465027446
0,0609435827298665
0,0646955470133182
0,0622686968183368
0,0632272646531633
0,0634356242126535
0,0651778644429841
0,0603457894979502
0,0599559212104143
0,0583504446492252
0,0607891398898139
0,0594834578967248
0,060522603269479
0,0622488559441656
0,0621697809144605
0,0581447993028987
0,0613039125303115
0,060757127367304
0,0592388058779325
0,0572515600437564
0,0640786568718777
0,0598949596528744
0,0587720178045614
0,0625115163969953
0,061159805117563
0,0575524136706401
0,0575298602864089
0,0562246631820602
0,0610177341040127
0,0593507783701435
0,058823085291604
0,0606895661567406
0,0611203305686435
0,0554682573714207
0,0603306347116281
0,0581474256544946
0,0586848966394533
0,0587500893350445
0,0597181458618526
0,0571629996818491
0,0562930703781015
0,0556100212065204
0,057171291000409
0,054959368572917
0,0582989647052636
0,0543815508591067
0,0561279806718145
0,0561793920084263
0,0590712562416174
0,0574547439014995
0,0571271772209241
0,0574736571562351
0,0572257258035644
0,0532432806096229
0,0537465197309997
0,0550394907259949
0,0579021795330184
0,0550734688181513
0,0514818118438714
0,0553855898639441
0,056415988986538
0,0559717972814125
0,0568546430526296
0,0544385960831798
0,0539694209181538
0,0550548605856764
0,0594884330879684
0,0521081007588807
0,0550493221077964
0,0584577445263294
0,0543501505064802
0,0536840164664138
0,0565528686960621
0,0542450704611831
0,0535822727131756
0,0516342673243376
0,0551765719076652
0,0543573864914573
0,0561497571978184
0,0534242828109968
0,0542541960159943
0,0533927067993004
0,0525536556567877
0,0522524795393575
0,0543695633594248
0,054548789834776
0,0557526626838409
0,0545096373210873
0,0513885148641417
0,050595589718365
0,0531216695008889
0,0506340357075369
0,0559161540442554
0,0525778402271227
0,0526197190513612
0,0540415302136369
0,0528973026621317
0,0505751388655881
0,0552803352884053
0,0520518365511216
0,0487176941909977
0,0511946653098468
0,0540799403989784
0,0513646386891655
0,052738580360194
0,0511050442966473
0,0541119580271938
0,0510488853070831
0,0525505322792405
0,0548611486912912
0,0515943606485063
0,0522381677037754
0,0518968846906919
0,0486349449805248
0,0530303832505555
0,0513114135096574
0,051789840756384
0,0517112608010856
0,0501446775394286
0,0502908317771272
0,0491374478640477
0,0505961111611072
0,0506671392443453
0,0494449852311723
0,0538297893429914
0,0534586703023847
0,054014780584157
0,051597438575676
0,0492635683623195
0,0505583576355163
0,0528311381581319
0,0510115665562559
0,0533009988928846
0,0528721340701794
0,0543322992637809
0,051446315557463
0,0510640913117027
0,0536762823108206
0,0546883210755684
0,0512921531718423
0,0540039759483652
0,0509131018015107
0,0520597058979759
0,0507318602722493
0,0520262005887678
0,0510820740002502
0,0517579972470886
0,0516561474325144
0,0518319779944371
0,0537961681983323
0,0524667119592654
0,0492224871869246
0,0526378709811719
0,0507025563776971
0,0517039358293137
0,0500255015423171
0,0494666175978637
0,047887513528631
0,0511253265293619
0,0540789541229549
0,049506691357737
0,05166749440416
0,0505458126606317
0,0499609404461144
0,0521120309463129
0,0501122955668968
0,0539715950846975
0,0507598012851382
0,0534997844689159
0,0495175371633236
0,0511527380910961
0,0531736638219136
0,0524672894783606
0,0465851130678162
0,0531359362969201
0,0549631712229194
0,0534976559020328
0,0537126369709135
0,0524881327915784
0,0495695270618425
0,0527919721589659
0,0524652267829766
0,0537682176420925
0,0517904351237739
0,0503190664282288
0,0505778358803851
0,0538963627427449
0,052395947035146
0,0519678106508405
0,0547179090931392
0,0500268395930912
0,0509610387485256
0,0527136270772981
0,0508264375637016
0,0528042655823494
0,0537465270595092
0,0537690475928999
0,050824802042098
0,0523759126912433
0,0525756616276059
0,0496202515272324
0,053650990901225
0,0534855726463764
0,0512946619195013
0,0524384021608702
0,0529116742645499
0,0535893537465678
0,0545263632063547
0,0537624340546392
0,0543776734452925
0,0536784930957718
0,0512897477904828
0,0564418709361282
0,0542076526761462
0,0523834559934422
0,0499616367674986
0,0548612289608233
0,052811514311336
0,0525494876361731
0,0528908024574854
0,0517669549875555
0,0532371556674659
0,0532369827119247
0,0510837326502952
0,0489120707192992
0,0541885479964977
0,055698602547555
0,053977939480715
0,0550850403838238
0,053005025669891
0,0532871965385912
0,0537076079496475
0,0532418982419567
0,0526158425748478
0,0552594055333789
0,0588142852100028
0,0566004981609438
0,0528869801459112
0,0540159599923442
0,0552647346679652
0,0561906091867734
0,0523735103528948
0,0533223717480924
0,0566617608102882
0,0564162293571242
0,0539162735786998
0,0549112110174932
0,0534927858613812
0,0549323466302383
0,0558673555613429
0,0567393013387001
0,0546500180992029
0,0537882323147284
0,0563333355325755
0,0531432047414723
0,0540123868824543
0,0564125843430094
0,0544720336756651
0,0540331107462417
0,0579985392953634
0,0565152905838665
0,0547052828943798
0,0557199186519978
0,053998774921764
0,053382403908143
0,0554919931483647
0,0562241177248711
0,0562923728665646
0,0552503300517752
0,0532370442085684
0,0554280133470786
0,0556313670819016
0,0524255727655439
0,0568337816372721
0,0564424553791718
0,0560262375961124
0,0563241531103112
0,0545137259847076
0,0581851075381149
0,0556230330004484
0,0537263144590587
0,0584623211933531
0,0586137845597337
0,0561071880855113
0,0577247378221626
0,0569382795344038
0,0578356224416923
0,0586256813832738
0,0578788098277484
0,0587975015645734
0,05906304328752
0,0574921294114817
0,056830740743447
0,0571952896457576
0,054774529605821
0,0544967858417749
0,0551639620419922
0,0590282520667574
0,0574774218323349
0,0582092522484592
0,0571184869596707
0,0588674772048761
0,0591794530124693
0,0601144137891367
0,0581019447519514
0,0574912478388467
0,0587747680596322
0,0611464538163862
0,0590263620085745
0,0601711109341664
0,0580861961559592
0,0599174846377383
0,0565114682875382
0,0559540069392702
0,0611835815841132
0,0601525067952903
0,0589503581406672
0,0598754177790116
0,058940678716212
0,0586702372342022
0,0595622314170949
0,0580845017653686
0,058021339973906
0,0607044794699166
0,059290548609538
0,0578600013695877
0,0592447916356758
0,0643999021774375
0,0622060784266672
0,0624045536909137
0,0592571458602536
0,0610421700628788
0,0589315737259209
0,0590796916755033
0,0616435722575303
0,0611325905644729
0,0590118710699061
0,0603655810858138
0,0594403470354444
0,0589016628378959
0,0612694520250935
0,0611341200506026
0,0606873443380455
0,0624176106387871
0,0603074810134156
0,0641579986427211
0,0629372972206212
0,0629757291621533
0,0618184592131281
0,0596388280108876
0,0629308343160621
0,063076902649328
0,0607248111518889
0,0618311770881536
0,0626907981089789
0,0645188072159813
0,061389280650449
0,0631958471145803
0,0617494882480873
0,0637271026826553
0,0628231427255884
0,0646021789604466
0,0633141572223
0,0649994234643512
0,0639588221360371
0,0639297270861819
0,0647326229628081
0,0645361180461573
0,0616494608311323
0,0642312775575823
0,0656872259187276
0,0665019242127227
0,0598488773661766
0,0659981313308275
0,0636609667216589
0,0669545290994178
0,0670338170299816
0,0665117283962298
0,0640743922898538
0,0672079657858206
0,0636695548277523
0,066859894912383
0,0665274891121371
0,0690364405739269
0,0615256565019733
0,0685113733526298
0,0622114681513673
0,0678372486355309
0,0688543689894486
0,068364048552371
0,0618091930749501
0,0755583507133488
0,073432013894096
0,0702295748236841
0,0679863859062728
0,068026582608415
0,0643235801990214
0,0705845533020511
0,0649083560396879
0,0758656643054894
0,0733293530535454
0,0724735185714067
0,0652608959052998
0,0681524019294699
0,0624468021323912
0,0729866371372396
0,0672672349183314
0,0727117976726282
0,0658456759149103
0,0725203621397
0,0665772363234608
0,071393505214524
0,0659859319682174
0,0742780235915474
0,0633571505472041
0,0763970711365871
0,0642865648931035
0,0775942547431287
0,0635182818990545
0,0758225008056612
0,0618520586222368
0,0783055795498347
0,0637309181274704
0,0807191057169253
0,064830427489906
0,0817744655191478
0,0612404852561828
0,0775272800533428
0,0594519211974442
0,0819943067877769
0,0638572716366186
0,0806889888901883
0,059056933322615
0,0771865399783207
0,0628542285781445
0,0803521028942549
0,0694669017984968
0,0764846207649762
0,0694987263833536
0,0760238855601768
0,0765465589386365
0,0682179299700073
0,0815860020002575
0,0675668213151821
0,081837191226535
0,0630130976373425
0,0878903689456662
0,064184757322959
0,0831352499680704
0,0641684171283361
0,0812425270615753
0,0700139149640149
0,0767574148490642
0,0763343173497818
0,0774041509504209
0,0742898913459042
0,0773783403980224
0,0779665064144652
0,0757281843624344
0,0770973798535572
0,0795571823001192
0,0715973540476206
0,077904967705802
0,0759784552424854
0,0790567996390099
0,0779899919695842
0,0799892065430642
0,0751910102919918
0,0791048827636985
0,0781335431951869
0,0796341664354656
0,0760507260493342
0,0780481721892595
0,07914789654455
0,0794077047273864
0,0740199170774255
0,0777964087362791
0,0752893957628058
0,0819256740862556
0,0809137732746502
0,0762604265649626
0,07768043710708
0,0821929561535854
0,080483244644608
0,0827818890197532
0,0782767539855763
0,0812345550626187
0,0818323403213072
0,0828635259241197
0,0820343911800835
0,0801914776166821
0,0804378684278988
0,0826016187961796
0,0799305316111975
0,0852486065510127
0,0832997992812671
0,0829019340979121
0,0836266309911038
0,0834286370353786
0,0789321486075739
0,0848622555342393
0,0835978931293325
0,0855261177774206
0,0836391761873997
0,0824386781039874
0,0836242107256168
0,0859022183243076
0,086631487149537
0,083719692523011
0,0821014536091599
0,0853053766720819
0,0847093489298669
0,0856907848003604
0,0860329491667797
0,0878730280477774
0,085220259865138
0,0879384372739144
0,0888460831453183
0,088990528496949
0,0871252255373055
0,0885435047656705
0,0888207874818548
0,089910365413116
0,0872029972679342
0,0874571296924063
0,08974087654276
0,0867817366239406
0,0870277045037748
0,0909193376958521
0,0872500942394226
0,0884859705647484
0,0884915199739097
0,0902631117386658
0,0894222186142483
0,0914301627887803
0,0902668206516292
0,0902537191781265
0,0888288844431229
0,0883373538332825
0,0911148512798176
0,0914375480537718
0,0944140977429784
0,0938600146824501
0,0919157734181321
0,0925519279056449
0,0931721429353266
0,0950663595468441
0,0930095437147263
0,0939619003265424
0,0908635556089968
0,092390127881673
0,0970762614747978
0,0927551046518021
0,0939060750139725
0,0940462094192939
0,0933506306442869
0,0939606017797219
0,0978907847093213
0,0952795007225264
0,0961617934944352
0,0959028309190062
0,0966208913866469
0,0941636004261726
0,0958022089463017
0,0950572198314451
0,0973935110613358
0,0976827225024476
0,0962454053973017
0,0985608552570937
0,0983187014561236
0,0971377977266474
0,0991420411424821
0,095540157008345
0,0973134852084892
0,0963627946942062
0,0999860407369843
0,100999701810569
0,102351345971395
0,100713159877571
0,0999311999642637
0,100963129283201
0,098098650538368
0,10144353151577
0,101924137277194
0,0997494864939374
0,0980069780302838
0,101685115642297
0,100908831979013
0,0985893005663773
0,102305741058946
0,0992919137649348
0,101053812098642
0,101632811660903
0,100251656980814
0,102602867926668
0,102931338342628
0,102698344820791
0,10320563304964
0,0998896792046214
0,104030014386259
0,105607306730444
0,101247011898531
0,10126041963921
0,103799258267512
0,105525768948612
0,104742621075445
0,103163986587381
0,10483538688599
0,102398640955296
0,108053195958902
0,106575848956619
0,10398589360005
0,106768857633536
0,10805926456031
0,104280180388261
0,10734604954077
0,105092001156915
0,103387352494765
0,105021222543154
0,104543278660038
0,104965541762515
0,108192731734032
0,106759803086653
0,106902973461788
0,110414564806112
0,106128607177177
0,106787364650443
0,10756967273923
0,107844215723264
0,107124551661007
0,105238276861714
0,106861148359532
0,108422527581809
0,108184167240981
0,106841694105841
0,108146708490723
0,107305204991551
0,110918990541868
0,105896638824507
0,104522468277036
0,109113310782936
0,107350073539004
0,108860760619537
0,108677049494971
0,108382584594245
0,109125763764259
0,108126194656684
0,106317647016708
0,108922676390407
0,107220987410141
0,109081641320503
0,108041699513681
0,108664314025005
0,111562300994191
0,109672438086687
0,109010470944143
0,107688137475706
0,110291504682712
0,108945656733268
0,106349530890571
0,107514545144557
0,10992599741567
0,110099636926213
0,108010606479673
0,113322171194172
0,108541847855834
0,105706981507728
0,109553867209579
0,107439386990612
0,108620994704921
0,111162627027467
0,109545745335769
0,110583865435079
0,108759199672154
0,109410667254424
0,106246409164942
0,109553232803657
0,108040798944668
0,108931002149396
0,110233001120581
0,11031035950034
0,109185241951836
0,109834945800936
0,110418785553746
0,103170188306421
0,108540246014604
0,107204086230953
0,106403364641741
0,108766482078088
0,109441793897809
0,10748197710146
0,108123727821275
0,106704701953615
0,109654768155301
0,108903757876034
0,108434542204639
0,108575992902446
0,108861789799768
0,106230252520362
0,106740339081136
0,107390013036975
0,106041773706555
0,105419097168887
0,106492198149867
0,105635210640287
0,105302827942526
0,107361036680032
0,106022988773201
0,106192678093229
0,107444536503141
0,106988529063296
0,106275923829308
0,102520969038121
0,105319575216122
0,104640705480911
0,104810613668895
0,104567957189538
0,106413833148131
0,10200839475254
0,102391888270872
0,104583655321069
0,105749118241914
0,104424422138031
0,104017133248485
0,103923565696765
0,103483273420327
0,101272314692593
0,102397873737651
0,103621554564592
0,10491156222136
0,101660675792782
0,100219679727598
0,101244022376747
0,0992837286116596
0,101326062153401
0,10009327283959
0,100658294027401
0,101383242727725
0,101946819288058
0,102061598755031
0,10100506950195
0,101370025871528
0,102802519700172
0,100092342105562
0,0973716298756736
0,101497135900231
0,0998608325549428
0,0985598658188183
0,0987297697470305
0,0994785712639402
0,0954956582229585
0,098631292648639
0,0971072036067413
0,0972474748449034
0,0951590914571825
0,0985286538642077
0,0968670360746284
0,0951374092893286
0,098190740648964
0,0964671043126287
0,0969114885141896
0,0957563995238808
0,0944460058356271
0,0947540295034325
0,0941869133225189
0,0979499832072996
0,0951425306280618
0,0941848745418361
0,0930435472567872
0,096259811817628
0,0923312346149855
0,0941554148040085
0,093141206409442
0,0925584302094764
0,0925017928457748
0,0910120258605678
0,0910027855277223
0,0941951278332956
0,0903765489199188
0,0926693352288087
0,0888526049868929
0,0918693092643539
0,0891559991813068
0,0903009679555503
0,0899906983028653
0,0915468294800205
0,0884101658921891
0,0907549155559248
0,0887718230229961
0,0920939697079742
0,0875869256691251
0,0903285454776066
0,0869337335861753
0,0881430152750756
0,0876433429540685
0,0862881061019582
0,0869643585322426
0,0873341750164697
0,0866252087939843
0,0844415228005321
0,0867462096358794
0,086980595964728
0,0866385152850039
0,0863159943849443
0,083720896313976
0,0856525729090342
0,084963932883618
0,0848779295756022
0,0857933505640292
0,085174740144659
0,0857616809837061
0,0838446104858942
0,0830170474866697
0,0808177717303136
0,0825200808214144
0,0823893903033934
0,0830267841916719
0,0829617976992127
0,0845158212127065
0,0814672663468175
0,082737697080009
0,0839270835453148
0,081464317623364
0,081806764257802
0,0824330291503191
0,0805390526372743
0,0778129599427275
0,0803097052279797
0,0814351825078037
0,0800722803902831
0,0790268035153698
0,0789393787142088
0,0790102945161536
0,080112662631142
0,08110086219346
0,0794686755572679
0,077606633819342
0,0774513508588958
0,0782555363170989
0,0765512146854953
0,0797701783623232
0,0758255356596531
0,0775131061971472
0,0772539671113652
0,0761268927208811
0,0828451918085401
0,0748061970110583
0,0776029971428515
0,0758377290698359
0,0759372386846652
0,0750017141262288
0,0764099749733091
0,0744485240992357
0,0785990116626928
0,0757216920936907
0,0784206310003781
0,0744568698658163
0,0744706653268312
0,0742438935465441
0,0765571293291599
0,0738155640375748
0,0743439005021323
0,0731360978529495
0,0747782036233438
0,0735148564095007
0,0761212842413093
0,0756607966475202
0,0730012891835792
0,0754241118313129
0,0746404777467883
0,0713103389173561
0,0763617907216389
0,0692736126087366
0,076218199060131
0,0702405727325033
0,0720509351986944
0,0707472005275891
0,0751484473265371
0,0719102331349674
0,0727645600659608
0,0731870913510521
0,0716733555066128
0,0740598311597332
0,072331045343888
0,0727940458923895
0,0697793933980961
0,0729916583962406
0,0734558045717644
0,0686176078684796
0,0716340698728072
0,0692272442352652
0,0736262722233752
0,0711715477834159
0,0743755942865195
0,0684577479304912
0,0727735652575349
0,0695916776121374
0,0698306354871083
0,0700521578598928
0,0703664715686356
0,0693348503598366
0,0767111372780868
0,073484703331256
0,0694767786497429
0,0717259766552232
0,0678198350856087
0,0691556509052293
0,071242222070857
0,0697098442785207
0,0689524492772206
0,069380864670446
0,0688386683030643
0,0698320059889705
0,0688884088088389
0,0695342145602495
0,0684172965862959
0,0702511294821105
0,0703406101542237
0,0710648926286991
0,0696216622766359
0,0684519805754672
0,0716687688055667
0,0661285866232331
0,0730506796062716
0,0702481965769443
0,0704501087683007
0,0712474149867163
0,0691909591860543
0,0691042498678883
0,0702890172701941
0,0690668457707563
0,0698383158287819
0,0691553662626014
0,0690196674225505
0,0715366452433053
0,0714999023806029
0,0703581359930156
0,0700092467360196
0,0701349512663233
0,0678415943321718
0,0679719277269346
0,0701634621738829
0,0715549178777286
0,0671775955209701
0,0698307495993799
0,0651749600809941
0,0714956232102326
0,0674225990569801
0,0733515343204346
0,0649891559958082
0,0782481595855496
0,0688633385226174
0,0698387558981893
0,0711674096131032
0,0674294465736474
0,0703126076000225
0,0676603522847372
0,0717859030754294
0,0719129631447869
0,0690842628295802
0,0704821752575768
0,0716254087242016
0,0709114718760884
0,0721474242754575
0,0690275994902418
0,0720560803368959
0,0737256239961173
0,0701684930713073
0,0729839903377462
0,0710448247677002
0,0720315446596011
0,0762480550364719
0,0703569314269739
0,0747383080248423
0,0709339349177228
0,0716237814123021
0,0718587341872463
0,0744239162329114
0,0742196886757707
0,0731461399559786
0,0720751163853231
0,0721504014004892
0,0738444601979636
0,0722421638868892
0,0731106898143949
0,0732305569844624
0,0760817428768577
0,0770731064335491
0,0733946148709728
0,0790201704853431
0,0760956746300492
0,0750960036224316
0,0756030343114223
0,0747650404055597
0,0768466425280165
0,0790820127805188
0,0762377993170894
0,0760338852289974
0,0814260506888731
0,0771498146388865
0,0741359379112566
0,078408558440036
0,0771684095296734
0,0816839656033933
0,0774988663289184
0,0803192918246033
0,0845396639544542
0,076427682001871
0,0852790320091676
0,0785633428481556
0,0852636071007759
0,0793532819157393
0,0885169762418098
0,0769706583596579
0,0851959558285525
0,0811337597431333
0,086535120952855
0,0815150212270606
0,0866811679380105
0,0834473922816248
0,0846009511858036
0,0854329572118865
0,0876876804056991
0,086456454954236
0,0884523478845919
0,0891459796965256
0,0861030000011373
0,0960561490007377
0,0899410082614944
0,0911692342231194
0,0913968688854276
0,0916701472713075
0,103677082256339
0,0897302633638203
0,0947172386271454
0,0915612331832348
0,0936204950987841
0,0996883496401926
0,0983976828058904
0,100924127337803
0,096563003869155
0,0932752156895863
0,100957270611493
0,0968244260646697
0,106899919950965
0,102056772433864
0,104047041231786
0,103211880473398
0,108299268859874
0,103493506131246
0,115147500153667
0,108407021440373
0,107100516049294
0,118848914294259
0,110206894498113
0,115674014800595
0,113832663180391
0,11804249812667
0,114607374770713
0,122105250563404
0,118589628610814
0,120210115380374
0,122003340117937
0,129700701386916
0,119946024631342
0,131585289658127
0,127815212132493
0,13379217528362
0,130133378306956
0,140928468920765
0,132355959068327
0,137334016253884
0,13584717967529
0,149557200497602
0,142491648739056
0,144336500981901
0,145885730947348
0,149392395006498
0,150147955809489
0,151490161024559
0,155920759453695
0,156586368872645
0,159528341715639
0,163678495704774
0,163049365560145
0,171819274296939
0,162009457338306
0,178944246430866
0,171231819462246
0,186740483840667
0,180117530066128
0,186140295454025
0,186341363951106
0,190102767979831
0,196497300625152
0,197267228917177
0,199010134891321
0,203397527506326
0,216326568540653
0,214631508014359
0,208922408943334
0,226866132015103
0,216478459087641
0,23185615199769
0,216152103554946
0,292717902255899
0,240847510224242
0,250451887619811
0,249787056989488
0,252427105173727
0,283260616876026
0,263700123242032
0,268294464550309
0,27809457367728
0,279416260084454
0,286044429700973
0,289600368594876
0,29791309995569
0,305188828358632
0,307295502541711
0,309270451555178
0,321708724142065
0,33492715553216
0,335049793920742
0,336572907663313
0,340999003444895
0,353616388091405
0,355453331716047
0,352175144059002
0,362724391677337
0,371359927192566
0,368931800975416
0,393110538093053
0,378161014781916
0,395980570890836
0,396737975485361
0,413187168843785
0,403280174786903
0,424567879712008
0,42569112625814
0,425349695235576
0,442535317094473
0,439474645110435
0,456914877931749
0,457239929165444
0,473478122321217
0,46683499713845
0,471686947433254
0,478012488501691
0,480706425145685
0,489402705268606
0,498813826823703
0,509745333300457
0,511729883005191
0,531582287629756
0,531116592783653
0,56647605972934
0,544350862532457
0,532379316190802
0,554051155951248
0,541416345106995
0,568717128276125
0,558782504700725
0,561179676401864
0,568703178467445
0,567383172731853
0,577505591124033
0,57751651819582
0,576241101431686
0,571218689327006
0,586772188972699
0,583640658252023
0,591177481519274
0,590366996393909
0,578206576887902
0,615993845133243
0,581397368529471
0,584128357251253
0,580976427631534
0,588610991943225
0,585261799312949
0,583643274352362
0,577490993818314
0,584380565593082
0,560339429939682
0,572314923048803
0,561151432775234
0,560734936994939
0,568294603310851
0,551646632941442
0,542339774915239
0,539434066412281
0,527605848709913
0,514319787355313
0,515247477197026
0,550676879067079
0,500760440997128
0,497130699885766
0,491680017587869
0,478757184385106
0,474967418614374
0,469258093003032
0,46159295995438
0,460961869578457
0,443345037341852
0,443724438643746
0,440745484910134
0,431333664087312
0,42119508614916
0,416040569115367
0,409623968260222
0,402575992366193
0,398728955054819
0,393124631349603
0,384480984849338
0,380547623414869
0,377716742296364
0,373516386103695
0,366571698638369
0,36174202838936
0,353630216145453
0,351354900501787
0,34829352726098
0,345169558707443
0,33800969554431
0,334393402281813
0,331414166563745
0,32651156640318
0,326179472910626
0,317395236456383
0,315724464736846
0,313471372206378
0,308847891292025
0,303170426027582
0,301270778138482
0,295145174192241
0,299356525915791
0,29832231600261
0,298861497025616
0,299844062907356
0,283182979494466
0,288947982032202
0,279928743674542
0,281863139347585
0,277549857459197
0,286226122930548
0,279315690987115
0,268038985347615
0,265314764412299
0,263891822601762
0,263832639988352
0,26696075958101
0,253794637651346
0,259458625017185
0,253991632847728
0,264167721283848
0,287625522246333
0,238344317151472
0,268400656125719
0,245154068918286
0,249089649694976
0,247366016545098
0,253183820430348
0,240303012272822
0,24546377164368
0,242008337448179
0,238024797931668
0,243702794807376
0,2361721297034
0,233962606827313
0,231494342534401
0,235409665133026
0,235688350177084
0,230069321701762
0,222169875585466
0,235579152486472
0,226913412640889
0,235001892149383
0,243498206748543
0,227485911480388
0,221762678175938
0,219217741002455
0,221410037756011
0,218530674148015
0,22342405179777
0,222898201153063
0,218473447245534
0,214513759490996
0,211751022694387
0,217489179023843
0,213863629139803
0,218907203033311
0,208833646932255
0,219849684856478
0,207785383202586
0,209832334279528
0,219588191966329
0,203578983728629
0,212887422298733
0,209238483138121
0,208146232834122
0,20386193640167
0,215360545199494
0,204612515772038
0,206505935576322
0,205519206515555
0,202368902594173
0,206762452169774
0,203104298725075
0,197486800397733
0,205779654506691
0,207751576000175
0,207359601747954
0,205210955798484
0,209209388070383
0,198811700794671
0,197493490401664
0,202522276680208
0,197081047801107
0,193486182738265
0,201300788137337
0,192639084879256
0,203623283240866
0,190835754598377
0,2013238182865
0,194998292428764
0,192204246849185
0,195316137917423
0,196394103647683
0,194210870349965
0,205785588992561
0,197130804160979
0,196853834779033
0,192998469202174
0,199548710849438
0,191563674938549
0,193992559928379
0,189894398018493
0,19258582136009
0,194063209933715
0,194580635773953
0,192772311662036
0,192565099301326
0,188541570583202
0,196849668199778
0,191499737025483
0,197120468026871
0,195330963862862
0,195921761209035
0,199255502924061
0,198682502772077
0,198557214913085
0,187412800981148
0,193392918547194
0,194498693572544
0,192264650681781
0,194007202944367
0,192542940926735
0,198866362691252
0,196232698201208
0,192612785506431
0,195318707949333
0,194114920433942
0,194718620669978
0,188940485331802
0,204239379212904
0,191766073952133
0,209648610602128
0,191438257218351
0,192005491062109
0,191821048138794
0,192301336813669
0,191795371915597
0,190599445817005
0,193486792222516
0,1908597586703
0,197290179408444
0,19415096705038
0,189842328430059
0,19647112803903
0,192727085297837
0,193485153904588
0,191564802002844
0,192273494394517
0,192727501741373
0,190340873474389
0,193581215568601
0,198339413053668
0,190040004765024
0,195577910431544
0,1899434033071
0,196729596138881
0,189694440466925
0,195293622086835
0,189763313327016
0,19315007735502
0,19590934148519
0,192049795161431
0,191285317568603
0,189296660788902
0,19028813225944
0,195521974659589
0,191610872746333
0,19315865594297
0,192663993256291
0,200948063766487
0,184558495552269
0,203204708948375
0,189116838620419
0,193670832412897
0,189915878425279
0,192803588104833
0,192846281365085
0,190523724035266
0,193568414269506
0,192076251963693
0,192721134453556
0,194078268194643
0,192895565695767
0,190356877554416
0,191810237206699
0,195619887905692
0,194897728257649
0,195894403425745
0,193247023958458
0,190658492194713
0,187094185131165
0,194316004815933
0,193297282682118
0,195728311154027
0,18953762940512
0,193222564009497
0,192528113438216
0,196974773760808
0,191408168496117
0,190000579678509
0,19326088764302
0,191497256067612
0,188044598118629
0,191585447750977
0,190543078143388
0,196778454944812
0,19449821671339
0,193076733173765
0,191991650105808
0,190707281528945
0,190671899183911
0,193454404275641
0,188169815345571
0,189297751430303
0,192920288543861
0,191628919687084
0,188712386384486
0,193351299825479
0,192332588018343
0,1875451238056
0,196522184515942
0,194619411696286
0,189968104806684
0,192831714538998
0,190507778414882
0,191349941642636
0,19062940867447
0,191249480352914
0,191300973821819
0,190606403548836
0,19271339544192
0,191500457306016
0,194005633795358
0,190765953606248
0,191621021718328
0,189268699800998
0,189516124452665
0,186883081918126
0,191656868336948
0,188628750128987
0,18780568887267
0,188077389882369
0,188055287193591
0,186113192797263
0,188627947594041
0,188306058487433
0,185889176099873
0,185469487992236
0,185768469366124
0,189480991060715
0,18834316096684
0,185309190408099
0,188737029530705
0,187993614127668
0,190529287713549
0,183285221118941
0,185447606877564
0,184657094452549
0,188989001095944
0,187631754036319
0,188275560015984
0,187177891693927
0,188352048145717
0,188224921505043
0,186994906639672
0,18733497056179
0,187222352577445
0,185981935476848
0,187423280892672
0,184360363332873
0,183944262387517
0,186313711909202
0,185772442160693
0,184031484625126
0,184918714782977
0,186318915830023
0,184961202556298
0,188432761978477
0,188210039482707
0,18622643743394
0,185813860050207
0,184830780919764
0,185495970727372
0,185811361365002
0,187497310323888
0,18558203872795
0,186235376260231
0,184322074790704
0,184083047170003
0,1850333336351
0,185693437901687
0,184772101874855
0,183596460135851
0,185317469895418
0,18423910162966
0,18493983075084
0,183351871987674
0,183436510463181
0,181362519699571
0,182984636826266
0,182973334768278
0,182006327355648
0,185978010879323
0,184358591018273
0,184118281438382
0,183805852327249
0,182748168184165
0,183335531642369
0,181215171489369
0,180995844647165
0,182149350975046
0,18298556941026
0,183899616095619
0,183015402263496
0,181877494917261
0,181774893157846
0,183812706994791
0,183917136211045
0,181461083272275
0,181496398243288
0,181338385417913
0,181184275605776
0,182715409601406
0,181904935170567
0,182352185173617
0,18269406486786
0,18294015344543
0,181971099398602
0,182224518828652
0,183459668614928
0,180405380013862
0,18504834269111
0,183343607670243
0,183164176620068
0,182087012984963
0,184971766424393
0,182737823380738
0,182214581995906
0,183419299156604
0,186354685458417
0,1836055606772
0,183197615066815
0,180862667269723
0,182711565098369
0,182724848503783
0,183165181482224
0,181035542465072
0,182583413312212
0,184130920505633
0,182878554336103
0,180922604087956
0,182701284426659
0,183426801784375
0,181229019983865
0,182636080911151
0,181300844755589
0,181294964588674
0,184400934415018
0,181182323058762
0,182259863380008
0,182597375237699
0,180769287792146
0,184034715807673
0,18308681345431
0,180725906872799
0,178453794043452
0,180971204078718
0,180998452152383
0,181484634304501
0,180603612876773
0,181560437672529
0,180221279861082
0,18068550803861
0,180982838618392
0,179662394751852
0,179509945720776
0,180323772429884
0,180473358695842
0,180598222179936
0,180642839523845
0,181235489230827
0,180388058807626
0,181667963221759
0,178422779035543
0,181410614038364
0,178537644181238
0,179687396937677
0,180926758648055
0,180662713941228
0,175954074551727
0,178739149716378
0,178416481352633
0,178505007186119
0,178292424461319
0,176268578797824
0,176548075884153
0,178973962736029
0,180455442235522
0,176403797270384
0,175899445259602
0,177114861917716
0,179522546508253
0,178810104569348
0,177653809898805
0,176627186733659
0,176135667627928
0,178119275365612
0,177533752276816
0,176355813008878
0,176505813340329
0,17770800058432
0,176950651678249
0,176304108418017
0,176722140251662
0,176384975304534
0,175480190431972
0,174799284045599
0,174819991485991
0,176790164992761
0,175761758918072
0,175511206990121
0,176956603301928
0,173657510482418
0,177051299568643
0,175918975799348
0,17667865983117
0,177340305263217
0,175630338431093
0,177234346465332
0,176805395032101
0,176231404521667
0,177689700327728
0,178081398339676
0,179890835773815
0,179610623953745
0,181965832546748
0,183534771098478
0,182098029823798
0,184499376706421
0,18460640099209
0,186432903634014
0,188564139618859
0,188005821623511
0,189493173787015
0,189820369968379
0,192292332400424
0,191674320525406
0,192084539027618
0,193484869133132
0,195363011577191
0,194270353470092
0,194586274117582
0,195641822699828
0,196085688906073
0,197420014590431
0,196011389161128
0,19874489173795
0,195691710961736
0,196650112285419
0,19558787084662
0,194941797250983
0,195424814343167
0,195485258106197
0,194311710514217
0,194822049302297
0,195030049735056
0,194187886373723
0,194876622181861
0,197383194886966
0,193001464968445
0,195364398157718
0,194498976690534
0,193612415921811
0,195845803280225
0,195094170157013
0,193521378779574
0,193525173114542
0,196425270281651
0,194582251095224
0,195711868455519
0,19741079884806
0,196900584707746
0,199858639348735
0,199642648345912
0,202874567431667
0,202307890516356
0,202744495682956
0,204289510122635
0,205829504224259
0,203720742303379
0,20872210046241
0,206676957800752
0,209433887894264
0,206883706132027
0,209402377916846
0,206968711147082
0,208095526388718
0,208509350349096
0,206971161973209
0,20799037431908
0,204914457188536
0,205231611367875
0,20680159729278
0,206177512236785
0,20500846531236
0,205525069875291
0,207271235628154
0,207241432663906
0,205789771650833
0,209285077276452
0,208956448679069
0,211210712480165
0,216233035902396
0,212468656689088
0,21522587521393
0,216129412777909
0,216988208690762
0,216623638864258
0,218427190073419
0,219615874523052
0,219653675967095
0,221736632373665
0,221691940430618
0,225875873267022
0,22306782804634
0,224071657290977
0,226497191907437
0,225522383329647
0,229045018120233
0,231235910621404
0,233415721434684
0,232888302162505
0,237015574333212
0,236578762798471
0,238501412454236
0,24297335008045
0,24049262299208
0,243353184969733
0,24512764372593
0,242769501855689
0,245556106595882
0,246250841292522
0,245321895974874
0,244261932383785
0,244213085975798
0,244835354802238
0,243638424535918
0,240858192983215
0,238561234059195
0,240128904177926
0,236829036042619
0,236014570559524
0,235696413931203
0,235339816159229
0,23434543131161
0,235430800368668
0,23443852389294
0,234767182557968
0,237570767418817
0,234563966905625
0,237584077306241
0,234744076488044
0,235095930431268
0,237307657129011
0,235951298821873
0,237124073473607
0,239794500071771
0,243443266889507
0,242752024507866
0,244203278250306
0,242926317086753
0,243145999383496
0,241989879669263
0,245234063546713
0,243947554344164
0,246043775894787
0,245851729768027
0,246057809133923
0,24573102700405
0,245877008786139
0,24485655141018
0,24464924685972
0,244348104996823
0,246410113762816
0,245466464284459
0,245387551219476
0,245459764190195
0,244598265294065
0,246402368059971
0,243293005364557
0,241211086376425
0,241220744814575
0,244406027166014
0,241296536896944
0,240323967551438
0,238301986318144
0,241383778892923
0,241146019695438
0,241485077873003
0,238504946196146
0,240172322263522
0,235606427268614
0,235584042457695
0,235786231866679
0,230729997263675
0,229881972755972
0,224855319911304
0,224760134440047
0,223001031170549
0,222862784027577
0,220693317663814
0,220245222053047
0,218338904968748
0,220506706046004
0,214986033754635
0,219142084219394
0,218726784579407
0,217305675097469
0,2185868516017
0,222370338848996
0,216717762953221
0,221896601233785
0,219691973996128
0,222831903299521
0,221473011221511
0,221661899160663
0,222085827124507
0,221172826094801
0,22269491226903
0,218940047220824
0,221687524743743
0,222380949027204
0,220698320973896
0,222628802898521
0,220925753463926
0,223402869629987
0,222345950785575
0,218652687846889
0,217651245142785
0,219141150004471
0,22051062446406
0,220112609636522
0,219976305542841
0,216503582840092
0,220399363783584
0,221507421122365
0,21866893922381
0,220147982071792
0,220561556594427
0,221714352556549
0,222115048291762
0,221053391910167
0,22008771472595
0,218145598377503
0,225309572363832
0,221282250649256
0,222230763056747
0,223501164294949
0,219132226525818
0,224879659511118
0,226019691090121
0,224711022471794
0,225951753975569
0,232793145783698
0,227342550556945
0,226861339563164
0,229975923018244
0,229721122496827
0,231488592418514
0,233875313404382
0,236553078696104
0,237052884137582
0,237503989800606
0,237336486958972
0,236553041327431
0,238005281417465
0,243687529415364
0,244561530537161
0,243540986007799
0,244694064103813
0,241387104898309
0,246492430196908
0,245355580116624
0,247760793843908
0,251898838663715
0,249737834606214
0,248809375193018
0,250927632194326
0,257598371435672
0,254716966378721
0,256545981134474
0,258453384646181
0,255096194077533
0,262930772795358
0,262148292949856
0,261024839312337
0,264175300419466
0,264354750155057
0,268374614264933
0,273319460180838
0,273063304189021
0,274822385358281
0,271433640801507
0,278242708780295
0,27721105421797
0,2735557522604
0,287550024311378
0,285579301882542
0,284210303789645
0,284592416607262
0,283207850293058
0,282049836042536
0,293797676025796
0,293781111912571
0,292251444438092
0,294795709703595
0,298382899147809
0,298487766058144
0,304864264653208
0,302978389547805
0,310550231012413
0,30561106684929
0,312762079030648
0,317193618991315
0,314904886802273
0,311399580118971
0,318882765477446
0,329236052182575
0,321102172306
0,332072211512151
0,32741033760607
0,334760092594491
0,32915678460145
0,338403489778868
0,340142424164509
0,337315134990434
0,339857476667304
0,341940879356874
0,343862746870619
0,353459344865747
0,350881518761806
0,347060771827617
0,354059431145498
0,359880591707448
0,364473284952575
0,36849289274138
0,365644337905842
0,368864488797297
0,365403843617543
0,377220353648144
0,378408701471812
0,375749839368473
0,38342667944302
0,385396437794897
0,385100831201124
0,39163137348503
0,389421288909894
0,392458540691353
0,392767824404455
0,397723049864808
0,403638862587682
0,395981642086379
0,401666355589673
0,416276344870567
0,406325248460646
0,407503576228803
0,425618854318182
0,428861102973019
0,418063465877582
0,425658106634746
0,425553567517266
0,43183173423117
0,432007617163516
0,443905268581064
0,450103190115418
0,446756347906182
0,448907943147989
0,444911308792935
0,454027264962444
0,463924939615168
0,450794845424345
0,458148792927032
0,466431957614209
0,459182104634256
0,477737740582623
0,48121351933262
0,470222340737575
0,485480604463467
0,483792328672733
0,476170450411784
0,47734134699494
0,503943411980319
0,488658852900239
0,486282726761975
0,496014756759777
0,500491455644178
0,500496044843809
0,518886209777728
0,513174811409417
0,517401955803655
0,503757704623296
0,527242707986581
0,519537717101986
0,526499472563937
0,525247620695013
0,527353219066524
0,52968414241797
0,534815410021385
0,546958567935709
0,565401119994841
0,535721672527848
0,542937298240807
0,54965336694077
0,552249398952469
0,565357013146155
0,564047419617676
0,558503241466456
0,573208057109012
0,562011673807086
0,579818255417707
0,582818053924533
0,611235195913971
0,589306775285406
0,593164067831959
0,59716784786331
0,607551488318172
0,600474466957135
0,604396434799471
0,618156914574532
0,625896720563455
0,598844161170918
0,603750453121312
0,612368880410359
0,648611633121094
0,623677102239643
0,623368612857155
0,622517687177977
0,647573631007254
0,646255713879147
0,668573595198203
0,641257860567513
0,655330619439711
0,64314213688092
0,685865975731593
0,696980145805121
0,656218755260475
0,664635880044199
0,678958897172076
0,659748414420353
0,665551231721672
0,720593245865695
0,691542728582508
0,702063800665659
0,716061416211979
0,697810223583262
0,686851226756888
0,715708108737893
0,734118677979163
0,711448056438934
0,739986634041194
0,733501811712692
0,742497335440526
0,750694910713372
0,740629911484629
0,741279155549259
0,727454864097401
0,735861200816721
0,738543606572223
0,734033884438627
0,78827069428615
0,807969606091433
0,803829258144794
0,799072298805935
0,835891214044837
0,758352638134985
0,757568527191494
0,742830159689879
0,753517010548821
0,750542292363337
0,810463658873978
0,768891656871032
0,832894209455525
0,813097977797981
0,80689152484014
0,76921727284031
0,882046008706283
0,865664496489765
0,848818398959649
0,818273619669238
0,847810845123999
0,860217565263713
0,856089193937965
0,848059519733397
0,881257714730176
0,809835287433646
0,843667858196029
0,813234132418565
0,888661944963654
0,838092369025124
0,911225086554479
0,804719886225881
0,894642565642036
0,867587412390181
0,852327805287701
0,876618725940508
0,859136751355623
0,938257226756442
0,971880859526142
0,840203080539021
0,876154447982395
0,861834441764181
0,984513081057375
0,929397934052684
0,851037409343856
0,938178346263212
0,985861305046051
0,923917510814326
1,0444959358209
1,00071170950477
1,09528858787864
0,977858964473307
0,828927844113707
0,880480106048387
1,04882992728627
0,869574341807433
0,883946819689184
0,965731596629072
1,01457182438164
0,832837298246512
0,966503972836424
0,93382341744251
1,11286082782098
1,23551011804457
1,06682184266679
1,00323060776424
1,07714296363999
1,10872106110483
1,00752774493492
0,928493491690331
1,28548990416203
0,900152157258962
1,05574372640798
0,972516707311523
1,17355579640331
1,00312550920018
0,962837674979589
0,854564475657908
0,92473835403105
1,07514479129105
1,34155317504748
1,13128156439789
1,06158949974357
1,22407822000484
1,09666672317105
0,925666402076965
1,1720455371146
1,19076534207737
1,3204859618442
1,1377608438917
0,989466549215547
0,952375808378212
0,883995617803545
1,02699627774887
0,945799339330831
0,992653774527976
1,26404415258232
1,28081115017654
1,53563332736685
1,02552969883129
5
5
1,65708661123503
1,06842785146967
2,07555050482437
5
1,92581272652677
0,96816341628252
5
1,18745821650508
1,37362795019593
5
3,48668785428649
0,953253249035905
1,16891574714512
5
1,08044829003176
1,00360261512521
1,55297730444177
0,763664679445068
0,976406935359292
0,904320639874263
1,39211728657771
0,848710522662108
1,14645509933285
0,946880053159309
5
5
