3596
4000,36533379555
650,420452594757
1
2
2
0,0240507579718502
0,0189829289927695
0,02102457827119
0,0134219869531325
0,0327719466501617
0,017410912093249
0,0197308256763492
0,015928749121144
0,0195967331222884
0,0147858960016985
0,0243862453971919
0,0156429795390094
0,0185134905052138
0,00850328091587477
0,0173569369176541
0,0167864689933817
0,0198339461030418
0,0182967261131714
0,0219842020824716
0,0171472893456445
0,0163179541669741
0,0212529830768565
0,0214957021912256
0,0137360719604521
0,0197992505601681
0,00581971498336655
0,0203304772571821
0,0160732976156644
0,0178602384289927
0,012759808515616
0,0225715491524532
0,0174681770738772
0,018129087703074
0,00657898154021149
0,0245583603648604
0,0144204915668426
0,0207660611076224
0,0162284469707528
0,0229945156147861
0,0185119704770554
0,0218945387567493
0,00777522868599199
0,0218035533172016
0,0174633842281401
0,0250343421985857
0,0188223510158168
0,025599691695763
0,0142622497709698
0,0222067491409438
0,0113994675066919
0,0298193114451559
0,0157836755131563
0,0280511003012132
0,0137726437487434
0,016560943245142
0,0223671195317068
0,0195563154592758
0,0134166749176225
0,0199958037385232
0,015159946549945
0,0233496824752911
0,00574771748719816
0,0246450399293179
0,0152541291195714
0,0238467669689142
0,0155176427478292
0,0246149279389682
0,0230914241572452
0,0197694965640908
0,0210977300924798
0,0256179391684858
0,0198252554596904
0,0185727463890657
0,0232526500583258
0,027002606221545
0,0084897359473176
0,0184828468027988
0,00942804214815831
0,0207433723767538
0,0227893908989314
0,0259617847825338
0,0159258411317683
0,019105850183232
0,0103320926821917
0,0222060670593658
0,0152027432271068
0,0169780182823885
0,0195115871833722
0,0175782179959439
0,0213617892107233
0,0227141302216639
0,0147789188628167
0,0198905806132714
0,0244331566257968
0,0226202495012967
0,0140656361080846
0,0165519303982528
0,0200539680528851
0,0147486210310057
0,0198140683890881
0,0250708583757619
0,0136154129968397
0,0359616315989969
0,00175436632635001
0,0516243740571023
0,00715801041841454
0,0359968949076701
0,0209078187990048
0,0219769050911061
0,0311855294853686
0,0150025117603681
0,0160879273647855
0,0190048890653497
0,0252757331455487
0,0170105887094236
0,0179333402102367
0,0135001733283612
0,0250550183177594
0,0236530189629316
0,0150881611430676
0,0106725045381664
0,0205647354717467
0,0288756912093853
0,00490663935908272
0,0278029522056643
0,0140646568782135
0,0179998280939206
0,0201893031748291
0,0182122664600151
0,0123731675979835
0,0286369444871511
0,0130831464515283
0,0256908341255938
0,0133663791237076
0,0293123719351898
0,0148273268189127
0,0322999132596512
0,00893920742950783
0,0267809489914665
0,0197767099668343
0,0227309900677505
0,0235844817940365
0,0222661378068306
0,00959544907863397
0,0342315197812987
0,0206662952385582
0,0227530754124091
0,0182812377292186
0,0234162222278639
0,0120586683940573
0,0294438896772994
0,0175116361579968
0,0339470090938583
0,0272787744154592
0,0235826410064517
0,027645205808541
0,0282288181140068
-0,00560651293065235
0,0539569266000949
0,00502263946856579
0,0348915209808085
0,0103142276762782
0,0290248037299633
0,00504878166754799
0,0297677483736415
0,00909416649969431
0,0227593929128696
0,01739127856047
0,0235033243841232
0,0249069213957272
0,0338653751420151
0,0209142138399248
0,0308932182172064
0,0300209059626337
0,0146425213254543
0,0179962636964397
0,0310819149317417
0,0179031727609075
0,0197863409925545
0,0168054477775005
0,0373012766357692
0,00871666745583825
0,0344758065750252
0,021050370660215
0,0291445024322579
0,0178805884312545
0,0199661459826387
0,013483076138866
0,0376088396739783
0,0115015417756862
0,0370270552986473
0,0132768613616447
0,0277959354417344
0,00919692955275219
0,0342059010078753
-0,000647633614822656
0,0371515670472981
0,0156924362156743
0,0259092006045849
0,0230531018483428
0,0250940604679159
0,0221643312452146
0,0308911649069744
0,0190664179376965
0,0286762944055162
0,0112368945532275
0,0477518865844479
0,0099723239722581
0,0307643744971429
0,0111924879314499
0,0375981219791947
0,0175271453607214
0,0324552703776035
0,011992987765472
0,0245589575167118
0,0329457943965216
0,0248994136985466
0,0184885928333214
0,0308042488843813
0,0170547051106626
0,0336859986650593
0,019908169849126
0,0338844793363326
0,0188626354492524
0,0321157718332384
0,0207515119398074
0,0348536214152375
0,0196213127198626
0,0298814893060265
0,0259152523774848
0,0305410950574039
0,0244627524423081
0,0339243383366978
0,0191600824840457
0,0232307789389927
0,0179129001917766
0,0406394520223184
0,0259091596382637
0,0388700338676657
0,0201986506784542
0,040533370811431
0,0225958593647252
0,0301991580952163
0,0115684545075878
0,0337222420271796
0,00976919487400277
0,0591820478226771
0,0169740156199464
0,0358415213344949
0,0208746659296871
0,0408139297962006
0,0235916755589097
0,0354354656980094
0,0215970024947376
0,0275069829573166
0,0341647618948606
0,0420453773855065
0,0351225908392098
0,0319514663708407
0,0253431992930067
0,0461978748443986
0,0266697783700451
0,0238456180144485
0,0389471274704116
0,0266905288650732
0,0445847455655071
0,0306433131212635
0,0196763879588739
0,0591396159095796
0,0285334251185474
0,0370771352949272
0,0359955347591663
0,0306990415304818
0,0265444983834132
0,0377620849882192
0,0429526610573701
0,0386497676737315
0,0379472581331552
0,0446638893321621
0,0413955207340176
0,0434275297733594
0,0289044596859467
0,0569719028646731
0,00886895176562085
0,0616246979811777
0,026092733791434
0,0570266447586382
0,0345892825127615
0,0395334735187785
0,0393122786702718
0,047071660765701
0,0383519079826493
0,0426078603149878
0,0455976861626809
0,0401819812771627
0,0445291848413744
0,0418492016089055
0,0516516723417257
0,0496169211784143
0,0509022459928117
0,0471427830667801
0,0548566655511875
0,0442771715315599
0,0507631714421574
0,0488984270140554
0,0477329815717441
0,0601872260612357
0,0498465958574804
0,0613993567484886
0,0508355963307913
0,0605313801934439
0,0668044013785756
0,0577231338707978
0,0563536658416479
0,0638384949536674
0,0641468044889127
0,0626217971052009
0,0677370466756753
0,0680357748110747
0,0709643267896678
0,0767543210549139
0,0682794532734727
0,0751464783632201
0,0789013473739103
0,0867715705460521
0,0733198542267331
0,0890260273399769
0,0784856271738528
0,0837380612761895
0,0874991041059898
0,0944778263270332
0,0983180423846582
0,0966194441804303
0,0951595044417082
0,108239779589896
0,0989241891983258
0,12422483538464
0,0989266737377754
0,113786388797848
0,107385915081572
0,114505761564336
0,114686711144205
0,123683725532149
0,117617355011844
0,141081978185465
0,122697072322221
0,1488171893763
0,151947409735476
0,163310390678672
0,125316414798467
0,149502935660109
0,150428532174917
0,164845088813905
0,165686338019348
0,146730577088209
0,178112218895815
0,171608057274308
0,177439946325815
0,181405421991187
0,187820772351081
0,190495044742635
0,186163560247589
0,204618623913721
0,207126655694694
0,216807494813388
0,21407469095544
0,23017504741566
0,231771053353831
0,236996109447343
0,223611166908424
0,23810152160763
0,233169504416605
0,242848180150174
0,248683469263848
0,293287557272808
0,249518923890611
0,286652186186989
0,244502923614105
0,29665426718698
0,261034576763041
0,28158895138863
0,265240968612252
0,283227582087939
0,286816751846552
0,296033420852716
0,289348174510229
0,31299811947769
0,301957460739317
0,323906217817239
0,296798448954143
0,324074460774943
0,32329740817665
0,336881290908865
0,330583253280949
0,338365500330498
0,333606705562113
0,367566263959565
0,373258681906077
0,356634946478027
0,348254539585154
0,353123125522784
0,36057238516371
0,366573809917795
0,382540179474946
0,374008465546942
0,385263750091418
0,3902159363063
0,381707713560144
0,399925961000407
0,380802451642911
0,391057298386685
0,384746943699908
0,405765420310176
0,403977789193848
0,392653597169706
0,403545166990642
0,412468795731508
0,419033945235597
0,452182007655033
0,429109783391979
0,420356503733362
0,428711702176742
0,42941438823177
0,425036449799547
0,442235892818608
0,435797401594977
0,431388313332321
0,452043818919375
0,459481534280703
0,46000879353424
0,470293438085849
0,456231190366104
0,48661854892518
0,476563975158054
0,496031393331711
0,479290363316025
0,470997975535047
0,476506968349836
0,488461026952542
0,495283900263174
0,503921922160329
0,53076441205089
0,513807193639764
0,496199392463983
0,50028413425682
0,52074198168155
0,520120136368866
0,528950121385888
0,520071848521338
0,541565772886456
0,538247892050764
0,523620200994719
0,530130864881463
0,530281114892325
0,55910591727339
0,548842507833196
0,558993375989353
0,563437211280436
0,557101174672157
0,561344771976516
0,560435312397771
0,582910386629911
0,598824647855654
0,592480766079425
0,612300928555746
0,608803008802582
0,584489470925977
0,586327769912538
0,609975507916798
0,597795097780639
0,594465572983176
0,627400410497265
0,640495097595376
0,619107793674121
0,619791547212031
0,628033714698377
0,612196607761007
0,634157458947263
0,662422036636347
0,653685356947906
0,641802915385525
0,65758774256825
0,668893797573309
0,66595626845261
0,688534702973066
0,666340943265113
0,630769050782301
0,659301738120014
0,70643564603543
0,674676726055399
0,704003643264108
0,754007453569253
0,685040725777313
0,691235247499361
0,739630004324356
0,733197743724469
0,712491250718065
0,736763673489258
0,757085960200842
0,732161530369047
0,716091833687045
0,728445368536339
0,771441670031898
0,760268194644552
0,704616311179066
0,75115279407575
0,754142048594253
0,755619521182444
0,7621515773417
0,767355210662489
0,75202443911053
0,768944370907948
0,770845890477822
0,752580297189106
0,764744719903754
0,80018415273337
0,78467992820345
0,782251940798858
0,819955283590328
0,814062591183668
0,778857541016129
0,84541200128273
0,871537603868867
0,857157372810582
0,828247066880657
0,834295789996114
0,790192610451715
0,83209229250351
0,847459437990432
0,85799091258452
0,853068173606268
0,868385073022402
0,78497580630691
0,87765795796915
0,926844959942102
0,903690168097496
0,891582103386856
0,951031615497543
0,86289712062296
0,943244326317996
0,952369462661083
0,926457607799808
0,90995099661015
0,926358876435588
0,898972712217986
0,963694234686784
0,969475419381329
1,00432144726194
0,92415502908047
0,932789087338122
0,926628190085754
0,972671886567234
0,978184944275415
0,979743016938936
0,931866011310112
0,966160224774846
0,948495112987886
0,982200917984296
1,01062646114853
1,04225423542312
1,0046046609224
1,02348651859956
0,974625984616788
1,0671674596235
0,990943002085732
1,00346244423067
0,995234123139622
0,989264247980493
0,971107239035013
1,03105733791169
1,03795124909755
1,06304717871025
1,02166133240908
1,0466614902963
1,01535931086195
1,09916458539119
1,05019742227594
1,1482765746592
1,01444629243014
1,13256817656158
1,14067869037741
1,15331597118526
1,09128534545068
1,05227365507265
1,0819677001512
1,16741087830413
1,0534725393445
1,08707523796714
1,09682570311701
1,23348852639772
1,0998529734874
1,31690975568824
1,10191625484081
1,07280711318177
1,12969193533122
1,19210646407904
1,19326304536071
1,26322520356978
1,07492178530316
1,20210013743803
1,10997040075551
1,17868958672374
1,1033145954288
1,1528218011115
1,10966704110935
1,1644203565618
1,06896681849597
1,27489052023715
1,24238806585623
1,19302731442862
1,16419856882439
1,33126539852509
1,20023610443477
1,25630755568769
1,19607026493199
1,33808609701579
1,22377236969032
1,43843668201893
1,29466017616918
1,34125126049971
1,26268470726596
1,38503194412037
1,27281567212497
1,29228804113783
1,14777386380886
1,3835907032684
1,26743800910499
1,29665254811978
1,15284025741302
1,33559748172757
1,26810434260009
1,36816850123453
1,30848459128665
1,34935524407273
1,33657054003866
1,41543950032412
1,31925804002406
1,45399336310918
1,21946917399903
1,38207411977331
1,19308500762312
1,3370012094635
1,25596932913469
1,35178649982039
1,32985953837503
1,49704856291336
1,38989990790395
1,41434393252026
1,33225065558113
1,43379561941309
1,26411590967963
1,31980350974034
1,48373896513366
1,49598231550459
1,32907783628056
1,4893301543765
1,48542054789459
1,38676516517724
1,41406854223914
1,63008126703428
1,30588822540384
1,41304575182333
1,2729954639584
1,33584267123629
1,38189240095619
1,65894658218856
1,39541832621728
1,39900214032046
1,32793719396132
1,66533614583642
1,43109917570363
1,44782887937219
1,3720820511381
1,46185744527182
1,29926113786867
1,36996473816948
1,31507008476492
1,51799333786249
1,25925987090897
1,51385002985285
1,42268693856586
1,39853896511184
1,38773181274939
1,63746929865644
1,45579116091541
1,40511365683365
1,37924820351217
1,64045643487333
1,38210143470463
1,38658292339793
1,50183977635664
1,49045954395938
1,43788961808644
1,52954876845549
1,4063736792632
1,66585255117899
1,4164135482831
1,7127942479316
1,46576138247527
1,57666940923697
1,45115844035775
1,47947302145036
1,34146937456676
1,56667828018224
1,33508088365357
1,62775932827361
1,38397807216727
1,59086660511414
1,31083133533438
1,4697472134877
1,49145177848338
1,58725474274992
1,39042552356338
1,51702434438096
1,43330257880317
1,79906788798193
1,4500351821767
1,5630953067918
1,39027694986238
1,50522028938076
1,32487995378143
1,51580554634532
1,34239142789785
1,45300834502629
1,53259530411139
1,60786435966421
1,36381721736409
1,47676605231426
1,31243297462984
1,53265515986583
1,44872856916954
1,52136176821643
1,42658494562991
1,55343766228174
1,48171078604617
1,4700903001533
1,42236650143439
1,72722669895415
1,38809530540678
1,46521975081813
1,41237952291601
1,45143494056146
1,49832010707975
1,62032642909554
1,35796469859977
1,53262317655806
1,56980651685415
1,53767490121475
1,45500172783171
1,4338338929364
1,44936707624868
1,54068575688162
1,29829335189253
1,52439456406528
1,33434969735022
1,41302550041948
1,33459431810066
1,52680852015806
1,45096356297633
1,55518927204266
1,40660006986897
1,48210570908282
1,37826814508999
1,53392451597
1,45432738220149
1,51651011861199
1,3937319860515
1,54010050767548
1,39186142555034
1,48134875905172
1,31899300544056
1,54394363334766
1,38673640041184
1,72687894889728
1,31650864959939
1,54375928874588
1,42748900099051
1,39015512664241
1,39496995712654
1,56509832261057
1,41704138975455
1,56423069173588
1,45467187309019
1,41176127483168
1,40254027985904
1,61248644262809
1,39962026905984
1,37496995618477
1,36378717720686
1,6076251954778
1,31523307322104
1,61567125553347
1,40390484122501
1,39079689557239
1,38086307384022
1,49311440032596
1,37398978557523
1,50891316120397
1,37698074128097
1,53066526896812
1,47482471452771
1,4432550859383
1,33554723898909
1,468598975468
1,39189839869887
1,52249307970857
1,35910237111178
1,54082608795821
1,31875478277395
1,55197418397447
1,36119200844174
1,41484049755236
1,32198702629449
1,46620007244367
1,39426681769629
1,44937293581663
1,31430506627876
1,43642514413972
1,47777284291814
1,40377731764549
1,29480684800274
1,51298049807403
1,43329334504026
1,4813309865183
1,31014450326837
1,51796825008663
1,38396619942485
1,41442602905367
1,36633077517161
1,48914721763919
1,31576434485003
1,52464453086803
1,34240296649247
1,44077425499352
1,31334374377425
1,44493244790539
1,22106533640702
1,44978551253656
1,36044357546425
1,39017498440414
1,33300520771017
1,44793536784071
1,31411880641329
1,37244880979627
1,29633932697791
1,31827099771378
1,2955156074298
1,34499889463372
1,28678651225601
1,28311087414082
1,29574224211556
1,45230159704298
1,28798534621086
1,40798288946767
1,29526656635488
1,34608294947282
1,22445634148013
1,40155425260666
1,25941870130409
1,35470954949372
1,21056202843736
1,3052596286697
1,23847078165752
1,3208490683848
1,2182108132728
1,35760485425446
1,18054099056721
1,32096003741132
1,23398396870296
1,35485619153171
1,21922487737093
1,24217319113749
1,1858603648795
1,23457711781124
1,13216847928692
1,20809527929408
1,14081858424995
1,20789660750144
1,17071108013405
1,18397934320855
1,11762576752692
1,21657079433441
1,15154665972286
1,14274494953236
1,12254204995677
1,1939071979089
1,15042139790231
1,22350951564825
1,12141013485562
1,161561277724
1,09212510495856
1,14728348188707
1,08815963524589
1,09795899470132
1,08196025834608
1,15516070785485
1,04596656342305
1,11491521548455
1,10628298764742
1,14458627089555
1,05745848208502
1,07770234899244
1,01668630361577
1,04762902645873
1,02170350108763
1,03948190891722
1,03817012582595
1,03619960467677
0,945644462266401
1,07907756335439
1,02142196695324
1,02212958995933
1,00257401009233
1,02809474980774
0,97434533176838
0,992968004751959
0,972573637598716
1,00418018233496
0,961836049038139
0,929200615134835
0,909413709348908
0,945027740284687
0,893273689096347
0,956223134586586
0,950974815830915
0,94900779466407
0,916465848856812
0,931120215293124
0,916022610071036
0,937385481587666
0,87158229195578
0,911991744212086
0,872429305498945
0,906706343876569
0,857918606446776
0,868223882603662
0,852736748597254
0,905144254550372
0,834019634139792
0,835152799322349
0,811222871967382
0,838255163920298
0,80778935393982
0,830724548080372
0,802784887841425
0,839061503111338
0,808278737423633
0,825403942707179
0,770514685467635
0,83031542057986
0,787058062410081
0,786551606621288
0,763763669983351
0,783101667700769
0,756049828519847
0,785852074994558
0,767495570262043
0,781601423562832
0,729854462834011
0,765375731236099
0,72488375712566
0,744542719232868
0,716323395829773
0,73420449141172
0,70843007060703
0,706931856490944
0,691122446976151
0,717807867398012
0,698696909473019
0,711422455901662
0,684413668785312
0,693132664451135
0,681131330200075
0,682674926747107
0,655949217618388
0,666553706625992
0,63517678408959
0,662057479790086
0,643593705205482
0,669722784903963
0,652572562389042
0,636438977176866
0,638725111816264
0,631475193009375
0,613702490736571
0,620983396949409
0,609519701181192
0,612195619280808
0,597028860917856
0,616489783316654
0,597493367229233
0,604772086955215
0,585976972728082
0,581564868981115
0,583457258040453
0,586321339337275
0,574026545388287
0,581313037451323
0,557231341846047
0,575988124238272
0,552953996923961
0,566683124992829
0,54931103074542
0,564506708648011
0,537593189869602
0,55135838028968
0,548895605150124
0,548579747141289
0,51647008542381
0,527833519312463
0,515135214813989
0,525165364627871
0,503748750167007
0,505406437845584
0,489777275578816
0,501889314989599
0,493716699948963
0,498570194094717
0,486298901027298
0,494963507507205
0,472234710466486
0,486561416224413
0,472637721529954
0,474667193524526
0,470543157757693
0,463106936617569
0,466339808042378
0,466256721398094
0,458760891846125
0,460163878127479
0,447911646644671
0,447601156871969
0,44463520838236
0,441794915363935
0,431151655104347
0,447283182375496
0,435700211737979
0,436409166588477
0,429609825867801
0,435518506868027
0,415492923846082
0,416732664442256
0,419626674346953
0,421488225973961
0,401931882974064
0,412086715903352
0,401995533748484
0,409367232938329
0,389790004960879
0,393813633215761
0,38806484901937
0,387315410286406
0,381445045742484
0,389781731112538
0,388560236189793
0,383037033036202
0,376048674937729
0,38553634463242
0,363447136523302
0,366523203288017
0,359168412842077
0,361098043947704
0,367653988332314
0,36085316345102
0,347439605944676
0,360454322031164
0,347840452841711
0,356451443595828
0,340985924817089
0,347370260092616
0,328912476966592
0,337126138114841
0,328148821294773
0,335435166113296
0,328017911915945
0,334373464319414
0,318179165710601
0,323863409727383
0,323465398940706
0,318537850051033
0,315775832092794
0,321217441855021
0,311082179604328
0,316059209273254
0,299475350195116
0,311961034306777
0,306334435000055
0,305158438437535
0,295840202910599
0,302833098417105
0,290718057393279
0,294966531438246
0,289487728255466
0,29489214537198
0,292047810233127
0,290996429260948
0,275230315816848
0,28570987903453
0,271501799462739
0,281674269525567
0,27852806654943
0,28228660093287
0,2639355278343
0,274663909442097
0,25830066945235
0,27171611160634
0,268599052279003
0,268748886256744
0,259893633412851
0,266057175790284
0,249905662700122
0,253715916163188
0,252396507200607
0,258162168343757
0,245827584431576
0,258120458787914
0,250429192337188
0,259294203752883
0,242135176475589
0,246402349889482
0,241155264817454
0,240750178563228
0,237574145632232
0,243378825439993
0,232275322262727
0,235347936606906
0,230883250303931
0,240665365967585
0,235435367490273
0,230898743378287
0,228099955371995
0,227094508432587
0,215339964590672
0,230151601814031
0,224047585083697
0,226587058881735
0,220168054086712
0,222592336692785
0,219184825859508
0,224095321473058
0,215524701487489
0,219032360545033
0,213499679492345
0,212322646131039
0,205779057460808
0,220822248025805
0,208345052571275
0,216522375467863
0,208637521449353
0,206748173043696
0,201197730588967
0,207179086145213
0,198435078004879
0,201509328419507
0,19675903463699
0,193235472135118
0,19141520448662
0,200688044633378
0,190891265051036
0,191944642080247
0,188501415169627
0,187124394023973
0,185536740703208
0,190759893883298
0,182645514980572
0,193984971904482
0,185790233114001
0,185564822488276
0,174955099685658
0,183943887821978
0,180909085372068
0,179913725119383
0,176678566919944
0,179418500035122
0,1759754852602
0,175191246056426
0,170929560130654
0,172298140881835
0,17022141813301
0,173175413258417
0,16514139112529
0,167843467754051
0,167399290184588
0,170871181114396
0,159813414638992
0,165392172099541
0,162151408551639
0,167013281848641
0,159372143398088
0,160207716709312
0,156149552514494
0,156847684774644
0,159294410094424
0,157624710860576
0,152360062392279
0,158506731300441
0,148429667359174
0,158492888502469
0,153594242522637
0,148725386799457
0,148698152289126
0,153134974109173
0,146510389003531
0,148569808924002
0,148574164906352
0,148393852187444
0,145521482625326
0,14792298919248
0,140714950284865
0,140701708095476
0,137673377846804
0,146766046901011
0,138888756756312
0,141867638990191
0,135080033463633
0,142294761505806
0,135051107200545
0,139604769642013
0,133901204468357
0,136953026747276
0,132793434987135
0,136016061747594
0,125237254418212
0,135739907900902
0,13273394672505
0,132314550510696
0,126801537411558
0,128733241086822
0,125160988994989
0,125950194851925
0,123935406320325
0,129173661328472
0,118537636847912
0,125161286542434
0,124840810773434
0,123303044089152
0,121375074911661
0,117568573351305
0,117197581195407
0,121228934694294
0,116675237093012
0,120828163721566
0,115395564729356
0,12020232340412
0,11515208891937
0,116168685112308
0,115146095032071
0,113150182089035
0,116741542728431
0,11778669276913
0,109420733845348
0,111465745478694
0,110380753467533
0,111568064408301
0,109256922874269
0,111544427609823
0,108254424756388
0,112644590280839
0,102491052569525
0,108644097908327
0,105024106714984
0,108070023933026
0,104055268933634
0,107338057996121
0,107198674633615
0,105641021006848
0,0998528614382674
0,103252560794606
0,101505270570061
0,104175964957877
0,099934907937351
0,102527911628752
0,0957188966155327
0,096548235579223
0,102899127874719
0,105406318135829
0,0978691996733882
0,100665181286736
0,0995145291358291
0,0983190745961192
0,0951416523853431
0,0957113183801121
0,0910773063553831
0,0945386769275623
0,0958179384711264
0,097695917249661
0,0931684005247189
0,0946135177354056
0,0917126207072615
0,0950897937948709
0,0892825107776
0,0948257986959914
0,0925452775302687
0,0934251104312876
0,0908574875761381
0,0937547788907423
0,090241839693229
0,0913202765100019
0,0856118576626527
0,0887808446878214
0,0875640991845561
0,0924467091073033
0,0890615584203146
0,087139071881697
0,0843772972586424
0,087667572675456
0,085055707565197
0,088112284477914
0,0846732908241821
0,0853802900200926
0,0796523145778433
0,0860320336000857
0,084564951625045
0,0835096779742867
0,0816287988957256
0,0831179610284948
0,0800126612491692
0,0825773151711996
0,0794015008201486
0,0856599047342815
0,0773117557362966
0,0819710426805624
0,081726177951897
0,0831870730845935
0,0813064013652485
0,0827091710414938
0,0765844169703841
0,0816782829293296
0,0790350690957458
0,080903149554066
0,0797429806163462
0,0838703535096564
0,0803955670597036
0,0782268790191441
0,0788546296010696
0,0774877875464086
0,0746516107915444
0,0779578891062156
0,0767284022133532
0,0796169733597959
0,0729324935336505
0,0771484765407323
0,0736999840145697
0,0753791730336076
0,0719316185042752
0,0742168624839242
0,0731984421265624
0,0757876981900479
0,0747039877630933
0,077345830940003
0,0721235451767139
0,0752503178607015
0,0713487205140332
0,0714761717284589
0,0719111843358131
0,0741064446461599
0,0717278723352697
0,0743018855083646
0,0717008597805304
0,0723289688374499
0,0714090945200867
0,0718404655240082
0,0702068653981548
0,0706540714678344
0,0700533405583431
0,0747616343308437
0,0701693300515507
0,0720784929237443
0,0689614629609098
0,0719202398844802
0,070859400718964
0,0694104698368234
0,0664910167188689
0,0715884442509349
0,0679905294333112
0,0664251343814248
0,0682794276206465
0,0739862018822428
0,0662411188334408
0,0668198372474743
0,0689305346394619
0,0696937795723551
0,0655861156254967
0,0718922767695292
0,0654014441215384
0,0670852953228055
0,0675881553400969
0,0697393165739781
0,0681009246022079
0,0664971249094484
0,0668592418326989
0,0707136952446356
0,0660501749692965
0,0687365854427662
0,0658979594831887
0,0687121642512732
0,0651931416478515
0,0662698060197798
0,0646886111754341
0,0665315135907312
0,0635651799074295
0,0676111309038064
0,0672472669325288
0,0659591726597292
0,0633890528645427
0,0654770692185981
0,0618304605176532
0,0662850029067138
0,0635433824298281
0,0629825339673843
0,0597956467378212
0,0652027002758686
0,0647082266737773
0,0628974208688697
0,061173069104791
0,0634851492404899
0,0643175979329283
0,0644723266291645
0,0648667680955016
0,0648172340400976
0,0618453606207984
0,0602182014867473
0,0618542292523536
0,0630741672784322
0,063208595436812
0,064902461726737
0,0615026050998959
0,061418949505179
0,062375165014271
0,0642273763003789
0,0593069266858987
0,0633080771742562
0,0636159109268124
0,0633894236492123
0,0574589511505788
0,0614560001537251
0,0605614482534956
0,0623515298412594
0,0589404524724804
0,0620251443765028
0,0613778725395701
0,0601053119586024
0,0581401419972373
0,0620970613762453
0,0615866649229499
0,0614951695698419
0,059286303426285
0,0634749995739572
0,0624842370206646
0,062784853944637
0,0611924803803256
0,0595343814799708
0,0594108796734114
0,0636036550782098
0,0570212823768614
0,0596825177126013
0,0577464052852608
0,062359818369525
0,0601894215694401
0,0609291882245276
0,0569140883713426
0,0603892315135544
0,0594304545176485
0,0586847962091815
0,0587490895040641
0,0586707224965532
0,0527859249792162
0,0573604389812833
0,0572963322920335
0,0580379798957626
0,0578100566069446
0,0602442994072123
0,058571574993002
0,0585815896758437
0,0578368577084152
0,0561593524392015
0,0545300559738478
0,0605705169569493
0,0589683996988873
0,0591632337198435
0,0565650729720848
0,0582884019492814
0,0589627040121731
0,0559215991222138
0,0568670343566005
0,0592440424257491
0,0566245552434131
0,0575542266093773
0,0534712553125929
0,058594687446701
0,057321230728936
0,0561432924765127
0,0582119264798899
0,061059759356406
0,0569075240474423
0,0591846667054985
0,0572734377693466
0,0615344785615642
0,0566724687483018
0,0561401305414926
0,0571805566723916
0,0603622229415584
0,0588758009198323
0,0606922698836974
0,0588884445583385
0,058877661443554
0,0558970172783865
0,0567331713400535
0,0569813536562493
0,0603502483812108
0,0572981734172674
0,0574437143689578
0,0574219541941363
0,059091565113564
0,0582766447272962
0,059835715213601
0,0564887935099974
0,0585739846544884
0,0559808288804107
0,0579673429778378
0,0564534453812166
0,0597058455630772
0,0587347204712357
0,0568519783688146
0,0580269510217392
0,0562553374185074
0,0577064776946464
0,0594402244507824
0,0557350865851872
0,0617253706318392
0,0563111897089562
0,0566498649221794
0,0534865346834204
0,0592510861428982
0,0586393938924162
0,0578778142786837
0,0569920628748987
0,0607926516363356
0,058697647835685
0,0594120317063746
0,0569298817652112
0,057875517542948
0,054418173872386
0,0576878648676127
0,0581066642896049
0,0599503622966116
0,0589462546943397
0,0575367243541522
0,0576818100976469
0,0584648385444226
0,056564540402743
0,0580072618600562
0,0594250651468897
0,055510833023228
0,0580157579446475
0,0610690073065625
0,0575385668573397
0,0604140123387218
0,0589819757304751
0,0601462581647769
0,0586165038818878
0,0589433583167175
0,0599095684582358
0,0585026465264423
0,059828641338188
0,0604938381793243
0,0572287119462347
0,0561479206757537
0,0594201881257738
0,0586311117015494
0,0604823957050238
0,0629089877153328
0,0588244890550094
0,057444179953973
0,0576960616169184
0,0619708943267382
0,0594761839442323
0,0598401296026821
0,0614969419692133
0,065159675966952
0,0591957417473101
0,0586393505968747
0,0595868548490046
0,059944876167081
0,0598421841361267
0,0586595765791959
0,0588817893173046
0,0595924847429192
0,057537247523968
0,059095618188583
0,0617007508120446
0,0615623094617119
0,058605329382885
0,0602925638632778
0,0583298196379434
0,0586137426224004
0,0601889048360894
0,0597201463997773
0,063921246285583
0,0642628429933134
0,0593230824372042
0,0604911868371777
0,0624080544531968
0,0631074887516924
0,0576871132753531
0,0615809759785497
0,0637833797321798
0,063834300153617
0,0622475815788258
0,0588111639082893
0,0603797961412182
0,0632087097856948
0,0604268632988929
0,063670764950743
0,0614273267660185
0,0613517817344779
0,0594941886093353
0,0616452698837433
0,0605014111961026
0,0620529797481682
0,0637730706326593
0,060726758950618
0,0639935075534145
0,0629070743369811
0,0605577967733688
0,063729760302421
0,0612905636661048
0,0599294423015328
0,0626803134461204
0,0657965574333132
0,0655898906338626
0,064810081432511
0,0602168558319058
0,0642602530271012
0,0621487078369325
0,0617402253566551
0,0646192547245273
0,0629821632713127
0,0636089613083133
0,0635313340656017
0,0608396815484849
0,0643012592655939
0,0630423180838416
0,0636873772365433
0,0656372533223614
0,064097850960952
0,0625356046184705
0,0650985617641033
0,0651070802097325
0,0651664583518006
0,0644678616699679
0,0645485822493209
0,0641066801578471
0,0651098828658228
0,0649401645935786
0,0670045992803976
0,0669338333924877
0,0643784558695312
0,0633038380050089
0,0631100696630378
0,0653609114609052
0,064369359646412
0,0638216880036644
0,065082558743201
0,0659460731933769
0,0674538931065051
0,0661073181882764
0,0653048792887339
0,0642547394843765
0,067160558388601
0,0687088618703577
0,0662074918955269
0,0676376775818423
0,0656619245328173
0,067328620330487
0,0661993764992594
0,0671499822395502
0,0690490385417009
0,0667741974649248
0,0655775292113044
0,0673398360494046
0,0683459478562631
0,0668934464801465
0,0679217271043787
0,0669464408576669
0,0675246243454475
0,0684472447076083
0,0672173037785258
0,065786223831293
0,0684440771827002
0,0718384288417368
0,0697551222225077
0,068161560612141
0,0677493749131272
0,0677417029028011
0,0672910671724021
0,0688266580579964
0,0703680585008507
0,0702759113791009
0,0689767845264082
0,0676416024086909
0,0684697723789146
0,0673059250513692
0,0698668194497754
0,0716414701440795
0,0697364397086626
0,0672800945392928
0,0675433372578388
0,0722611764505947
0,0702310584812391
0,0681797054688206
0,0701746933334148
0,0727533810418485
0,0711395544494768
0,0712126418187915
0,071651460916826
0,071481532287902
0,071991181597058
0,0716269807174203
0,0707050121562141
0,0728014274976899
0,0711346915321676
0,0710914776154859
0,0736582615007245
0,0743896796775351
0,0707608243882916
0,0732452317587378
0,0721143111372977
0,0732842497227522
0,0748315154485034
0,0750540689116284
0,073400585722346
0,0733362560035477
0,0725007866191308
0,0750866691324322
0,0713816059040927
0,0768910084619322
0,0735345319907733
0,0758048089907814
0,0775996644916976
0,07681623512545
0,0725734909270811
0,0743960391666582
0,0731805473775937
0,0801583852553834
0,077987107816638
0,0803280165692246
0,0738693711176049
0,0789834486939926
0,0793786685776262
0,0827193764332303
0,0796182953424687
0,0835828467698523
0,0810401145972648
0,0863521692689077
0,0827027534377615
0,0806501659191737
0,0797170356588098
0,0856677284859262
0,0769249583927985
0,0853735852693271
0,0817372146330015
0,0891533119999662
0,0805336969635712
0,0852774010396613
0,0838284441993962
0,080242190576405
0,0714446500728528
0,0877395078628962
0,0806910026579705
0,0819504667672825
0,0764350438772466
0,0856682118951605
0,0781846693591605
0,0868379270720409
0,0721997976396
0,0902062606109916
0,0786388173915267
0,088044435319668
0,0773392241622887
0,0948923923732141
0,072682682788635
0,0919873219635374
0,0678169273726207
0,0936213147006596
0,0717454360202397
0,0978163103635017
0,0767599753863511
0,0990137958359863
0,070731673263957
0,0952709505766875
0,0679864090690255
0,100773113334128
0,0704520429681614
0,100604641811788
0,072310657020836
0,100532978984369
0,0687670400213475
0,102606681820189
0,0767760310329787
0,094455735991673
0,0760408252142509
0,0956285027972453
0,0865602647453749
0,08381870275665
0,0939396438144499
0,0782044080634002
0,0937791381097947
0,0741221463895557
0,105508785931399
0,0747404003035617
0,102602073643422
0,0744398619300664
0,0974312427198685
0,0824427377283911
0,0976429604374751
0,0859005588069536
0,0898512056204481
0,0892353269587611
0,0910831219997111
0,0877627550652983
0,0873897188172017
0,0897352716870341
0,0909192170895806
0,0852589336421783
0,0909318655095887
0,0863842995027056
0,0918698682588092
0,0885469123448423
0,0918963243083524
0,0875020195955703
0,0928223112336479
0,0865127076161135
0,0912742690249556
0,0874121914000839
0,092133619623981
0,0882330919759889
0,0937368233600956
0,0892800488774029
0,0917646778202572
0,0899978317525201
0,0942364333361814
0,0911905187180987
0,0900823561818956
0,09108228560329
0,0933457147006392
0,0918496760942711
0,0936618125926541
0,0919520395122554
0,0954211821097944
0,092984348811017
0,0966521113850465
0,0929779423766279
0,0967272771582939
0,0920944576554938
0,0974512557006619
0,0919716868845033
0,0999074425860842
0,0948932459223015
0,0963243972507561
0,0994292719655714
0,0976333540307314
0,0932078134113681
0,0974608031358354
0,0949830627837913
0,0995159258797968
0,0986091242512456
0,0976636719860488
0,098176292331652
0,0981825061617148
0,0999508902142215
0,0991338783247383
0,095816363272502
0,0996255681407107
0,098580401842918
0,100089318706767
0,0972792285628303
0,102272057258492
0,0980709311339996
0,100123662959488
0,101538270747355
0,103027397727765
0,101595897833579
0,103550732306673
0,0996240779177234
0,105560564761159
0,101952028385558
0,10295279544255
0,103475905006679
0,102028695972953
0,102220917139859
0,10347689330186
0,104098426223849
0,105666324319635
0,103369135168984
0,104619055861059
0,103430944842533
0,105234117679605
0,103783895486897
0,107233236874091
0,102274179131624
0,10570143506281
0,105187319092661
0,106765600501589
0,107613569166805
0,107700921174689
0,107871889641569
0,110160871404715
0,108261968299781
0,107669449205174
0,110312330234748
0,112087222868283
0,107416168671852
0,109093561845093
0,110208182244576
0,107893735764423
0,109740972690003
0,109276500991624
0,108476834441172
0,112028831083545
0,112300833072939
0,110510630482166
0,112986206289968
0,112893450089708
0,112166516909636
0,111044998187166
0,109161732556652
0,111487308993107
0,113577768173462
0,114642302308381
0,113020123562391
0,115058960842323
0,113005513927117
0,112770222168279
0,114075341511579
0,114420015216477
0,114054040074316
0,114836531327479
0,117727163723489
0,116547074341942
0,117698824413908
0,115900770406659
0,116742827289977
0,116179944968943
0,116519109505504
0,117778252802595
0,11591590109343
0,117135378364172
0,117922140785457
0,118248822245697
0,116086934240149
0,118279464477582
0,120394985823635
0,119346164174261
0,119431767852199
0,11850864851057
0,119674903758491
0,121667204719895
0,120299735842542
0,119768838992483
0,119998596144656
0,120087936154605
0,121872264683996
0,121701609667421
0,120928679270619
0,121414909881417
0,121956127503674
0,122481600440252
0,120023042743811
0,120356138499037
0,122382430826773
0,122080829246546
0,122613760387558
0,1238917809214
0,122688617783338
0,126139619147097
0,123360022635626
0,12434923646665
0,127769108144212
0,126105117863255
0,124095909773335
0,12298468215178
0,124910288416276
0,125205465567967
0,125832501707662
0,123677166439544
0,125365405388533
0,125743721494218
0,124137425494835
0,125687712949678
0,126812928104955
0,126041983936285
0,125350415397343
0,125979285198694
0,125623104758351
0,128696989235225
0,127215359898118
0,129052551537319
0,126687762583221
0,127111300478481
0,127770280611217
0,126895602955791
0,125627259063729
0,127500141121753
0,127292823171953
0,124654053319829
0,127181052591446
0,128151025579232
0,127587920085228
0,126670533949096
0,126354019544616
0,128299383792089
0,126060775599781
0,128360325758657
0,128798231600108
0,128607084131657
0,127631551024566
0,128283816299469
0,126767776139175
0,129163845789872
0,126909446358295
0,128329835429538
0,127733810467492
0,129936757357726
0,126412343496904
0,128642706380172
0,127803428602659
0,129439398489287
0,128904376697698
0,126979748417723
0,128663074234936
0,127508769059509
0,12571028338751
0,128260426446974
0,128655295570056
0,126140835071617
0,127617053898044
0,126650703349313
0,125154785436142
0,12983389448651
0,12712167296342
0,12792558901901
0,126113451910872
0,125778660194289
0,129503031826748
0,128148232756865
0,128399224440514
0,124805882295162
0,127159871133915
0,126796565882751
0,124287502078626
0,12859761895761
0,128658683455609
0,127222901140302
0,124924580698534
0,127034601878836
0,125454743438482
0,124619147105297
0,125615730174947
0,129519345178298
0,12706495315657
0,125209511745592
0,125255211603564
0,124621899185365
0,123785102786935
0,124401221035621
0,126256686839338
0,123267686435195
0,124202481927523
0,124494168362958
0,126313752959229
0,122509707324726
0,123324441275127
0,124778976387549
0,122829240697567
0,123741869118638
0,12446397213635
0,123887808044808
0,12229083839998
0,121338286996815
0,123448933236049
0,121257300783601
0,122370623577876
0,120161874237339
0,121679713488637
0,119769597312421
0,12288554509142
0,119739208927118
0,120226501241922
0,120108581154585
0,120243878595172
0,120040732235556
0,123974944385922
0,120596114275376
0,119311632191285
0,121388086570086
0,114720371114381
0,117450801377603
0,117858188051718
0,117896498237838
0,117555503032181
0,11827950964076
0,117261478971773
0,116655719148838
0,116785608485791
0,119823788964016
0,116840988592804
0,118300371681651
0,118219372599777
0,118043236629404
0,114686787741516
0,11392142046076
0,113796135015611
0,11465107486175
0,116417938736216
0,114064314548207
0,113183940515039
0,114158531888774
0,114288208534363
0,111612522802067
0,110820915799772
0,112507767762159
0,110789821623319
0,11209296201429
0,109995661036385
0,110994734948682
0,110349617265262
0,11023548950708
0,11464273915941
0,110832502423807
0,110089244033291
0,108798180636464
0,109573672170355
0,107537646033412
0,108298705983644
0,109450593128207
0,107690086771998
0,108689608578223
0,106741209538714
0,105212299327901
0,106752047100119
0,10375275490388
0,106940713085241
0,105228421955734
0,107661683383606
0,103352572600164
0,105659927879562
0,105588884696286
0,103866144152864
0,10378874237129
0,104210087453869
0,103246605009534
0,106773437675177
0,100542028021122
0,104921015369195
0,0991353801470669
0,102506263294817
0,101308346042899
0,101973527024269
0,100600714003262
0,101326062441022
0,100712984493334
0,101321832938426
0,0993672929551918
0,100605018684826
0,100754631778881
0,0997302245666398
0,100136916080199
0,101725714193682
0,09904602252365
0,0993629770483421
0,0982356869021549
0,0987664337997882
0,0981741366202959
0,0972164145052011
0,0997839697830495
0,0954802217564329
0,0948961615756076
0,0969721091540718
0,0973973116910889
0,0944152667271035
0,0995661612232723
0,0942628653978093
0,0960386283543634
0,0929101457885087
0,0910398229627067
0,0946568816894885
0,0947158442674413
0,0947886504856557
0,0926675139624408
0,094686344475441
0,0935991981828812
0,0927950377065982
0,0927082014608104
0,0925209038701343
0,0910008529253549
0,0911564746609846
0,0927451999451092
0,0909230239970205
0,0919772399480421
0,0891636007667829
0,08880543778123
0,0889910491456837
0,0913954919956877
0,0888831274349689
0,092344344922137
0,087676554486292
0,0899858316668972
0,0965031560665391
0,088526553095333
0,0928795599867047
0,0874755978909482
0,0890247862483275
0,086124709682767
0,0888950958709721
0,0863548502305887
0,0882219597721562
0,0850111540457734
0,0887243815128905
0,0881867478627426
0,0866425103183956
0,0854272162551354
0,088413820272915
0,0861609497169876
0,0902096372839696
0,0851392378405716
0,0885191343993656
0,0830148537227036
0,0866277159415963
0,0877230304667101
0,0846858363966433
0,0872406545895613
0,0878446384426935
0,0837128077128195
0,092160360936707
0,0790652089233979
0,0902574977163369
0,0794140084918546
0,0865540075590772
0,0813125173712724
0,0880372116853925
0,0834043075402899
0,0873386876931428
0,0846018888663415
0,0838756324037993
0,0835534578629616
0,0817239744805795
0,0846211252355986
0,081595232923207
0,0834704852713925
0,084983168052223
0,0802377724598609
0,0839294662659654
0,0802199969669944
0,0840100045887825
0,0813113854722772
0,0846267802387382
0,0786155321378772
0,083464913792894
0,080326143701382
0,0820838747624205
0,0825125035095796
0,0832075335281107
0,0818919287841607
0,0866247796089205
0,0863912320601526
0,0809918983825504
0,0840770755323556
0,079094879209226
0,079402589463672
0,0810298429376632
0,0803774152764796
0,0791544104634571
0,0802051125716306
0,0805802520276884
0,0820964498778224
0,0790073390035324
0,0794486006941451
0,0801583256812378
0,0829323364665307
0,0810877959123298
0,0822854941404707
0,0816441514526082
0,0797173637896726
0,0860459858992919
0,0801465313929663
0,0864686377054286
0,0837505774132835
0,0821664570320914
0,0813554827138847
0,079404885742661
0,0791885477773542
0,0832929253162153
0,0803633162117192
0,0803528603466277
0,0809384240548711
0,0797221644458111
0,0811439870883525
0,0816462058892927
0,0814367826888799
0,0808662320316474
0,0813950896838726
0,0800748292415008
0,0810368837375011
0,0809207170296307
0,0845501539058153
0,081311368230394
0,0833746431943776
0,0778235446044211
0,0834436547990108
0,0761659564883738
0,0874270855505939
0,0764906123546655
0,0960221286391032
0,079450808911107
0,0829976871552626
0,0825182843726523
0,0803841677327378
0,0821618226758654
0,0795169511730485
0,08266143879508
0,0815254800937672
0,0805057040806724
0,0821907636700117
0,0839142598837321
0,0818553469449213
0,0817096529482889
0,0817995038363413
0,0844292460133753
0,0867060251700074
0,0808043459539809
0,0867414203386313
0,0824143906809107
0,0836369545374081
0,0901747518704067
0,0833300004016157
0,0879598509015032
0,0805721490610456
0,0862385447976013
0,0822261344208993
0,0872300020893078
0,0878965161325044
0,0870077660903316
0,0819569583857294
0,0865519728110403
0,0882053689699359
0,0843871849705142
0,0880392298702764
0,0853932994973899
0,0899029353810509
0,0892531020261994
0,0853187365329559
0,0891971823633408
0,0890250284585523
0,0899946003111672
0,0886511535533417
0,0883497891852066
0,0891510602568594
0,0948968190007937
0,0922048872997223
0,0905498269845658
0,0985657952824343
0,0912560686318552
0,0884940683217447
0,0936463925647646
0,0918097331104906
0,0955036708307569
0,0910252972960502
0,0987399967370727
0,0963507522021549
0,0884671762717124
0,101812418950004
0,0894984062380209
0,0988991567918053
0,0928937428849535
0,104031173614679
0,0923627703852746
0,104154867046471
0,0905185171873628
0,101434171440733
0,0950212965218237
0,106159146221326
0,100651607372599
0,0996966986826656
0,0994715211842608
0,102548659535035
0,101403687192928
0,103292267571514
0,105423530133861
0,101691522995265
0,119741818930892
0,108034114210939
0,109651472568631
0,109533137761515
0,107923593259301
0,123024826062639
0,103421262942262
0,11253616386796
0,106938040789981
0,111619605693937
0,112366262962602
0,110162920886947
0,120560823499462
0,114783495786909
0,114127542775918
0,12088970038628
0,11443039225569
0,128430615830368
0,122981787699196
0,125494857523943
0,119676654432173
0,129556429288221
0,120145671230219
0,139405606483144
0,127261841513904
0,131884427737533
0,137901405700668
0,131158491220668
0,140931162136435
0,134864811768641
0,138881975367231
0,136422086361251
0,145743415028492
0,140047702039065
0,142703601276534
0,145998158002083
0,158750013260285
0,141201005003819
0,155143171226405
0,151719400506665
0,159867384578521
0,161552944297443
0,175204567584977
0,160236459277496
0,164927926292404
0,161547331087351
0,180426929569637
0,167198260700653
0,170724149505845
0,172433230670559
0,177831810695622
0,182701087932357
0,181452151077532
0,187379163817531
0,185122519817292
0,187664620592036
0,197359652940659
0,192755997636844
0,207476137809357
0,199822457081385
0,215118290568759
0,203122105128401
0,22837760428004
0,215023809946627
0,223222599233753
0,224765605492353
0,228795063019574
0,233924086921663
0,235677304673192
0,237305298407339
0,242901408676
0,251370034540538
0,25493482041656
0,248958838679628
0,273392655985192
0,263423176339079
0,281643234175349
0,260496304406685
0,375803076704575
0,282965895009908
0,297097783607999
0,299737824813462
0,307731690203888
0,343763665483018
0,314097988742683
0,317548004886699
0,328979063515977
0,333102948691256
0,342794965372093
0,347452019810266
0,354192390074143
0,358014813537825
0,364876696234449
0,370405296906599
0,393098784678792
0,411916869056849
0,403458962615827
0,403675769350671
0,401087926942527
0,417873584731334
0,427765703979567
0,422557932012814
0,4419043431218
0,445201004155331
0,447045657333469
0,49170292303107
0,458287544665897
0,474343178621871
0,470792676021667
0,496308693730719
0,475552165913018
0,514262506373277
0,526135566752272
0,514275104135292
0,521131189103972
0,525950186907259
0,547839245702409
0,536399848205864
0,57068426472965
0,563862145533128
0,563077766303365
0,56845027110855
0,578494520965601
0,582806514625162
0,599171905965883
0,609031004428333
0,605839921549402
0,640718934066113
0,645226232530221
0,715709107768759
0,645904979230879
0,624096678693622
0,655009648307386
0,636325995739846
0,679446131040807
0,660679481223942
0,70381291573087
0,704564781479102
0,666959862917093
0,675688653518353
0,683563919947404
0,69228394819915
0,705476929267964
0,704241666771269
0,68511511131571
0,699813968934101
0,706335381997754
0,692519395929428
0,761238305064057
0,6866977790028
0,706826076068254
0,695793328676055
0,702395882605084
0,704066387693115
0,697199468165433
0,678875574022141
0,709533383334977
0,671423483367324
0,672742900054851
0,670929275285946
0,691159424151495
0,666874781386916
0,638263220985796
0,642540551309962
0,628508608773912
0,630922118521369
0,621866332626842
0,600850292480724
0,646204264966975
0,589893471965441
0,588197355570266
0,585397314672052
0,580627873425489
0,557207958381355
0,559740151419081
0,557002445943701
0,540603969203117
0,527606341283664
0,530809765809829
0,509933469726577
0,503338548862749
0,498754554510025
0,505334249561453
0,48901708294218
0,478964490794752
0,476958127978394
0,471490513662728
0,463311599803939
0,461140245427591
0,452264287777954
0,444320798820168
0,439345055699912
0,435338280428857
0,422272005591533
0,419009822337687
0,413051140179353
0,415537411595168
0,40867508913943
0,396091963718071
0,394085746317515
0,39599239702909
0,388496744820861
0,380174600320155
0,376619673749502
0,370032543650675
0,367977700019584
0,362813343984274
0,364004934844729
0,353701195526966
0,355410368603196
0,353894905200149
0,365059730616458
0,362938680368662
0,334225331391708
0,339918875132124
0,331126477648184
0,333562187654529
0,322593211924873
0,338667986319354
0,330510323979147
0,316937066744624
0,317614758281467
0,317199023326883
0,314369289307167
0,321205020736024
0,303722891813076
0,311917014608561
0,305111092970038
0,316754035676815
0,345400565075154
0,305168918514706
0,337662487567027
0,289557709406669
0,294679911909367
0,297175296975395
0,310657230974068
0,285900615776785
0,292500967686127
0,292339771820905
0,288852145953336
0,291517398453
0,282210458213286
0,283261594777902
0,27752294956985
0,279985002831842
0,286357294466122
0,278739804254693
0,268528980118782
0,289887655469564
0,272564798301519
0,282606122455308
0,289946533863565
0,273452218448809
0,265442565738006
0,262427115399696
0,264968950196429
0,261431402607042
0,276639095554358
0,266015234101528
0,260086905957758
0,258895021939627
0,250596430496038
0,264968010296078
0,256963319267388
0,262377358088139
0,248914220320169
0,269093250986628
0,252248760476307
0,251413404522287
0,264810355762743
0,253242244881798
0,262058037065416
0,247805969422554
0,249127816553171
0,24464423145631
0,26331325730387
0,248536323883459
0,248570340971658
0,246216584649441
0,241972040593461
0,251238470621746
0,246065021619348
0,241540762674606
0,250210969918057
0,245333752113062
0,256473933396557
0,246524844990936
0,245373883719052
0,241254676694862
0,236392217933172
0,236559445185282
0,233848391395807
0,23422002410532
0,23804057018485
0,227579980256674
0,244231717346751
0,231251990253544
0,245223660479143
0,229420302375538
0,231351938961886
0,230214971877125
0,232981775958337
0,234815301538058
0,240756438016647
0,232079989282962
0,23632810282564
0,225142676062204
0,232956678858785
0,224954246420133
0,234563684608805
0,228882068943997
0,228783219381734
0,227287102914225
0,230685137542419
0,228311161338544
0,23272129268202
0,225378691237222
0,235016212479354
0,227622234590662
0,237435973287193
0,228946863754294
0,235378753904063
0,236711476894364
0,230527220867141
0,238456269004067
0,228285740151749
0,230993450373733
0,230380551081773
0,229459412955795
0,23366987154737
0,230707609451159
0,235421312438268
0,229676741029767
0,229007452041758
0,232413381853161
0,226689239223786
0,233532975038539
0,23403773487938
0,246633240878694
0,225751152518284
0,24472627159524
0,228600443305114
0,234009306076725
0,228396380016948
0,229339733756671
0,232923907822115
0,22760649039815
0,233124699679844
0,230614880742907
0,236770852305314
0,232705795012694
0,225747398646123
0,229576015672081
0,229320878092632
0,231430805508622
0,226221511674406
0,224736476451252
0,231105613363761
0,227470016891204
0,230392819200274
0,23452031146798
0,232254128385194
0,233700022480534
0,222158508782521
0,228502056545974
0,225991244543383
0,234212259902548
0,230479912509173
0,228922948600534
0,232300815448211
0,230002022333534
0,230169606219766
0,227841734072897
0,230886472102476
0,236258926245594
0,232621520687401
0,232545540541603
0,221662981880319
0,237284111692652
0,21812357251545
0,249929070548577
0,225685880378227
0,233261856803414
0,232441392707496
0,230335572200587
0,226777605908663
0,226974637223528
0,232177242573191
0,232569793706131
0,231387001870106
0,230156266737191
0,231218047449847
0,228472162678189
0,227311153176965
0,231639746754901
0,229879700716396
0,23174880847491
0,229908902019509
0,227600341476163
0,221919978201857
0,231877519536854
0,228661145148493
0,237168081030602
0,226156516365861
0,229523922415853
0,227470545391605
0,235746252388309
0,229325860860122
0,226341485924823
0,225764054721181
0,229661893618747
0,221642845128915
0,230179766384349
0,22474052355173
0,232303874453009
0,231842419124583
0,228150422620697
0,228149646339549
0,228156543274402
0,226321162237368
0,231490279001009
0,226662952086912
0,225983913676916
0,23050096052622
0,229976306669405
0,228497753730557
0,230608624015657
0,23189426703344
0,231396387539102
0,232335298880873
0,23159709189138
0,227201868419581
0,232166387248988
0,230087150801272
0,228949444485462
0,227167333810891
0,229898654628107
0,223887124602846
0,225587569240919
0,23012984165731
0,230240806894905
0,230620606111873
0,225927243573105
0,226221863091485
0,223429616624189
0,228984977046415
0,225730573599747
0,227327565043403
0,223245742002818
0,224484667515866
0,225789822770855
0,221091921209006
0,223028423650421
0,222915913153566
0,221368629100717
0,221714385226106
0,224160820401916
0,225446678767896
0,225196551809045
0,222362746151822
0,224582696586797
0,225642403835759
0,222990174271791
0,228359467520299
0,220130022849433
0,226744056785542
0,222609930720639
0,22521884435919
0,224822746998761
0,223342487124841
0,220909200613634
0,221626733398961
0,222139275330501
0,224033366199576
0,220556803735401
0,220529960129627
0,222301100844176
0,222143037633245
0,220175702960771
0,218245643604283
0,220198127799767
0,219871146178778
0,219808252956747
0,221137299402463
0,221824562888443
0,2221501689751
0,222325250067014
0,219528313394322
0,221588586656987
0,221069286179655
0,220705258514654
0,222171470729016
0,219844822063495
0,221875518625723
0,221232317536658
0,222697222299488
0,21877933092468
0,217852677125284
0,219357204705328
0,223159071646581
0,219209191856614
0,218208101343024
0,221576958414695
0,2211883920903
0,218079028856952
0,220733265487749
0,218956907322726
0,215247070679081
0,219966296731275
0,220831419400333
0,217120883424812
0,219740814902372
0,21840490671036
0,215584354247579
0,217041241048854
0,218054013042799
0,21938792787782
0,21710074499944
0,21654057866187
0,217970874800065
0,217218674200115
0,217483255898591
0,217605226333553
0,215837901949647
0,215914719569678
0,217298720880383
0,216391103564726
0,217770844869125
0,215156966763027
0,218315857740615
0,217400817178454
0,21586389040104
0,215733235942154
0,21694035165277
0,21663252868798
0,218966854401039
0,216042727538517
0,217195100073436
0,219347614321988
0,214555638725924
0,218928336638568
0,21659366549538
0,217100039848593
0,217172180049568
0,219317263834247
0,216900416672336
0,217196650904133
0,219497317694086
0,219457592981533
0,220540130690682
0,219097384578601
0,21834242354932
0,217763530024193
0,216590458167054
0,219485401626852
0,217585165950034
0,215421103253406
0,218824804011236
0,217731101936765
0,217946529138262
0,21735687302796
0,217589755651055
0,216091533853368
0,217682902546254
0,217747869947521
0,215335371161716
0,218142614428333
0,21529869751971
0,21863810834107
0,219308108239423
0,214312499171134
0,216066011815515
0,217629760868521
0,216051667049369
0,21662751862344
0,217392522523033
0,215387351194405
0,216225468560769
0,214336121094776
0,215563471815488
0,216154748138054
0,215310395031852
0,216290676922986
0,216667856808583
0,21445738923151
0,216084617933716
0,215371749196572
0,215341050717444
0,215224948599183
0,215749521677068
0,218020575770314
0,217431817663666
0,214125136480684
0,214584982211954
0,213634746547264
0,212583620684005
0,21366799256419
0,214940812146701
0,211506636049369
0,212751606771586
0,211570548393611
0,213637395434612
0,211755120278527
0,211263190968578
0,211070628844485
0,212458115448702
0,212171212932911
0,211912376714409
0,211579232052327
0,210816356803535
0,212811249066759
0,213457221255758
0,210557265581284
0,210530407650824
0,211443128996633
0,21194877685933
0,211966719546029
0,211050908322156
0,210434174721691
0,210679977640279
0,21010088586018
0,210108933496224
0,209834453183499
0,209172872835336
0,208610626636366
0,20778723103531
0,208381168420792
0,208935377001528
0,208643524664691
0,208718367682226
0,207737776373779
0,206526057554263
0,211352088409328
0,208507485599614
0,210569406710771
0,210880118896372
0,210685545192686
0,21055832551479
0,21148844242624
0,211780742053675
0,21321343706294
0,214975526996888
0,216457681088799
0,21388364691514
0,21712089750451
0,220231986769404
0,220104086103142
0,218668208029667
0,219691578678463
0,221534615952765
0,226072522370547
0,224846746609275
0,226287570613296
0,227046840386623
0,228774465755176
0,230794396648359
0,232437988241656
0,232578220237469
0,233957684100498
0,235169487408508
0,233828866809003
0,233661084696903
0,235501221890036
0,234806372971182
0,235728066443898
0,236045322485908
0,235582122091354
0,233841909274893
0,232449405320885
0,235199479238208
0,234355793097507
0,234225814266543
0,234290683935518
0,233653525872706
0,233904081352499
0,23316891283187
0,233490620675526
0,234464730640477
0,231523347412234
0,235420389359499
0,232603135308999
0,232592099943969
0,233177713698538
0,234439752572692
0,233530310909936
0,232648587315447
0,233705430711114
0,23555792663628
0,235564520012619
0,234831196830212
0,237151698101732
0,237665066228339
0,23951249110318
0,241336589601381
0,242658362210262
0,242829901295839
0,243114821814987
0,247374137085054
0,247163243878617
0,248731526492004
0,247361470066907
0,249511667707531
0,250223317331958
0,251691605980025
0,251434401247345
0,248422916790686
0,248616768404415
0,248786259773612
0,248694970025789
0,245718130486436
0,249173374649504
0,248018761580105
0,246935301944301
0,246598836750649
0,247788819966286
0,248373368001199
0,24948297671139
0,249341426426294
0,248517209105319
0,25093522532114
0,253107655429013
0,253769272161142
0,252723529521702
0,258017034809362
0,258779393499164
0,259213356521757
0,261552959190227
0,263481468095095
0,262993664655968
0,264574637585308
0,268085802262966
0,266437995693076
0,26983920952097
0,271565912711092
0,270139694735639
0,273955479964822
0,271214476209573
0,274283236096307
0,275821348570049
0,279443058022051
0,282367488154267
0,288320127077606
0,287194278044867
0,286429142069074
0,291354406597573
0,290461111486525
0,293478593023152
0,29417252556578
0,29482798580595
0,294073127038829
0,297543939213354
0,29535104851656
0,293786397369312
0,297148777884327
0,296525030350016
0,291744040727096
0,29157830881328
0,289325439521212
0,290749691621592
0,286124934512053
0,285672364071377
0,284391946097533
0,285088264112881
0,282170589187137
0,279931110370387
0,28237142196212
0,281728160371519
0,28379756150246
0,284263992636896
0,285600931025247
0,285512942150008
0,284038274132466
0,286318041361942
0,286457988334609
0,285707720420843
0,289974287482595
0,289585601323276
0,288370608144589
0,290109398415507
0,293698413174381
0,293681812214183
0,292238942192066
0,293765367939918
0,292577288033999
0,292776494862881
0,292649066431954
0,294594947251342
0,298361791886474
0,294988406270764
0,293610206405042
0,293790938877818
0,296066480968193
0,298308349130086
0,293689046088001
0,29548635192496
0,292402498854516
0,29202461434416
0,295266223703485
0,292391562137819
0,290211370837817
0,290608196207713
0,289838386564472
0,290004668369913
0,288190851145502
0,287069716673687
0,285443406410286
0,287856803419167
0,28988996198348
0,287173333832317
0,285676556702542
0,284838962739983
0,279000451704006
0,280517322743746
0,275717488755549
0,274653346102171
0,271065142178375
0,269069070209895
0,265657829645916
0,263121337477986
0,263087159053735
0,264836225500725
0,261489482435504
0,258988287346933
0,259610426225122
0,260012864543207
0,256800393660626
0,25782740543412
0,259570994242347
0,261391888854551
0,259813810029546
0,264045409365965
0,2639226837611
0,264105723656015
0,267164982352085
0,263814243506347
0,262019340072956
0,263163334284794
0,264490599179544
0,267401460147773
0,266367132009108
0,266209780251807
0,26457769396852
0,266985253218922
0,265469045597892
0,262869626871571
0,262461003120008
0,260687839009563
0,260408021937693
0,261058196774532
0,261405301509419
0,261425223496054
0,261358809541881
0,262322410552733
0,263067382598458
0,260381353223541
0,259425296899073
0,263558633014374
0,261725479699678
0,261300796667688
0,263921963625193
0,263763422652606
0,264911188359493
0,260555478738435
0,265457868109442
0,267523501903504
0,264953896934182
0,26389390960517
0,262536220649445
0,267188035090813
0,267053384022019
0,268272943337901
0,271070787413822
0,271129497277112
0,268556829005898
0,27107591902058
0,27285929358942
0,273604047816302
0,277587594823242
0,277420668301599
0,279002343696376
0,278702732709347
0,282150196755747
0,281713977787901
0,279859703297434
0,285643279553848
0,285097386994099
0,288057687016452
0,289737885306968
0,290344237556022
0,290858361518365
0,295434576830911
0,293716877978289
0,297431036304703
0,295923893559292
0,299209903087963
0,299969134647956
0,301148335865985
0,306470317041881
0,304076517190456
0,304978698676749
0,303577894958715
0,30645752071821
0,313137273378034
0,308366496299842
0,314813211199263
0,319778987727348
0,314657848300764
0,317384723669577
0,325191470755714
0,321554830136974
0,324778673009003
0,329449409479635
0,326765093240162
0,329728297138182
0,329400091267003
0,334028734080748
0,339323985933111
0,336176748463006
0,338047272552373
0,345764746516252
0,339933030528417
0,350007385714532
0,353415382041766
0,347828027699406
0,346776285047571
0,349297858335232
0,363470314641358
0,362418236665875
0,364387287996375
0,367968624303316
0,36457137042481
0,368065550891394
0,37620404863582
0,373149368280208
0,374336072154098
0,375857673098758
0,386605673800957
0,387518256918409
0,393553129994552
0,392293280811923
0,400574774385641
0,395744010722135
0,406523057313377
0,397903593906345
0,394735983999336
0,405192883955365
0,409507040588986
0,413795929015507
0,420237515991423
0,426107575678916
0,411690151497404
0,429170299690912
0,431358246597739
0,425524374697794
0,435346425579714
0,436241143241525
0,437079477686153
0,440921071139031
0,444339740145258
0,450597318166358
0,448969039990317
0,453587018900424
0,454674117362714
0,457909942348216
0,470775179401335
0,468008107101615
0,465927164202473
0,470932450774215
0,478767342050695
0,486887433958826
0,483108144846218
0,483279779225981
0,483187275632421
0,485969628151579
0,495606612889327
0,491805338196811
0,501243333859285
0,500780718368256
0,504079034023532
0,504994735982819
0,503182657622874
0,510964511677892
0,520212528116055
0,520970423136267
0,525110407014648
0,526103804859197
0,533451786388315
0,519040724221987
0,541099512097125
0,545770841315135
0,549994593817478
0,552294831701762
0,544979945439698
0,552306944156191
0,572057757816886
0,567422009672948
0,573874607480373
0,565286636011814
0,586340306425016
0,574640460075135
0,579185204126387
0,57524620236296
0,597234262722769
0,607957694049184
0,586405508220996
0,599030197466582
0,618605077642275
0,604862497103122
0,612880514156933
0,59202461514663
0,615541871822262
0,618302811919749
0,62839522769462
0,619445955673554
0,646969568205334
0,634783713231294
0,649049654303884
0,642966193262692
0,664661246542722
0,653737251960522
0,669062404297885
0,657915930978773
0,661128744466423
0,671481778875161
0,675273471754249
0,685877698073972
0,678563670008195
0,666152078117677
0,683630122063806
0,691009771105938
0,710315743781048
0,684286488252321
0,710437715773004
0,703152552424581
0,712261063205522
0,711048653774278
0,746735698716185
0,732215968885011
0,735242044077964
0,715823307460435
0,765666706143845
0,724561947102524
0,727044744776357
0,73728943499209
0,744444035235472
0,736409105107392
0,781603458305461
0,749544095837268
0,749301032640962
0,75881178300759
0,817884792804319
0,772466381058413
0,8081601274544
0,820767844183112
0,81988774514635
0,786317735161767
0,808647927118763
0,824362898873242
0,811848748770516
0,790104684210046
0,850385620792447
0,785790276366161
0,846220436551658
0,854760450755782
0,802600156806581
0,806834852796746
0,889112212636619
0,817616704469772
0,842434660304498
0,817850346209974
0,906248323170291
0,943802342662006
0,844420863214325
0,830474002177319
0,865304619116306
0,874626486730399
0,840548024369338
0,890792578606
0,915749842571566
0,846972213822739
0,925269867666377
0,916723103182878
0,946090674427067
0,892572662358914
0,90953861475385
0,875928694498377
0,912396379955655
0,889022083774876
0,906369422046313
0,874044917524903
1,02538154506803
0,961365935199243
0,919656672251541
0,977889309387917
0,976698330368102
0,879800724810125
1,06155154893536
0,957623741742964
0,946219333792325
0,865709611669511
1,02123439762097
0,985681971551444
1,06837605124108
0,951709314388655
0,982267294335093
0,960762459792121
1,00074753389856
0,959763949120387
1,01903584985559
0,999965278443349
1,02884327411871
0,903546490639867
1,07591965775297
0,963161097643686
0,984012981047796
0,954923000522022
1,06882049335813
1,05500328392225
1,1810941634978
1,11330051000264
1,2470527344899
1,10605660194802
1,04857484939029
0,912262569414027
1,04686940681581
1,07542082675599
1,11058013158756
1,10016804709703
1,17380467024941
1,08122407813278
1,06777709024136
1,25275787115042
1,38700962854417
1,02871749722776
1,07947343695394
1,02720063581413
1,15669499626233
1,07731948289176
1,17512989758691
1,2640616366079
1,37466233283437
1,04002469616674
1,093024033213
1,19606584951545
1,33334565539319
1,08290344004848
1,2214077124569
1,20492054549223
1,17290482174349
1,45943445241433
1,23550107921314
1,00778189317689
1,38867401881444
1,37318904342042
1,30390701712522
1,18737099083717
1,18065053749996
1,22150094300856
1,13784093492611
1,03806126594981
5
1,36188405597173
1,21814334326101
1,64999118087085
1,33187493261599
1,1412142332442
1,5228196697108
1,14649321603497
1,32438389317693
0,984876525706407
0,938340092202253
1,01441871849055
1,18064621915299
1,90683117244281
1,1688764611835
1,14245968479608
1,24195710212358
1,17993186978119
1,62631816885572
1,27198356060264
1,4757260818683
5
1,42369463779744
1,60367157772851
5
3,96839867885141
0,947949658238316
1,07165141098636
5
0,914986189482981
1,30311116482601
5
1,26324789153023
5
5
0,570321590365185
0,959105493381231
5
0,999547371910235
5
5
1,12678344734764
5
5
1,25078878933079
5
