3596
4000,36533379555
650,420452594757
1
2
2
0,0174704615291044
0,0177426419839995
0,019338629016939
0,016357136275267
0,0245068522556347
0,0104777671071659
0,0190049634965162
0,0075913750017256
0,0214633498103938
0,0108555500278142
0,027300219160642
0,0116058853121421
0,0130357684973332
0,00618944884315344
0,0198867212233412
0,0135010974601392
0,0269164858108121
0,0128624637150016
0,0220447464247678
0,0171195156046299
0,0174647382246406
0,0172206770765329
0,0224478362641867
0,00396386455844541
0,0164922547971964
0,0102740384422496
0,026995163908813
0,0178718508133274
0,0108591922457409
0,0120163141285204
0,022400770445367
0,00885063610054332
0,0171247123151025
0,00588290221571606
0,0239304363672826
0,0136057878782488
0,0244485334574084
0,0197151236370426
0,0150048342984823
0,0148209858074651
0,0153923323860173
0,00620354654927255
0,0153946041499116
0,0100367408222145
0,0245183034755999
0,0122058075846721
0,0214260646973049
0,00872061366522742
0,0260701531927885
0,0143210132943535
0,0234334008465104
0,0092024484534796
0,0272560080655896
0,000792704069130937
0,0148379363611191
0,023486182654813
0,0143906886548916
0,0147861943408186
0,028889147425975
0,00784253664112313
0,0219597863098234
0,0106432347598693
0,0215352188876509
0,0226644214483471
0,0265560757150496
0,0162457529637388
0,0204172176714619
0,0205068893227202
0,0146183745387035
0,0229293115643875
0,0188964837658526
0,0209406739270281
0,0135319201089037
0,0176621932835538
0,0160893190348927
0,00334084520533672
0,0168374874552291
0,0131582414276493
0,0193586328818691
0,0177372241033708
0,0221929112168356
0,0223898108860117
0,0188051144178557
0,0120855195769546
0,0171219082057074
0,00829933265700668
0,0142615635795775
0,0171809679379162
0,0199034127444562
0,0161286360816334
0,0285036372876386
0,0166955064362406
0,0184907468848767
0,0170480392309621
0,0199466930909614
0,0166117368759728
0,00793362024648946
0,0135192172696688
0,00754049737446313
0,0228896802326844
0,0223630267037291
0,0058955534689816
0,0351516654104157
-0,008053767634626
0,0453009593512685
-0,00424286689758894
0,0255573931693716
0,0247324958691859
0,0204541901765547
0,0230280176867258
0,0159569747361303
0,0121614143536565
0,00923765803138663
0,0315677103583139
0,0122410845012038
0,0183637467324338
0,0138225547271221
0,0147275320680551
0,0184208176513773
0,0190324873765224
0,0046123096844508
0,0222694033884937
0,0281231814776886
0,00292928102327351
0,0299024030528534
0,0163399383417811
0,0166520090320993
0,0288340082100621
0,0231298312976702
0,0141460376475055
0,0251962753961329
0,0102829948520333
0,022587080729928
-0,0035336729634783
0,0396464847363845
0,0102061936225281
0,0251683227679648
0,00684068372398103
0,0233287823510467
0,0333254598673292
0,0190902064755984
0,0134952984176163
0,02078934272123
0,00943319108629773
0,0362139227268122
0,0265278706028043
0,0207054350349576
0,0202002555629392
0,028569917840813
0,0130295753595822
0,0230335503935786
0,0132590100765872
0,0384660600183843
0,0249429110792506
0,00976478655386242
0,0315670312027937
0,0442292183563949
0,000228715440232776
0,0477458816819099
0,000661377380778067
0,035220028999016
-0,00183737814061449
0,0240898822012372
0,00669485849483474
0,0297323563220392
-4,968783829744E-05
0,0238657901987001
0,0159494188976355
0,0268639982826504
0,00918099892467242
0,0360713212680956
0,0216186600046204
0,0165220441789325
0,034746427596638
0,0179191767278953
0,000101892243587835
0,0257713314415777
0,0103988301366106
0,0193626184577422
0,0144809841597649
0,033712226359016
0,00737401733116433
0,0378092879678382
0,0190761617297527
0,0307688690838483
0,0121416873996731
0,0167548285466247
0,00785291763131823
0,0313049121090994
0,00799851122085775
0,0381193866677971
0,014645152539758
0,0295941550235691
0,00589760506194683
0,0329200079032271
-0,00836518100832702
0,0381129039248369
0,00990944407652414
0,0202724959369436
0,0147930471723916
0,0264977267266898
0,0227525620981764
0,0258808089759286
0,015184691383744
0,0271487319565145
0,00623318719471291
0,0524419549362602
0,00747278687872875
0,0309486983315497
0,00317442949087871
0,0334136660099933
0,00665746045372578
0,0308102151406975
0,0115723431910069
0,0227106641980462
0,0198152875705985
0,0224078140695042
0,0181179225306521
0,0355526204311797
0,0132502019710322
0,0262441866629609
0,0171591629342622
0,0281981081419618
0,0193055942263469
0,0200001352829209
0,0133468729299478
0,0335652721574254
0,0201126820981106
0,0302030754334377
0,0185259631390422
0,0226993399836379
0,0113476334558114
0,0262251615379273
0,0152153255384458
0,0252060365846174
0,0195647446907936
0,0364836487052864
0,0148584605905823
0,0293363517387811
0,00753966025976637
0,0306031634097051
0,0185907404745032
0,0298018639353956
0,00680657127960127
0,0251577873899111
-0,00265923710269404
0,0596530642479333
0,0102300886833995
0,0433321765822406
0,0063385340776905
0,0390615297068625
0,0171843977205235
0,0300149864051879
0,0174382451532837
0,0258557501227835
0,0189430567799427
0,0377914072529216
0,0273798953841224
0,0301270861847699
0,012595418365392
0,0352417389116741
0,0235268813353776
0,0221574989412132
0,0267002066476853
0,0199441520680649
0,0370722698583802
0,0261065927889286
0,00719520685638823
0,0558802453385522
0,00970219619664138
0,029545788058086
0,0299658006441283
0,018636011713775
0,0258848594910547
0,0312555720007758
0,0272685968854212
0,0306572222392638
0,0313347814080189
0,0313595256072499
0,0313397041509544
0,0386468699943842
0,02230264646534
0,0493593242177225
0,00385348631824666
0,0687611063907014
0,0132916446945246
0,0607992338643769
0,0285695232411186
0,0399649381197413
0,0361838532192322
0,0378052798625533
0,026261422433366
0,0434392433745063
0,0358420972442274
0,0399474120422372
0,0354622782926115
0,0253588113425779
0,0438978997870558
0,0363189481309672
0,0315631440179133
0,0340651043122284
0,0435128226166099
0,0326542987988333
0,0386691296303369
0,0395962323850423
0,0421296700153443
0,0417091366561236
0,0272426542206124
0,0625020136629277
0,0386080942357091
0,0508493880110519
0,0597454049291048
0,0449996655569427
0,0428288900791097
0,0491643875162738
0,0553921319768981
0,04784211144399
0,0530837088237214
0,0515778146273704
0,0655736142757306
0,0606336869981231
0,0486406505835519
0,0565562049212203
0,052568319412424
0,0617349027447035
0,0549649138696935
0,0716634507106907
0,0566875116232689
0,064660001849284
0,0672551567551586
0,0700503632909601
0,0773133449279177
0,0660168547127905
0,073302263831322
0,0876040069819588
0,070087817127793
0,0912591892892221
0,0676484274080863
0,0860143526859327
0,0692091059461439
0,093814102460203
0,0880171966917376
0,090510903575298
0,0840803525211477
0,104755244468824
0,0873166957438067
0,123727134463958
0,114413861865125
0,130431428750113
0,0862842733467209
0,118253438524673
0,104525077752742
0,123365126661002
0,128123554237708
0,116649539026843
0,142082440688814
0,121986213339035
0,129239323876546
0,128319979254062
0,132551685328252
0,138505471461613
0,136291783424626
0,147301314557776
0,146225177073265
0,154411851980716
0,149791270634625
0,169549804996528
0,154130340253239
0,173596710203189
0,155882574663619
0,164428127001741
0,169677508421805
0,171867504542552
0,185283565267668
0,216438700511272
0,172339604951665
0,213154189591257
0,158154614087252
0,216346694454359
0,182883044662789
0,206376143340827
0,188853150313301
0,20844208588084
0,203783154185405
0,215844512231214
0,204220677504887
0,225786746112999
0,203548848029036
0,22280503719758
0,208377232750595
0,24120012106396
0,223124566198044
0,246839379575156
0,222739688970446
0,239615930397606
0,242791395758804
0,261957368534811
0,261184740774774
0,268969221044912
0,2442352883914
0,255820674212608
0,256916495980383
0,251897969083742
0,2685873019694
0,269769556320499
0,273598728329408
0,274025847007557
0,275035351537862
0,304801631355852
0,259576983198736
0,283374427341747
0,267776327372736
0,296571462037308
0,289237593083032
0,281116401087722
0,295392497906219
0,292563435680006
0,286598784730045
0,307073092362621
0,305635790928398
0,311657707392081
0,307549920889991
0,295069805130889
0,308535047261141
0,309852428195543
0,304740508360522
0,334343387153394
0,315687595580302
0,329261660817843
0,325027917628642
0,335455613495333
0,329147054078979
0,343103426785772
0,333162183430348
0,345567844533169
0,32358162088511
0,352475394748834
0,338432153019387
0,348347833063978
0,350424134345565
0,358441573771474
0,366901949636003
0,35143103327065
0,37088730801568
0,361941937645482
0,356791159619946
0,373862032457814
0,368736474999633
0,37799639824278
0,369280804450086
0,386822121718851
0,385020759229226
0,382233953041766
0,374852536940683
0,380929663022751
0,371240381299358
0,397503638691014
0,390335529904178
0,403988704663313
0,389835670551702
0,404207961804868
0,412193416345277
0,438718479734516
0,451511940126496
0,435233602453486
0,423774447485809
0,411979082532078
0,418477103829083
0,443478418017602
0,431719226602015
0,430939765261681
0,436848512097263
0,443788028790758
0,43134080580842
0,432944153108823
0,419890938165282
0,451004033631573
0,458560853062052
0,468503451447489
0,443488142640342
0,469524853234028
0,454589818945936
0,45409242388056
0,470879884650892
0,475794208275604
0,460083663251239
0,477737452051443
0,474596519130916
0,484672155603886
0,461116257886528
0,476542488111472
0,49480569584085
0,504172985824378
0,470234642740314
0,485234383109741
0,481306648292406
0,484255965596625
0,510652892464607
0,517505441499868
0,496653405235074
0,52014130347887
0,516471364629704
0,526619981892264
0,523632459886179
0,535953101381595
0,543301669538338
0,543933581706836
0,514905569615784
0,5358647580505
0,51966100742882
0,525345129874095
0,536460644104101
0,551713843851147
0,5513498797265
0,539203870672855
0,546630769132102
0,559566413164117
0,529623538360014
0,548856712178665
0,556413679916971
0,563590534163288
0,568161553489132
0,593577305997281
0,560279219165164
0,578671749074605
0,573431908992021
0,56162836934549
0,581695556914676
0,593066879925796
0,60066777878587
0,612128445823958
0,596542370848223
0,592566913110818
0,562109929747198
0,607404397128363
0,611926495421222
0,605813672788803
0,604384853872554
0,607637409596697
0,650767517149921
0,634178780342107
0,611769212964653
0,661412096194314
0,663399659475923
0,641849812719457
0,662266593659176
0,64285835204009
0,609953784699214
0,667907005761204
0,653689325466651
0,62568656154087
0,670066146361942
0,675741874578948
0,663761880717811
0,662344009422993
0,655408328277323
0,663718210273282
0,655161900543363
0,649740347482192
0,678097341679176
0,691285302734966
0,692134909682449
0,680397126438548
0,694365995671887
0,665831739941293
0,661058146002081
0,691836297654686
0,682944184144058
0,668419608657736
0,707191861139362
0,720458908313147
0,699798569902158
0,693806579011776
0,753657818194698
0,744662580101881
0,719780089246543
0,734547207225508
0,736589102020103
0,741904922747538
0,74817794954349
0,763733844813033
0,762928378480087
0,72129974464157
0,753076809997253
0,759109266243567
0,795383520897095
0,739829165060273
0,731437176165836
0,7871301884278
0,771846614835076
0,768218842502409
0,756750843290556
0,769751172215754
0,815000397667742
0,812555004109661
0,80492462604088
0,785107742443764
0,797477780829068
0,784989386804343
0,814931774115491
0,773250019644028
0,831452405708169
0,795901852142791
0,787016070846583
0,776927956119748
0,828699324503016
0,798146621390292
0,791618221003453
0,841278631486007
0,824164728772658
0,833346152577022
0,859459021465132
0,810151279003149
0,83931204965551
0,824279528281332
0,902898601735522
0,864493181190816
0,845335316545355
0,855078799862567
0,864273124891166
0,841691545308753
0,911590800405098
0,864545995199739
0,835878096121636
0,860593510951692
0,871139665617009
0,840357424839271
0,874586942068533
0,868497796046638
0,878019924389542
0,86228154935915
0,894275421216608
0,856224750927248
0,887478753363829
0,860690544953076
0,917108121831855
0,896111330547422
0,948103914702523
0,887416374134688
0,86180180054737
0,867836728160207
0,917871687544019
0,857399052469052
0,897845816662729
0,94716718370367
0,926386113718547
0,893753078333861
0,948572814094038
0,90424791589205
0,930497941583345
0,927374824078388
0,927956887072004
0,880528418383623
0,981108337642378
0,91679695498311
0,966466346721017
0,950210488435671
0,936000693073233
0,950312925180639
0,93674697261056
0,925271214714274
0,969957315483255
0,976569809851524
0,965382830924675
0,910186835383191
1,00278618861406
0,950365797325255
0,964076717525354
0,920100568502769
0,993513552487699
0,936843621763595
0,977813868337446
0,92580011817665
0,957245037554183
0,932491811656065
0,978267882959655
0,939756330966283
0,968592318789198
0,994218515225379
1,01543239618364
0,947266493334173
1,03230699137592
0,981133063322386
1,02763121149806
0,966539333654349
1,02812842831844
0,964915045558017
0,963123886444962
0,975381454998965
0,98449182737597
0,966799064692464
0,993053938759259
0,959179544860394
0,98737327894108
0,972011067752437
0,983668688407978
0,951552291706152
0,990106064946239
1,01443886498368
1,01591351432419
0,948597876498747
0,998675724863239
1,00778747440122
1,032570261021
0,949025503811187
1,01930970594618
0,943900674522489
0,961941963591628
0,938264390290798
0,968244150769988
0,964669283828166
0,975743615255299
0,977484335412635
1,03584945221014
0,953240814956242
0,998175078270947
0,964376511535083
1,00181480668716
0,962953689175921
1,03830041394494
0,948992634976284
1,00004604003016
0,967725421142074
1,03204953864688
0,946194854091951
0,982594270263978
0,972274319824767
0,97620186577974
0,995683147139993
1,02780855749488
0,967020080923698
0,983332475988672
0,955125209349824
0,98313543731358
1,03347015472979
1,00739648299554
0,990472285260367
1,01894518981898
0,948585403517507
0,99038501553246
0,976227251062599
1,03307047086122
0,978594708532212
1,02267481441436
0,965367943926972
1,03191140816523
0,942366780858982
1,01245314952204
0,958753798958969
0,953183467190694
1,01646267720302
1,0152185735002
0,933251202577048
0,996343484231609
0,937508767843432
1,01235798350163
0,950108664840261
0,979920061640677
0,953784163125233
0,994740528458449
0,959466945933738
0,969177713838268
0,970089823458909
0,984540357131535
0,936396868878692
1,02257411156937
0,989968788260571
1,0002881925057
0,977119924639763
1,00409126497828
0,964361923332118
0,966261841403811
0,920123211913571
0,980151566353358
0,916336243318471
0,985015983660775
0,941651164376335
0,974218061309619
0,965402105968064
0,975899225974175
0,948409922299004
0,989497170111726
0,95767109394298
1,02395336229146
0,931845343907708
1,04357952769562
0,976608853322671
1,01665258806521
0,965640411906968
0,992089333903167
0,907593768800663
1,00410660990377
0,94485954088235
0,98047894010917
0,929322547463068
0,986505801638861
0,947214300896527
0,987099077749222
0,960471733189502
1,00595950279711
0,95149965554209
0,98260316606493
0,949931323073313
0,969410193129777
0,946177855714461
1,00299038547852
0,971538578034914
0,983471228005695
0,937661093793277
1,03158367650895
0,934700894602389
0,980364278089587
0,938590320305238
0,960015006742017
0,949639655521597
0,960372954529976
0,945238017781713
0,990376149960845
0,961322891368184
0,974745095592784
0,924732317746066
0,981509379581654
0,928319177606857
0,955848270744005
0,938696542183191
0,938450909312146
0,901844337029135
0,978502406747321
0,924237754712178
0,97445285983725
0,899553257657139
0,996546288867486
0,920895260256236
0,934856012070318
0,95652307605754
0,945593773088351
0,899487819345664
0,950377515121441
0,874817856619721
0,991532938698841
0,890786079695742
0,94290193813364
0,899675863875236
0,924938026949479
0,878869658925845
0,931833311474017
0,87397091934804
0,910926493733911
0,890861979905982
0,905751440702907
0,873614358368808
0,903429354930603
0,88529117053525
0,950165471400975
0,888219996999724
0,907565256694099
0,867475362514105
0,894238313049638
0,866349467900168
0,857390041989931
0,875768836486645
0,891858623662722
0,873334395405814
0,894447130982778
0,859545343648677
0,885815976513431
0,821808454265478
0,852332843331208
0,807850702079175
0,859577085332957
0,832228855214667
0,864598029955898
0,837824300542899
0,833242526390006
0,810956571489436
0,84592486289955
0,816915594819656
0,844288391304684
0,781699546899661
0,829980595114343
0,800123838605876
0,845417728386096
0,795608355995599
0,819121477384191
0,808316919171327
0,828427029280375
0,781882125866901
0,795171026213106
0,797283320171757
0,804716299134007
0,772755486465609
0,789080487487464
0,751600773532552
0,775384703480135
0,736868278860259
0,776534184786128
0,754258780532625
0,77171035770269
0,737914641086616
0,764387835182327
0,754776574741233
0,740059190787337
0,71191164879256
0,749217322437654
0,723429169508573
0,731579674980454
0,706960860189778
0,721113884940802
0,68444798202914
0,716078949098965
0,68616169020037
0,723781716854082
0,677010944098813
0,711362618337969
0,68825641560453
0,696397569751446
0,681422064686753
0,708196175231436
0,659128535187113
0,674766734798523
0,670046341222756
0,672454092404028
0,650420254376155
0,65004148834536
0,652864614109354
0,65259386374109
0,636224857529902
0,644334228070843
0,628762689344918
0,643103993560391
0,616136929402526
0,628570513475402
0,595839211832246
0,640082440221961
0,612725576147141
0,620143255103385
0,606614108941701
0,619109822902968
0,592044773224803
0,598371313184557
0,589735059759395
0,607853931848461
0,569756119796527
0,590810974849916
0,56991238123963
0,580727584134384
0,568899510284599
0,567884496773594
0,567782560829151
0,571007418537346
0,556557938605329
0,570646899873199
0,562242881118319
0,566831392652694
0,535207244023265
0,556353306790262
0,526283562148341
0,544569263436748
0,529032908640545
0,531013825908786
0,515105735911886
0,528738213616199
0,519437555816113
0,528632642945612
0,495453257039852
0,51002146664453
0,493426943749582
0,512634385063785
0,487211482962963
0,502828903827884
0,485681830319537
0,488447041659583
0,474874272735604
0,489177432009684
0,477447789563365
0,476349665859191
0,455506513127726
0,472808787876954
0,45355966156433
0,473227573172722
0,460591373142363
0,474020002548014
0,44917347311596
0,449787749811037
0,450564582708075
0,45834044159538
0,442707477331719
0,436393070759107
0,438378116921241
0,440689509959354
0,427770754150038
0,437846695821369
0,41561175939153
0,43032466156078
0,412514979670287
0,428584247818644
0,411640892167737
0,421515858076297
0,402227980326035
0,415801934210486
0,399890269876216
0,406291783074047
0,397133919689919
0,399041455427234
0,391169393415237
0,393862344348662
0,389476529764932
0,384689003190562
0,38547613320032
0,374543386860683
0,378593631286473
0,369452433915335
0,371845257311608
0,38139684734508
0,365258924076087
0,367860794690729
0,355554681787134
0,364061421882113
0,362778387283884
0,353988115526291
0,351998091818309
0,364114252950524
0,341171397311192
0,347752141403083
0,345758520718219
0,340429869751751
0,331635070491351
0,34078635648985
0,329364678065343
0,338172207783796
0,329184636471417
0,333072027389602
0,326065209689481
0,328293897927944
0,318343146607011
0,322873827508876
0,313750651943966
0,319599468481586
0,310741481810601
0,314544761342269
0,301165896754125
0,304399868056744
0,30138356466308
0,305332599262192
0,298815012388638
0,301987462600135
0,283410205256462
0,298690289491766
0,286250134928485
0,285664443163985
0,28403968513037
0,277571575534894
0,286643357608557
0,285444460289586
0,279739629863709
0,280768496184787
0,273981713510411
0,280793453228197
0,275007444975297
0,273245039017791
0,265196261072016
0,27140362907323
0,268571925418916
0,263828879534763
0,261878319684157
0,258347392935087
0,250928726833591
0,256769849405913
0,251884736914902
0,257077888746866
0,244985582194874
0,248999952309304
0,242499382819432
0,244523466438649
0,244266375187127
0,245795236722041
0,237971137941438
0,249968031436541
0,232368420196486
0,238645842709118
0,227083572416955
0,232386364290875
0,223754616275424
0,239752415428592
0,226381798536068
0,231833027679821
0,22071736573293
0,227840820178596
0,219233849823789
0,226797108625451
0,216909283336452
0,220375023566621
0,220307826676362
0,222150950697138
0,218807353741763
0,217164117248115
0,206851963329106
0,210080881668677
0,205219740822784
0,21183368927011
0,20760138747371
0,210215605145438
0,197925546530114
0,205893388848353
0,194337551929903
0,206074733078874
0,198380702374847
0,199068917942914
0,195484264287911
0,196029601722601
0,19148699330649
0,195263013522548
0,189982393245039
0,196506999585883
0,185497478784931
0,192515244765115
0,18581727395168
0,190779005339306
0,184339526915328
0,185782884405035
0,178741959388653
0,187360953143258
0,182131037072369
0,182603701753176
0,176794712650194
0,180764756085296
0,169724288872817
0,175917998984867
0,173910939590021
0,180489731414291
0,174127221948266
0,169572477867261
0,164265081777635
0,174305329374029
0,168238478391872
0,169742713337099
0,17091830354593
0,16948301115202
0,165312933316783
0,171052331235706
0,165118846860234
0,165161081531895
0,161467917712829
0,162396864363929
0,16126013481368
0,159452040837
0,162232042167129
0,16072960454943
0,158770470278466
0,159978962822909
0,152389779119201
0,157324443840474
0,149132955712851
0,155748550459345
0,151505464573592
0,149986716436602
0,148695997672264
0,154931786115503
0,143612395374321
0,151401758658175
0,144194245310114
0,141736124553375
0,136088719660241
0,146803745743719
0,136427171071215
0,150736203348753
0,140777070427929
0,144721012114831
0,131634311094516
0,140678164981945
0,136936610745045
0,13574242056846
0,134918410007078
0,139173776306251
0,131228990862893
0,139018644356421
0,128577325761469
0,134477616478852
0,130617976649698
0,136439205413403
0,127894245104873
0,129921481678861
0,128981249803151
0,132272936947173
0,124566729570163
0,126209691791922
0,126079134195975
0,130004202194557
0,123783669044003
0,124225134116186
0,117876429836953
0,12363822859697
0,1218730926273
0,122839294540238
0,115052019590045
0,118371256516832
0,117205715685623
0,121045970436707
0,118671945851976
0,117477641342248
0,113041996843986
0,120443679793194
0,109384080605112
0,118344714414386
0,112701856647278
0,118909770617593
0,107059324817898
0,113130533485387
0,108874245065999
0,111641749156546
0,110006288843932
0,111758683972659
0,107093144350188
0,111577792132789
0,106855620933964
0,110091006413794
0,103730422624667
0,109784811170589
0,104908789409583
0,106148059373531
0,0994848995173594
0,103714033228981
0,103703244923038
0,105387241838266
0,103738644728098
0,104452242260853
0,0980490022288568
0,100859009144299
0,0967262837279562
0,103898585267672
0,0981354357890775
0,0992322819674457
0,0958176385368386
0,103060149631538
0,0936876132054406
0,10066640952339
0,0986745835282866
0,0983986574078727
0,0914353566703216
0,0932999804048925
0,0956707223935008
0,0965692066150271
0,0916253720862358
0,0952931790426143
0,0894737963238623
0,091761560049469
0,0884569367784776
0,0935213528971767
0,0903631051596084
0,0919014105524524
0,0837224660517581
0,0909125682086332
0,0828604838028453
0,08800333254981
0,0819598616076922
0,0834418485431754
0,0855186684482243
0,0889539245532994
0,085072261262482
0,0905226543238245
0,0826301538082677
0,0868396620961652
0,0826750331598377
0,0894298824425416
0,0866396084462939
0,0886909083150768
0,0810941159560724
0,0818795671927508
0,0780935465055394
0,0834772590465599
0,0801155127486557
0,080547738252767
0,0786275242848728
0,0773490118668461
0,0803413542619593
0,0817216739001529
0,0804991900718255
0,082981948878499
0,075140098228164
0,0778770029324122
0,0758232803060955
0,0801923872129533
0,0716948445704108
0,076392473582944
0,0793506157780358
0,0817409142551335
0,0743627874175599
0,0777594803832581
0,0749201995324061
0,0794364407512271
0,0683122085178189
0,0761485641858454
0,0750592192686671
0,0765207651773715
0,0755449039460963
0,0776506470199548
0,0706688625156758
0,0751824053261098
0,0710851927249137
0,0747637956518998
0,069092456275745
0,0750173683980002
0,0710243688617821
0,0685344819298629
0,0718985524009313
0,0749291992571633
0,0690718173169607
0,0720798560954399
0,0678601471517798
0,0675106346708545
0,0666195367984789
0,0710801442467817
0,0668933898350345
0,069174708894375
0,0660927006714006
0,0689315566116465
0,0646562623152536
0,0670817445698663
0,0660173757690807
0,0703542717207538
0,0641476361729947
0,0688416308628793
0,0681846497287014
0,0693785538074687
0,0639764919828839
0,0670935959323486
0,0637581415956783
0,0697426645040074
0,0649428313027333
0,0664616992529176
0,0646251356876003
0,0660743583264462
0,0635119938145257
0,0666574801943291
0,0615320763678938
0,0648222227542202
0,0621060096904928
0,0644927128727729
0,0638809408591516
0,0681299423699357
0,0620300173267001
0,0637469353606484
0,0634027362430248
0,0642608922503289
0,0584698702602894
0,0620809411575931
0,0563437243531092
0,0611007574901282
0,0642165145227699
0,0656632690231691
0,0583485025781655
0,0609067457172883
0,0598273274847482
0,0621692719761113
0,0575795467466986
0,0621712651117318
0,0587727750057851
0,0596769039499837
0,0592227082258963
0,0619871431062236
0,0563149584030892
0,063160826079131
0,0577131384829558
0,0617446075222097
0,0545001600990168
0,0613697393661778
0,059717535057404
0,0606469220019563
0,059259341750776
0,0605515233626178
0,0570949930482942
0,0599261962967318
0,0563213104042483
0,0625072095149506
0,0573232495561627
0,0574271576683957
0,053239814938441
0,0579538051702854
0,055637328361085
0,0600962047214993
0,0559454740850437
0,0562033592569561
0,0580136568224576
0,0618875755769686
0,0548236590662271
0,0575202336847831
0,0570211397923921
0,0607000110205467
0,0555852789903013
0,0567686237140509
0,05336829641114
0,0578770505644484
0,0531301338987628
0,0609293029703938
0,0551436269014297
0,0590392163833881
0,0534905365829019
0,0560401409470323
0,0546866764192766
0,0558933182660364
0,0558535008378718
0,0589733089900666
0,0556611428376331
0,0555122104361804
0,0538203049329035
0,0565497003653043
0,0487926193334821
0,0538728499705224
0,0529016211975017
0,0555169779181858
0,0549685478960223
0,0577125626727777
0,0560854662109591
0,0528139660675919
0,0498560306566112
0,0558461525964013
0,0529722848461426
0,0563013175900812
0,0540842074842875
0,0529601498519782
0,0503149966536723
0,0530891140137155
0,0536053258174289
0,0545107237314258
0,0522003932404624
0,0565887363845598
0,0527297148069325
0,0539043773948849
0,0515709523911734
0,0565017176971962
0,0508445318314121
0,0540377535342608
0,0551573322267461
0,0532489658232445
0,0490627331722238
0,054105355466869
0,0528630467543009
0,0535928157737691
0,0496134592279181
0,0534925956566071
0,0516735760068973
0,0533797836221258
0,0503201055528977
0,0531252150554511
0,0529512587741956
0,0532560021945577
0,0486079425818551
0,0508303253350829
0,0504053404400611
0,0546937577244475
0,0545626393439339
0,0526121131417399
0,049379053238945
0,0517210692504314
0,048571598122985
0,0521303472704929
0,0499007180468128
0,0508964074041167
0,0513840830238421
0,0526348968059779
0,0484833713222031
0,0539186390152081
0,0501087307546504
0,0499295923894054
0,0520549377794485
0,053358782841163
0,0469065909372161
0,0506706157518758
0,0517624052876933
0,0529200137402909
0,0497509733253828
0,0513002568933813
0,0496149449576061
0,0508994698362092
0,0505656726344085
0,048637100183688
0,0449932997604966
0,0518740234903718
0,050629011629359
0,0517468702716263
0,0472409065988473
0,0496588252805672
0,0505291730195555
0,0494337326802823
0,0470663196132535
0,0495167590667256
0,0482119191583097
0,0511034400345617
0,0502249208317321
0,0506784076021429
0,0477181368998591
0,0512869286936949
0,0489667807735747
0,0516801893156188
0,0489924758167962
0,0496502555841044
0,0456436081140276
0,0507415709129183
0,0490831109594059
0,0465697366375636
0,0469359241137144
0,0510490645578495
0,0467840101684276
0,0515832497846451
0,051154430746431
0,0521158497188636
0,0496475904091472
0,051557443058188
0,0480420709145801
0,0510183186307594
0,0498000099060859
0,0499805448868079
0,0494662696724073
0,0506707648962087
0,0474097206121189
0,0510996748501775
0,049545094500092
0,0502843193182088
0,0468848151233804
0,0483164833487545
0,0485108280160559
0,0524042781873321
0,0503458008667017
0,0509710785602117
0,0489700471641144
0,0481480296597236
0,0487060817217256
0,0516767757981326
0,0489272209959159
0,0517501023629298
0,0461019377212552
0,0488234353509056
0,0470100480261876
0,0513897194139877
0,0485629770220131
0,0480587896415628
0,0458149796773464
0,0531910999505426
0,049466833208744
0,0514156256897123
0,0525863937968182
0,0504141235058151
0,0478242548752148
0,0520797734581592
0,0496477960677058
0,051094767102927
0,051866785914998
0,052759469101011
0,0513990150878558
0,0521750215031312
0,0492384286085555
0,0503389806582402
0,0501452470147518
0,0474391261711418
0,0498956295616116
0,0536029919836045
0,0499895806607188
0,051838328431833
0,0515842321102264
0,0530420573554273
0,0487761594626473
0,0497213021281457
0,0514220657104139
0,0504622567376364
0,0500977755135232
0,0515037656763102
0,0487370185518105
0,0482836951461681
0,0520799304846675
0,0525146306020979
0,0515328981652
0,0541881519140722
0,0498657130191655
0,0496620448257454
0,049861599166302
0,0540226427639255
0,0499838201119262
0,0521413780498665
0,0499241382659696
0,0519481905979318
0,0501655932845329
0,0526253426043475
0,0494396706178827
0,0493084183462457
0,0533928806018148
0,0519264455970899
0,0479689990300459
0,05009699273597
0,0527162417015305
0,0519852334957981
0,0494150602608561
0,0539669956932122
0,0519863387903065
0,0522076054966049
0,0496893910121302
0,0497429863949229
0,0499349126048298
0,0507974830803459
0,0515617348032467
0,0523067431812815
0,0504472669632475
0,0509613980560172
0,0524780470988403
0,0556359336611908
0,0501414209215772
0,0526569612948872
0,054017313997191
0,053586330374828
0,0518598968199343
0,0521113086028736
0,0499719057081533
0,050397224341557
0,0522482936131012
0,0546195478210923
0,0511091875495537
0,0537962006871591
0,0521132786515612
0,0538768397365488
0,0531074929863017
0,0523324222742355
0,0521195352241246
0,0499075025622469
0,0520138550820377
0,0530484665843167
0,0517852823728061
0,0514922395398762
0,0517323870110433
0,0533428617541981
0,0536756227614889
0,0552082304856926
0,0506800332116669
0,0514674068535689
0,0509754260801282
0,05379856429306
0,051215600906504
0,0515700909224345
0,0547171346456275
0,0535101911642639
0,0529513502947905
0,0564566170910161
0,0515450938630795
0,0537845282378781
0,0560865352920025
0,0551005289683732
0,0529520163906074
0,0556970431816047
0,0540210129053916
0,0527448975845119
0,0532379477760237
0,0539788523819566
0,0549044088155298
0,0560913027140187
0,0557691565367172
0,0550040178181764
0,0526271675885304
0,054304450064445
0,0546001800123691
0,0509317358520684
0,0524345779456115
0,0526130035770891
0,0536144496480883
0,053613914283153
0,0513821847721654
0,0540297500854292
0,0557679049141332
0,0546444136422393
0,0540041369254165
0,0538673683060956
0,0540725708151802
0,0557975692222179
0,0561309140460451
0,0554874606880127
0,0577915545039703
0,0561047384962974
0,0567565524365332
0,056015537795216
0,0528552855827128
0,057142091253308
0,0565222880030114
0,0561504451732318
0,0534319953177945
0,057314086192761
0,0570283619705666
0,0565364616049994
0,0566033106652805
0,0552819125834593
0,0561197002900168
0,0562649892455664
0,0540800780587762
0,0566840751822838
0,060693736003471
0,0569482168496985
0,0566187981689362
0,0578046659096834
0,0555505311355646
0,0548101299468889
0,0574025756505705
0,0572460151014896
0,0549127208196619
0,0567511716756069
0,0553841879884855
0,0561574505782091
0,0564132550246554
0,058638009747639
0,0578730829115184
0,0576235609580969
0,0574124016195595
0,0563648765517128
0,0586175417912193
0,0587443254314947
0,0555561299246457
0,056579380191724
0,0564416997022765
0,0585069711441785
0,0590106235826093
0,0576078821809939
0,058010272015014
0,0578840476916111
0,0598786289214017
0,0567617494987701
0,0579357253731952
0,0570191184885147
0,058077036928569
0,0604386219534379
0,0616946078509374
0,0579996833191685
0,0607184692467651
0,0607825769766536
0,0594438288342136
0,0599378356526596
0,0606863261953197
0,0584207563388729
0,0590783960010595
0,0573675231249843
0,0612822933395635
0,0602062856568869
0,0632295771024575
0,0601755424133566
0,0617004082757111
0,0623610056035103
0,0639433426256839
0,0627683365442283
0,0660222053206212
0,0624206072763702
0,0658569682735133
0,0646801920931069
0,0669281247701229
0,0613023739028335
0,0649264700455902
0,0625212055902568
0,0739384632826755
0,0718148043214376
0,0734259532934538
0,0669918962323461
0,07322641538905
0,0701956194434587
0,0700227547002009
0,0706963541247963
0,0727633619304315
0,0625456599998578
0,0723470520714599
0,0709445856306179
0,0718729035876876
0,0682829874672744
0,0693282874527302
0,0662955387556493
0,0678417994286315
0,0640626145438441
0,0734156816951616
0,0676231561010097
0,0703866581029107
0,0626719078039268
0,0699666715374867
0,0620210122552464
0,073775012327116
0,0609368935951702
0,0774521080776763
0,0658708783736442
0,0766471108088359
0,0623150090900288
0,0796055814491787
0,0589192009272556
0,077849315767021
0,0552117499169985
0,082201792149448
0,0522495926231604
0,0849021197321434
0,059044083305685
0,0867281791358534
0,060095030753717
0,086121468662297
0,0501983770943249
0,0873288037692994
0,0538347963876544
0,0915263765572223
0,0525523070956887
0,0855359732958933
0,0497228913343515
0,0893606409423577
0,0600373473651601
0,080994922280789
0,0532569517912727
0,082202113636688
0,0709131426819512
0,0717148956047901
0,077287898225208
0,0642259275679355
0,0772851965347658
0,0593034853533175
0,0865700393483907
0,0575410344439948
0,0862574123072206
0,0553203179425037
0,08040429963142
0,0609834208856142
0,0775340283119231
0,068909082261381
0,0755894095486513
0,0702239020307715
0,0725433419219682
0,0700887150141535
0,07058936660723
0,071980195322089
0,072726185203704
0,066625211522838
0,0733858250335282
0,0683044567909905
0,0754526013423604
0,0683710410360439
0,0721954938916609
0,0678490737535983
0,074927900636385
0,0703329936124676
0,0723030935516186
0,0692807534227655
0,0695507213363426
0,0691803752666178
0,0720923823507611
0,0694640317038492
0,0722069550664467
0,0698617788544106
0,0739994164354326
0,0706643755123367
0,0714217747136898
0,0725479175066809
0,0754072551519892
0,0719725567276842
0,0744134803593851
0,072036477895085
0,0755171752159975
0,0730233091002814
0,0760325719081048
0,071632463349238
0,0759685821523723
0,0722632225154653
0,0750832563452499
0,0727942491381778
0,0796298526489597
0,0736362409660964
0,0761328260160424
0,076451991436865
0,0781968681114024
0,0711412008973228
0,0769002419443297
0,0739560521860488
0,0779008174490822
0,075437396628595
0,0776961711277197
0,0746209472680525
0,0766060344441925
0,0779692838167908
0,078665754620627
0,0756224280424705
0,0800441932519515
0,0761148477816006
0,0779856369257114
0,0770029582390712
0,0807054796812429
0,0761839687726245
0,0784730395222106
0,0787500555952403
0,0802694558845791
0,0770566965210151
0,0799269184961065
0,0788834135100476
0,0806849202233413
0,0779963591476979
0,079253625142962
0,0806695006836052
0,076720417316316
0,079121862240572
0,0810363301088475
0,0765557559238379
0,0809099700058619
0,0804197252270204
0,0810720059481058
0,0793327357575411
0,0809950312249258
0,0806669693736222
0,0843163327894871
0,0791591024477782
0,0822705338309399
0,0818746416896917
0,0832331888873126
0,0815491286108749
0,0843365587376466
0,0797999546915389
0,0825154970732894
0,0842552887260231
0,084226749026535
0,0837097749739464
0,0859720974884916
0,0821926514719339
0,0852935218342648
0,0840923104908257
0,0843050723841159
0,0852525746640164
0,0860207077367403
0,0831736602400974
0,0858424751810427
0,0875512560771713
0,0855302985439833
0,0851509418388762
0,0851039655293573
0,086265698887039
0,0834086167746222
0,0846039460175932
0,0853606265596844
0,0880573373574398
0,0897569206078318
0,0878184859493673
0,0874629238431064
0,0867177536296566
0,0870689710554423
0,0864658305764655
0,0877040959842255
0,0855092110715256
0,0899179364797127
0,0889427735924293
0,0899147728814255
0,0915292805018761
0,0891383787344995
0,0882802712497002
0,0890247482973852
0,0879100759347959
0,0902490666702436
0,0913417039893687
0,0898033072190856
0,0900484736818481
0,0910606042158054
0,0907255102044075
0,0896051437491185
0,0911290809359003
0,0895864012740054
0,0910326825232662
0,0908832408687474
0,0905047318096037
0,0923547751389235
0,0902694924839239
0,0933515153090003
0,0910664195708796
0,0889568976773469
0,0963340325593917
0,0955800582547524
0,091786041112212
0,0908884909444272
0,0914032506589295
0,0935989686042867
0,0934628306179703
0,0918666950221909
0,0947196327611253
0,0923036630882155
0,0965832164428272
0,0946295302221265
0,0937405176022263
0,0952143438844204
0,0943137025978025
0,0930866395666818
0,096812942566933
0,0945754092715423
0,0934839579871549
0,0940322038913188
0,0950726893475792
0,0958778361540637
0,095677538633841
0,0946767051278049
0,094222409380667
0,094971591370806
0,093826968082924
0,0958821068921753
0,0974748806842493
0,0978318296902349
0,0965746814837928
0,0940950530682204
0,0967507464000444
0,0974352186393416
0,0955769662060006
0,0946262876684635
0,0951794337561544
0,0986240738328742
0,0964383287009648
0,0983142348833754
0,095793568702844
0,0989918229105158
0,098482974276688
0,0959694350934692
0,0973662315204064
0,0959340293751725
0,0968241598982411
0,0969842957082305
0,0959536003121022
0,0971754179617892
0,095140995043889
0,0968095753781769
0,0978690839634342
0,097568845951597
0,0961940385327974
0,0975476096659379
0,097244987555032
0,0967691501936616
0,0970973835436501
0,0978040413572504
0,0991931542150047
0,0992112844220383
0,0986668746929936
0,0955867049292591
0,0958721595069567
0,100288753235986
0,0968292700935693
0,0973797074811477
0,0986667560302816
0,0981383672535432
0,0982608443196994
0,0973975130728514
0,0962688924112477
0,0962366927303444
0,0974238572518317
0,0989382666159278
0,0950831558078613
0,0975822396477432
0,0978920612807636
0,0964679206603807
0,0957712535113071
0,0984713485608877
0,0976852520181543
0,0971218515931095
0,0992757507041866
0,0945646708404869
0,098441391983991
0,0953948720391322
0,0955901274024046
0,0995985043284118
0,0971923417694223
0,0965390143819551
0,0964595580846686
0,0969136319927508
0,0957195851939832
0,0976757144901488
0,09522401131522
0,0981457157788973
0,0945311653724867
0,0936092120030071
0,0953894890720947
0,0945747207496934
0,0946905899606552
0,0936745368077809
0,0947540827847135
0,0940831961657212
0,0941671425269899
0,0923945742088814
0,0974088028789072
0,0947072845122999
0,0956204289573157
0,0953156976415931
0,0942145757407118
0,0933003691865672
0,0934611902742752
0,0934987125740369
0,0947874969837493
0,0919165056704562
0,0951033967989161
0,0912996305633401
0,0926682037002376
0,0933055097639961
0,092722932372804
0,0924069745461654
0,0924835208382247
0,0921624611209379
0,0909996483523453
0,0924470872690715
0,0930428671165175
0,0894490767068992
0,0938947681402046
0,0896636191292374
0,0897034505622358
0,0920042338680975
0,0875362437301024
0,0903221465900986
0,0899762759967865
0,0902903187979399
0,0892620472286522
0,0905918699166353
0,0903192150187872
0,0903997256201801
0,0906117260331125
0,091688900023787
0,0899841797804499
0,0891710936701157
0,0874763917710174
0,0926489280776059
0,0869481993172278
0,0863867564619223
0,0877484112533455
0,086603837711198
0,0900277066999765
0,0856847731265074
0,0864363978313503
0,0855651362756627
0,0896196009886757
0,0856061720793652
0,0851521739061749
0,0873249551660115
0,0847425311035815
0,0859551360013991
0,0869160749438078
0,0857742290545021
0,0860761822127823
0,0859645082500192
0,0860001409494146
0,0857611304873546
0,0862034281106001
0,0816058299205697
0,0851515760550466
0,0838489662785127
0,0840885377698887
0,0817816101648441
0,08221662840757
0,083921915959565
0,0823128347116552
0,0809780199328441
0,0827986882049288
0,0798509095836094
0,081613247693327
0,0810805044043965
0,0817865059440062
0,0789428883225527
0,082616100869965
0,0814555778966204
0,0809985319770068
0,0817961114231771
0,080755981395004
0,0789842256845769
0,0830152349229396
0,0752548209499481
0,0813204865436904
0,0789265179445622
0,0805566595209205
0,0795309945793169
0,079612233357357
0,0790968714819369
0,0772268980794815
0,076283720156057
0,0769954205791207
0,079216426257477
0,0768088561997099
0,0770737606745733
0,0764336551664343
0,0765628927458068
0,0782262784610251
0,0756517045117375
0,0723378168823743
0,0764468582368982
0,0781212521962518
0,0755915430659648
0,0756496624671576
0,0769034404518038
0,075178168969636
0,0739620540335888
0,0750716818082492
0,0726930348901744
0,0743783134403695
0,0773121023971545
0,0714923958778947
0,0760133353669075
0,072510989653735
0,0743232263962408
0,0720778554737931
0,0731160014907474
0,0712227320749133
0,0711275054539022
0,0714601066605727
0,0707271117537791
0,0717590007814744
0,0708379063574956
0,0733555065308652
0,0718952917491538
0,0721226774111586
0,0709210129021745
0,0694734407445874
0,0712178727101925
0,0675309806398136
0,0704657941072167
0,0692123364211036
0,0719095729896192
0,06704359007083
0,0713390453489642
0,0678053266914304
0,0732718288322112
0,0739999977447698
0,0680142613043874
0,0711130625693692
0,0673668573259258
0,0697512363785683
0,0694816242677513
0,0705173714154067
0,066430766189547
0,0692781476480462
0,0666738250655684
0,0701105927577172
0,0685492612999004
0,0684780078249295
0,0639069168811388
0,0692467257815227
0,0680220731195716
0,0682822090467388
0,0643506181453652
0,0690572775346485
0,0652886991624116
0,0697154934390768
0,0690704360396671
0,0658289050494886
0,0675626515670469
0,0667504131221429
0,0638063679687764
0,0752135881213293
0,0615996022419079
0,0695699031082601
0,0608044134291183
0,0656732713042384
0,0634061447164981
0,0682747399967322
0,0634435385759951
0,0684113617672691
0,0644210984116913
0,0633768036035732
0,0671164247178893
0,0656558504460722
0,0666744889341446
0,0646690023743114
0,0668943754487914
0,0665379588830712
0,0635070828443067
0,0648677145449108
0,0638015767295752
0,0644934038018841
0,0624799056926746
0,0665187889974922
0,0599045054288388
0,0662022123270859
0,0618174651804989
0,064270826539106
0,0628008086770111
0,0650928736424953
0,0611072724451872
0,0670502426203791
0,0676936513547385
0,0623937737033643
0,065681280003857
0,0591326915603561
0,0635865398480447
0,0619520631763617
0,0631673240964291
0,0616248251797958
0,0624150373407058
0,0602016456375358
0,0632057274480834
0,0621921318994483
0,0602748766584865
0,0635234041738211
0,0631211662438231
0,0624859850036933
0,0647308583697154
0,0634301073330691
0,0600067851953401
0,0662817764251394
0,0613085958679603
0,0684651182855425
0,0645603462411013
0,0636561926160276
0,0616675858109865
0,0618049082763155
0,0600863634914624
0,0630181760933424
0,061506086387508
0,0616614454859082
0,0634840109654882
0,0601244330627564
0,0622719316311122
0,0652187598489011
0,0619354116882321
0,0629168329073714
0,0618211148920116
0,061521461842997
0,0611740203447569
0,0626550086364693
0,064999886932632
0,0599845689959737
0,0647449121381326
0,0573751923266119
0,065784219834095
0,0578916609236074
0,0654928866553096
0,0534058660115065
0,082116488242076
0,0637608798228665
0,062199964868837
0,0648779972398404
0,0618601913155631
0,0642898562258587
0,0575662751173048
0,0624537195223926
0,0653929769645958
0,062052500013726
0,0637567529795931
0,063072389423492
0,0634410218846077
0,0649782776747953
0,0644894548408002
0,0662513970346434
0,0662155111468334
0,0612594178525519
0,0685389158939075
0,0607679473017311
0,0629850661128043
0,0712047798231048
0,0611477572785168
0,0713440474335238
0,0625837094272414
0,0668262658483899
0,063111127646481
0,064010936296092
0,0649188995951202
0,0688186446829142
0,0634932681507771
0,0649217239820164
0,0648849625133461
0,0618237815350121
0,0666428855304616
0,0653337898808606
0,0696093669600505
0,0683595257525394
0,0625347000634468
0,0671948539774969
0,0653178187323127
0,066760435686513
0,0677041817335503
0,067258088321095
0,0695308336775166
0,0732300234127534
0,0691746037709025
0,0684075889439395
0,0770821775830781
0,0708093715265919
0,0651090018738881
0,0725828627605996
0,0683915000972125
0,0749012739442784
0,0665532729416202
0,0753781546631941
0,0742459342143858
0,0663654154551292
0,0815529804073315
0,0654836506546497
0,0785011687921929
0,0689369506647537
0,0784919682895194
0,0652096310704925
0,080253094531951
0,0664715638725544
0,0780574817173207
0,0703120335762209
0,0809223573826701
0,0731092830260658
0,0771805037608368
0,0765214528781447
0,0778537714492119
0,0743728346594684
0,0811113606175076
0,078888642711269
0,0741018379839099
0,0942700431091374
0,077347588066561
0,0814634902878317
0,0803329996215368
0,0780003926370861
0,0981448583286784
0,0771509344174153
0,0885345288714297
0,0771484595470494
0,0844010011282137
0,083317763480006
0,081143280018447
0,0954913655982181
0,0839137323615317
0,0837907068723695
0,0899792036085422
0,0843467680810043
0,101862480376838
0,0893528266391924
0,0915222074479729
0,0891938510807758
0,0968916409880434
0,0850608878946663
0,113830427419383
0,0941202365311202
0,0997752337412991
0,108585822818638
0,0965609128161697
0,106366351498062
0,0978160838387501
0,102310215738106
0,103861694287394
0,110297280171921
0,103742675837304
0,104039108246712
0,108931565240977
0,120146502730451
0,101342556632048
0,118159177424367
0,110886686020267
0,121500910021981
0,12350054492073
0,134293009990579
0,117186028580328
0,121217378257226
0,117841894327036
0,137203832335177
0,121849201716032
0,125659655838814
0,125024515284635
0,129609451919187
0,132953352386323
0,133978885204724
0,141117453796057
0,135637953545424
0,139066300591273
0,143214445604633
0,142980456495722
0,155293278055049
0,146672982963363
0,167159955916908
0,148069671422412
0,175118181331126
0,153887779725024
0,16237894036595
0,163642125505883
0,167511627390308
0,174140456532421
0,172338672669505
0,17157169353555
0,174688027131325
0,189283558865243
0,18898906059174
0,179789470786575
0,203209706073847
0,186893903959683
0,208775730103068
0,182548080238487
0,303916898519667
0,201102071171003
0,220278663363152
0,214237585129824
0,220858554702398
0,261657932725357
0,228768710808008
0,232984196193292
0,241225059580405
0,239775398015186
0,245246461114664
0,248980992599803
0,259032982329057
0,261094471364315
0,266826079115529
0,265189706817445
0,283187718893274
0,297515654484611
0,294456946001273
0,292045813796524
0,2921970410452
0,302845568655014
0,308342794838059
0,303376906439385
0,312424294639702
0,313676890523231
0,319201735422388
0,366104188016219
0,323618107412424
0,341690111252257
0,337562949609585
0,359214857757745
0,336180491110844
0,379416718919827
0,37988818932912
0,367606882728013
0,378258228831356
0,373817423185123
0,393389379097193
0,386313440377307
0,416068609581749
0,404745747744414
0,402418683544768
0,413810847673242
0,420171389787571
0,423993802423187
0,423796943436679
0,436207374834645
0,43720663203001
0,46683758273962
0,46030518351934
0,530578662374791
0,478695516049751
0,446232210434735
0,46148991788777
0,461145664879161
0,497239719356804
0,473925574264875
0,501419641761171
0,499638704493562
0,478596067053543
0,486019987925947
0,488523346414395
0,500672454908471
0,496223515307055
0,506054099284783
0,492159268091538
0,513033499620951
0,513106447044678
0,502476389584056
0,549571365685114
0,489242560775209
0,50439627828853
0,497552281071279
0,506354288298745
0,495889354756182
0,50168984366934
0,48891009914374
0,516984601830535
0,478600953244392
0,495021342941
0,48048394401325
0,490994497962371
0,476593559629132
0,462938175597941
0,471603898061486
0,452437994708843
0,445746864444595
0,45121374420005
0,455520470449155
0,483360240600723
0,425877821768796
0,429207330689185
0,419600125024311
0,420833125891533
0,414138191814077
0,405705922780682
0,392601993210975
0,398508626965697
0,378721263374858
0,385137546821833
0,37714599957614
0,368170476807517
0,359851571110411
0,365798261414476
0,351577158089288
0,347608716241506
0,347140322484415
0,337239071654708
0,333253253208155
0,329575368426789
0,325156238063554
0,319188767155811
0,316273522667643
0,319385196307982
0,308350280675761
0,304396270779414
0,302472046371238
0,30283041549081
0,295428887489135
0,292238312503416
0,28692008978445
0,2834483058535
0,278691929706832
0,276436665496198
0,275700648307761
0,271812363158366
0,27002849927125
0,264317495919893
0,263831288667883
0,255346200719908
0,260311357207533
0,25767386437941
0,263861235963554
0,262538542454397
0,241800982445131
0,254273481255807
0,23961699574021
0,245707083575009
0,236436369477801
0,261186300774388
0,250977956658294
0,234786090551563
0,230283838637757
0,23099293259927
0,230182639180184
0,235907166893498
0,22172756859562
0,230718618274476
0,2209596238218
0,234495958842968
0,256989310847266
0,214796540206628
0,247495654263062
0,211880695893684
0,219417675294707
0,211528301211312
0,232098414455153
0,206334837099271
0,213450174942363
0,214370477296016
0,214427901559687
0,215899998116697
0,20570688499407
0,209565245363853
0,202072150099615
0,2078341497788
0,212415294843508
0,198981046630045
0,194941467542729
0,217201787956184
0,200699998100576
0,217986265915604
0,212376640598809
0,203854219627445
0,195293302531344
0,19305602372183
0,197298663010315
0,191723819685168
0,208572692284011
0,195795030742219
0,190726131337219
0,193446845707802
0,183305095364589
0,195416002945471
0,188179463492645
0,197080567974011
0,176324139592704
0,200539459601855
0,184563800663407
0,186519660592806
0,194377393056281
0,183670819056924
0,203257928817699
0,187270007878351
0,186302056860771
0,184151955333525
0,198666048021178
0,182991014718796
0,187731664366628
0,179095030650508
0,17308096671544
0,189091655938933
0,178843304453424
0,175116521407906
0,187136357838497
0,183817969499704
0,195490328952213
0,184493422660056
0,188330713764168
0,17353145154258
0,169656111903417
0,177235171658495
0,172126369352638
0,172044335787321
0,178604233709172
0,169509090816255
0,186234898264708
0,165913187275501
0,184075527226685
0,170442631579679
0,172950679363513
0,171379968928554
0,171115001095228
0,173209806033165
0,185009639404065
0,174172028537268
0,179217102205295
0,167935922934389
0,177105572580972
0,162251927799274
0,17247205924812
0,166138907334757
0,169634024655013
0,169703049042574
0,171565881472269
0,168492997914901
0,172234725295812
0,166227317819157
0,176946238907211
0,167375238383164
0,176828727166828
0,166511322819276
0,180007892561687
0,182425470482293
0,17271017517347
0,179062842289189
0,164067647839364
0,170182893216146
0,17237266310479
0,172599186967575
0,174794984128491
0,17000994138069
0,18278727520112
0,172327171761494
0,170264338830806
0,174400599138786
0,172633990196996
0,173895270419457
0,173457269769103
0,190050372595312
0,1723063329425
0,194188470104908
0,165300017944667
0,174740143813851
0,169205112943424
0,170323173885696
0,173079980992074
0,168498197359241
0,172927780399718
0,170271210528817
0,175970163839197
0,17216296944324
0,168192612279462
0,174658734954661
0,170545889001956
0,171688386069311
0,168459850779724
0,167877034450839
0,171730009814367
0,167355321217004
0,16947325515196
0,170099435442409
0,176443440809729
0,17406967743774
0,163271485421149
0,17391666091183
0,170031759796143
0,176724345673907
0,171062774583406
0,173352226343473
0,175847820083952
0,172320653145714
0,171536512818355
0,170927177614303
0,170841646570982
0,173010600587451
0,172455408299358
0,172113734722675
0,161813019596045
0,1796376910734
0,157575877490635
0,191082248817766
0,165964753893689
0,175329836716574
0,1692588905329
0,172031110695938
0,168779297184066
0,168520408524848
0,170070428468913
0,172413818322405
0,170062467261937
0,167360610658697
0,170171124492737
0,1677379823034
0,168858149909387
0,169624652448579
0,171311967157573
0,174701766980612
0,167210508236436
0,169233074881498
0,16451471852194
0,173737348849017
0,16758782025242
0,175900836108907
0,164735351222176
0,169965024984159
0,170391436119926
0,175290968147468
0,167122582336691
0,168419708208123
0,163916961513201
0,16665035094476
0,161314247260716
0,171696208065066
0,163614307204759
0,172783978119371
0,166913472189963
0,168139178815628
0,165954527923251
0,166129628958559
0,16487190925123
0,170037261923647
0,166872238753741
0,168027705631496
0,170492337013896
0,169958350788476
0,167878189745672
0,167583489263214
0,168009099073889
0,166823167868197
0,169777857201269
0,168273277887127
0,165538460362077
0,170231701430815
0,164205400801613
0,166838010466844
0,166238006031531
0,170171904875396
0,165421013710394
0,166357488852542
0,168666532118885
0,169120245467217
0,171213806387907
0,164959930730954
0,16848444445319
0,163972704413428
0,169435413574676
0,165134339208326
0,165584532748987
0,161991257620382
0,163695635191587
0,160881602941065
0,164029122858796
0,16128653488274
0,159079915953634
0,162125064977096
0,165507025869653
0,161456055860484
0,162278740163878
0,165032592811487
0,162291041152958
0,164390505164718
0,163589923161859
0,161141031114066
0,16583754939475
0,161550913379904
0,167533935505227
0,16252123549127
0,167731952821793
0,165062785705443
0,165223555810146
0,162764202593067
0,162515499416816
0,163272404730113
0,16252502023886
0,162597994619432
0,161146968670446
0,160991274309495
0,162888632232473
0,163023075960047
0,160434270666669
0,163738260499993
0,161667052245534
0,161515438313273
0,162352253279679
0,163235469837918
0,157334701760373
0,165377154228184
0,163041578387758
0,163069916027299
0,161245982629014
0,160299364804455
0,162077111821064
0,161999711683269
0,161400121989545
0,162607847989679
0,162571461144742
0,160599616672629
0,160766918182784
0,161247043920952
0,162052588692051
0,160352039551884
0,159577631586908
0,162449603087391
0,159272253947724
0,161350662102303
0,163680184995262
0,162100441908475
0,15844453047656
0,16170416038271
0,158927540791093
0,16171919596962
0,16004819581982
0,157675170878747
0,159142665025497
0,159403945193248
0,159291202520606
0,159728247985516
0,158278095369265
0,157558263828197
0,158678527013707
0,158548998553244
0,156883522806933
0,159924390971083
0,159146709909223
0,15772832185562
0,15886452828716
0,158127367754468
0,157163295181097
0,159854151322684
0,159168104037751
0,157797326794183
0,156568767906019
0,15805669847976
0,158340254278294
0,160150182368171
0,161748596799255
0,160825848880992
0,159956556418077
0,159984843989662
0,159153411311161
0,161003240048868
0,159518105623859
0,157069952728567
0,156868362415755
0,159144228692117
0,158558208255682
0,158234913561461
0,161441786339205
0,161010617204965
0,161439942345622
0,161533602446055
0,159942638913078
0,158209686229457
0,158057787443463
0,157862522652197
0,159922778539969
0,157868784129445
0,159248881925068
0,16039208389856
0,157159983722561
0,161032375624019
0,160878192695352
0,158956601759177
0,159376711705813
0,159688159761906
0,158326689159847
0,160136655183261
0,15968471808843
0,159376704805079
0,160411287040925
0,155845259177929
0,157961704790544
0,159186528071888
0,157388217203263
0,158305571292036
0,157097532243977
0,157257190956443
0,157771355432545
0,157062653365349
0,158630481503537
0,158283010320307
0,157066776903122
0,158930323746704
0,15869481591844
0,156048004440548
0,157326637583713
0,158112335446852
0,158942091302183
0,159147240062986
0,15774298190654
0,157659850930354
0,157428564935663
0,155156754819833
0,156723679482178
0,156176267823098
0,157098394514237
0,157596136151269
0,157667941350019
0,154673251268815
0,156340176833011
0,155256428255846
0,155757865425135
0,153908558326314
0,156053211468898
0,155478613132322
0,154953566245273
0,155998089347195
0,156414409225464
0,154201792659861
0,154501537439678
0,153954565582469
0,155255003836334
0,153502735192078
0,15216054570376
0,155564679538231
0,155275541572765
0,155187265063884
0,153497263307811
0,154827694356614
0,154372180429932
0,15377300362464
0,153228227229362
0,152073098436809
0,15246807011382
0,152245568974733
0,153204443993478
0,15356763837272
0,152041640479927
0,153290306818839
0,152113237586306
0,153274656413065
0,150804546879975
0,154254942882187
0,153735217591948
0,152814713761704
0,152718664527919
0,154782340747465
0,152580991202076
0,15635866393161
0,154447973457633
0,155021589534381
0,155511868006369
0,155794194885278
0,156413774706025
0,157587524811217
0,159431478001046
0,159003819868038
0,159149892175967
0,159606906326369
0,163188778884391
0,162867570148803
0,161434475959312
0,164883424873308
0,164484889608178
0,16671853916287
0,166258880079364
0,169593425549517
0,16647458530582
0,170027316073729
0,169418970982001
0,167829835282482
0,169622201864873
0,170224484477903
0,168921053591302
0,169980438108882
0,171085311302207
0,169438885715599
0,169936033880806
0,168242477190968
0,169987032808585
0,167760028137799
0,168330710414616
0,167148528189973
0,167509867231478
0,167833772196156
0,167496881307047
0,168689894746057
0,169337163258345
0,167069645981692
0,169718106047344
0,168608033074429
0,167890409203391
0,168662717648113
0,168308364372834
0,167963585500095
0,168726404066396
0,169186316451411
0,170275675430087
0,169704026457006
0,170990092670705
0,170825413083825
0,171601850103174
0,172798893028971
0,173848711925284
0,176520314111236
0,174669732084932
0,177058823357468
0,177363718834724
0,178887163265418
0,178236068403756
0,178664744265983
0,180598545994573
0,17963501334572
0,179970288283218
0,179542432975416
0,17716139145125
0,17958312927824
0,178744224955813
0,178570736787444
0,178516150932143
0,178466475142888
0,178181154560155
0,178594575049169
0,178599857349139
0,178910875855336
0,177272876362443
0,177835704978035
0,177532287715885
0,18030369011707
0,179680610226004
0,182053164561637
0,183815022983914
0,182136138088664
0,183827275555295
0,186277766670549
0,185950705660462
0,184832936825707
0,187097596117708
0,188062950642558
0,19016781037211
0,189334008618881
0,190582198729428
0,192460383910029
0,190945967555448
0,19157400938204
0,196437811295748
0,195596393050554
0,195693409485704
0,199068556458077
0,197249990227946
0,198977560839669
0,202886110469119
0,204772273408075
0,205562614971339
0,207388073166315
0,207120956408312
0,208825430078333
0,209481871892686
0,210461660303573
0,209187607222686
0,210909926588887
0,212424500608231
0,208911561834644
0,209298596602678
0,208256898031934
0,20805584224946
0,205968003577939
0,207134031578518
0,204540682378834
0,20343401760385
0,201628426061084
0,201251391896439
0,204833799202241
0,199747124325387
0,202420300110077
0,201768220288853
0,202429778609202
0,202270938277043
0,203176391847422
0,203551877901348
0,202476775467244
0,202946146060636
0,204314901123627
0,203974335980149
0,204129265715837
0,205119435110138
0,205573225840342
0,208879879042087
0,208183825238374
0,209723830622649
0,207884891201834
0,208074165416151
0,208989951282763
0,209604867539489
0,207613248058246
0,2085296357193
0,212107511123323
0,212053766339312
0,211054642388073
0,2091279662154
0,208101825330954
0,210619135235469
0,208555144969669
0,210752034743501
0,20995787729333
0,210250888251839
0,208291948931173
0,208487840975047
0,206517547405508
0,209860478026293
0,205953029646849
0,208430039877264
0,207731394850178
0,208449653455993
0,205007639842911
0,206864367910837
0,205102813232113
0,206868286015695
0,202746447096649
0,205690612657495
0,203614045868269
0,201786641234642
0,202239190005558
0,197500441047772
0,197095318518088
0,194851309491909
0,194230056809256
0,192140759438938
0,190372121756214
0,188417465446107
0,189463533134924
0,191063360185112
0,186821561628722
0,188959612869345
0,187700569885586
0,187723823948216
0,185442371875923
0,185908306717638
0,189842303887498
0,18739534720396
0,192202175580806
0,189059780362163
0,190751360747042
0,190260225223787
0,190771048444007
0,189732832350187
0,190597808871371
0,19110553054189
0,1908018551489
0,188819594158186
0,191787542447274
0,190507612233738
0,191947561743711
0,190338278326926
0,188352727701014
0,189472551354552
0,187939755160564
0,187530936846522
0,18943170164189
0,189372568719062
0,187761530669711
0,188203082821407
0,187233877084181
0,188112938386917
0,19001045811851
0,188911831680166
0,190891461925837
0,189114181768146
0,189279667384336
0,190589212373113
0,190286125689073
0,189170709407347
0,191697526207176
0,18891511685544
0,190278284355874
0,190973093556614
0,1901292262518
0,18981282641141
0,193397885997929
0,190595667353706
0,192275041778696
0,195329076416863
0,196565378526191
0,197811186008693
0,197984686269604
0,196938195911432
0,198714027743903
0,199426822440816
0,199860439997368
0,204144198162272
0,204500769297858
0,201241430033718
0,202518256830794
0,202507005296152
0,204140787887163
0,202856823332775
0,207911423550259
0,206869794971225
0,2078265678542
0,208970660202679
0,215658111511249
0,211118150894619
0,212530331361995
0,213786619488038
0,21413435053063
0,21685885818742
0,218996255915894
0,218408790213813
0,223868667319397
0,221858872066221
0,224204009859926
0,220418656694819
0,224033016772468
0,222978672344158
0,226805267615996
0,228808058240557
0,229765052624398
0,226888261936781
0,229485836286247
0,231462047078193
0,236264647643889
0,233802306301277
0,235874054702887
0,240436037444886
0,233776809811703
0,24620766203425
0,243193887213556
0,24187510206611
0,24410631051446
0,246115836904984
0,243851154517006
0,249435373990992
0,252748354006218
0,252406631237757
0,255622217969325
0,257592279640311
0,255564471940448
0,258739109515136
0,26523703462129
0,256898967140177
0,265130254634872
0,264879704362975
0,274896251965248
0,271520503683787
0,266109030951436
0,274199038916927
0,274910906713828
0,278639254487639
0,282424172912402
0,277004009009643
0,284208948615701
0,283602893197199
0,288147224326778
0,286337336946031
0,287382727001409
0,290821960543548
0,29631219977051
0,295104658863979
0,299512665633997
0,298289016279878
0,298915433306013
0,310116144973166
0,304087230332338
0,303766820285614
0,314276128850799
0,310072057618663
0,311404250800405
0,311054508075846
0,319890445237848
0,318263914561514
0,326215211619407
0,326287359127531
0,328567850775875
0,328908854748838
0,326349440007917
0,322828769428324
0,337741151774546
0,336632332701498
0,342782741745829
0,34828830611744
0,344127668220177
0,343266220732224
0,344763955444109
0,351007988359204
0,361676189593613
0,353526999106667
0,359709961797963
0,348712175745625
0,36433642977718
0,358076094062923
0,356677296463918
0,364881039697059
0,37427272115718
0,374038686213303
0,372547391248663
0,384005450312152
0,38034331436209
0,380928860071415
0,38217504059431
0,384455695787165
0,390359551473201
0,391200968709516
0,402682450721955
0,399129794228504
0,41143941508994
0,404338332350343
0,411225299596979
0,405148736373252
0,410836009156637
0,408566050244351
0,413422882484226
0,407350551268811
0,415959354683017
0,429161411423215
0,432294123401155
0,418953132391373
0,437157885462331
0,442533732099238
0,429469270771196
0,426328175437696
0,441969905375266
0,438810734590999
0,444407821532212
0,456505904509676
0,46666439311656
0,454998039793119
0,448561048732734
0,46487725459697
0,464207803976655
0,459906277185532
0,48207206395157
0,470384942861765
0,47777989275352
0,484805373579653
0,484990096763076
0,480897226925483
0,495136513234149
0,492452716634182
0,506864441480782
0,489301997646975
0,493779418641761
0,493433519706888
0,48722546611751
0,486454717145232
0,520630380031971
0,516867935588693
0,519979178983656
0,516200433132877
0,517422948522015
0,525442194222637
0,534145603970238
0,521187147722333
0,533523132996243
0,536441683754582
0,536140109426778
0,542302416353025
0,552117952233902
0,540553950635384
0,55882186969113
0,538540118835396
0,55735603639853
0,54907026938136
0,541557321119812
0,55069512514235
0,58862491084861
0,561951719685202
0,573122404658946
0,57589133878061
0,572169162569734
0,596286188792916
0,578955622834391
0,5777728893667
0,623391582565735
0,609060114968982
0,617606378575651
0,598119925106552
0,58567064233347
0,612316454852004
0,611504400004614
0,596201420040279
0,635427547016932
0,596515955426667
0,613009933692222
0,598648763526759
0,638882385112743
0,621189183553103
0,64438721886023
0,657661241097109
0,64319243155678
0,671836547885294
0,661219292082853
0,634020081585722
0,64967105148144
0,661212442868304
0,632152371377575
0,63985207044609
0,733657123791485
0,662797438672078
0,707675088662024
0,650940798400359
0,658736725546732
0,659834212075464
0,697162661887754
0,703403620568083
0,744526609800064
0,694099096873454
0,645425900225163
0,647057694789395
0,672695470905546
0,673424308910113
0,658496204412959
0,730685888873435
0,703353268531546
0,70565146484589
0,762198295334161
0,716749663948811
0,750561220608218
0,69856519750478
0,722263450666181
0,806868089502507
0,740387163366054
0,741544907298951
0,747527988588058
0,728596070163766
0,772180061108217
0,74980472458506
0,723863467876013
0,746463602391314
0,851607918709884
0,750871370318011
0,760303196715707
0,781383206040698
0,803929646971423
0,751870131353082
0,795090927302286
0,826214242541347
0,843877766179145
0,735446286294465
0,793984914011883
0,767587466298793
0,821705643392317
0,697123434976815
0,753895818615944
0,815138589976632
0,793304150522716
0,776985511212577
0,812964688880495
0,801882650592996
0,85527603739135
0,868869012547919
0,838093927852064
0,827411115236221
1,02098557616808
0,855257907887729
0,9094997645719
0,905915700483206
0,96662334524591
0,811513342150696
0,895667571970748
0,973424167552889
0,995944090872517
0,83381757051053
0,85478339475135
0,784170531674196
0,893814765136124
0,838702332476701
0,894480680685472
0,861934612332701
0,915879175519389
0,852116880669124
0,912259621021932
0,907624510295773
0,91238678151784
0,968214440632276
0,953506505298619
0,900845763906941
0,94230913366828
0,795851536450306
0,963089297032144
0,843724428716983
0,997569104787558
1,12777242331834
0,99995538832758
0,94467205366552
0,991872169990123
1,16416239764782
0,933454773246947
0,88966710486919
0,907955833368065
1,02544282102669
1,05731033392267
1,07631129319602
1,31629966785136
1,60762629961587
1,5074975193421
0,794707330498961
0,861933084372644
0,620749960639121
1,09346702678946
0,845273903037309
0,938722079343095
0,983698727022284
0,711699671616252
0,876823409677053
1,48970281709792
1,44974380372628
5
5
1,25680505290995
0,649501478239174
0,948579856201256
0,596191814647727
0,863544795648433
1,34914231586071
0,540340963567473
0,694658059691304
