3596
4000,36533379555
650,420452594757
1
2
2
0,0206559906666495
0,0252642885898754
0,0198567442392111
0,0213901746833063
0,0302429333197733
0,0216008272826957
0,0203485725071932
0,0136655816310374
0,0238449144324315
0,0228229242599006
0,0274177154006687
0,0175112198631746
0,0231664135022857
0,013904934306181
0,0208861000431863
0,00536197100386874
0,0260437705746572
0,0221309671180733
0,0288395157680543
0,0125896251750765
0,025140939237479
0,018566701068716
0,0283872950314068
0,0129989438681341
0,0308586235186747
0,00732475395516281
0,0276694005781986
0,0164476124049038
0,0285981138054988
0,0154900594963994
0,0231035805140259
0,0148015537172308
0,0265562001060902
0,0163208477747626
0,0240750872875574
0,0184583662403582
0,0273634240888587
0,0229879305018159
0,0177482711353394
0,0193508409527212
0,0245301722587098
0,00884888016000866
0,0274290265977295
0,0217524641140224
0,0268142869658109
0,0234171935823761
0,0317409988470777
0,0148870277050721
0,0309527827313007
0,0156342483272053
0,0215266591434463
0,0131617794574898
0,0314971729713215
0,00809646741819492
0,0279897367246915
0,0214652468752239
0,0181562545949347
0,0192787643881196
0,0279897959484551
0,0217756361579608
0,035466050415046
0,00662490119043607
0,031278097390814
0,0220987080919597
0,0262847940543837
0,0216549141569973
0,0213180836422599
0,0197720599785312
0,0253508929065425
0,0245776754652787
0,0195976442861175
0,0204115505374024
0,023365864521236
0,0245555955998357
0,0294964598759116
0,0113620341024395
0,0248290591768713
0,0173742991680386
0,0342661165582939
0,0278942371287682
0,027087468827264
0,0209438834960437
0,0228424952757875
0,0184768640340349
0,0359073217673417
0,010051469783859
0,0195954372430202
0,0362855585136495
0,0212523681614814
0,0190754715223705
0,023717669809472
0,0197427654294017
0,0266111262145846
0,0256818802724861
0,023297494966638
0,0182043950231355
0,0133767650931003
0,0225940606698595
0,0119243579798432
0,0268659111952762
0,0254758257921576
0,0210331966003913
0,0417720300474955
0,00640656301454138
0,0668747713313361
-0,00384677270415977
0,0532532426910394
0,0168379888256718
0,0273249662681718
0,0320031149127215
0,0197275058021137
0,0101538499712239
0,0239115661295082
0,0273896393988279
0,0223159502960872
0,0428928375424037
0,0140375538002083
0,0253277877767523
0,0279751975398656
0,0277800473294003
0,00892535521764981
0,03587420925182
0,0242532154923231
0,0146818953819402
0,0274932265196326
0,0207350992854744
0,0282468152901042
0,0180792271120757
0,0308386019087717
0,015672771160083
0,0307925177154802
0,0197937699321347
0,027492483320106
0,017481920381632
0,0420545394304025
0,0125590929171208
0,0325440443952025
0,0163665883313781
0,0402443995815641
0,0149946975000523
0,0312480338633928
0,0181487898879681
0,0310863160979425
0,0260935763143577
0,0376685713522154
0,0200980858126259
0,0259635609575068
0,0294332304545772
0,0213962302839978
0,0238048565760277
0,0301281362027484
0,0113323977258557
0,0385044860504848
0,0243894693562497
0,0217753718205489
0,0666088109449444
0,0121638948357345
0,022444840922282
0,0482496073377586
0,00704023300792528
0,0461590104244627
0,00258567738797936
0,0327538547125229
0,00398615114199609
0,0411408093274433
0,0083922824807174
0,0381092111923793
0,00970686975730702
0,0345788120949324
0,0124904488391145
0,0368420445085336
0,023884855852563
0,0377289543495036
0,0313660499136035
0,00908496228944403
0,0267094398122622
0,0277924862717857
0,0269940043582856
0,0224125029430328
0,0214635241664956
0,0350491696715562
0,0114579446564516
0,0371593445081016
0,023434043858622
0,0391764069795167
0,0175256258638206
0,0240482435128035
0,0212392350640638
0,0416026334869202
0,0166638738002468
0,0448097512911001
0,0177382666165866
0,0356757118910783
0,0106886711043806
0,0382902669977553
0,00325395768196838
0,0623823636113158
0,0129092258479519
0,0317972445555888
0,0195372138386497
0,036109226380319
0,0264285650062449
0,031938813705294
0,00955020250218701
0,0322580186447089
0,0119908657398583
0,0480903059476443
0,000520215239681329
0,0448041790744143
0,0123327132408169
0,0462778660237722
0,0178544163447211
0,0522836964200339
0,00797277157164275
0,0369591513319928
0,0271716304663577
0,0328313909034069
0,019460608138099
0,0400634793221777
0,0168508671914451
0,0397197884578371
0,0250329251267043
0,0357401363058633
0,0202166132986386
0,0346330128416356
0,0229852299524447
0,0422229077309621
0,0225245039473636
0,0422694693311233
0,0272688941633275
0,0333912696753071
0,0248277759673105
0,0336397646897384
0,0271316089721027
0,0312628169260902
0,0198055554908542
0,0465007224209941
0,0206595833989998
0,0417027207909244
0,0106638694971479
0,0367014674888144
0,0258035561131368
0,0347966634678007
0,0163079736735602
0,041585812703749
0,00608570745927049
0,0651915585073887
0,0123787563506881
0,0491526949504032
0,0143097262617196
0,0631806642986274
0,0230855843777375
0,0414741746746022
0,0247329645376361
0,0409333948339527
0,0263355483274646
0,0564791252759528
0,0336916404004005
0,0406331856050661
0,0253826743387429
0,0547601091036388
0,0258367168508786
0,0376000545746542
0,038577243840351
0,0409312996212648
0,0431308714575095
0,0284114822792372
0,0273593672240144
0,06440864368223
0,0169347665362588
0,0440647080225774
0,035017412963022
0,0475562086992777
0,0353089910829869
0,0288805400064195
0,0337763097023885
0,0493104865684566
0,0441871783211904
0,0434534357148588
0,0423879754819747
0,0466456606461535
0,0370497918849995
0,0622563941663219
0,00892617857644979
0,0732545438581499
0,0223012712865833
0,0803129098468161
0,0297607338072824
0,0554702067900804
0,03717716313453
0,050702098969436
0,0338727804426132
0,0611668692756069
0,0452622782398433
0,0552348035274801
0,045176275610864
0,0555085642830523
0,0586276180153758
0,0490965276963904
0,0430569705790258
0,0519368644540755
0,0501437583033475
0,046518297885149
0,0591403709315021
0,0519868074208851
0,0477071105821818
0,0578472190197723
0,0576541255159496
0,0931702986746148
0,0470537708883946
0,0659868017702764
0,0669542468381268
0,0621613781770772
0,0550164787577182
0,0694886201473631
0,0652192577415122
0,0687269993388678
0,0731724926422569
0,0729805197101078
0,0848491487136843
0,0772692371823533
0,0702269131599942
0,0786869926108199
0,0698618068959657
0,0831709915604028
0,0745139329585487
0,0874004022486832
0,0773018279331363
0,096124710422078
0,0891523596364904
0,106335911118697
0,0984601733246923
0,10002006506287
0,10256373917729
0,105809628342672
0,0890841962827321
0,11762391134556
0,0963863755399012
0,118173204748932
0,102501855342715
0,128460410543103
0,115336928204978
0,122533585588978
0,112145620869383
0,141586444942897
0,129043489805197
0,1793208212632
0,142320920492637
0,176677921817856
0,12294448084577
0,162600310697746
0,154033827180144
0,185881716106012
0,159842911717831
0,161915748418104
0,176344813943058
0,172247090441557
0,183901405462821
0,175017566533492
0,190265840362503
0,190193238927822
0,193226240353891
0,204298848968387
0,201678424584407
0,217729235630725
0,213257680930968
0,227728225052132
0,226491753597272
0,24234757269237
0,225244494959194
0,238449342086535
0,232606005255713
0,245665897699546
0,250397931258395
0,276799026166557
0,244735782158351
0,284737458408497
0,235160823855445
0,300259139705555
0,251019393449766
0,289282735980168
0,265418048159861
0,298951832821053
0,277701145600068
0,30089842730164
0,284260416800903
0,320333654362345
0,295115254583
0,324646006062561
0,301584459251964
0,329791326492758
0,305067933914051
0,345899777987411
0,327841553364668
0,347876845369261
0,320455308428896
0,38049265206061
0,352817604833304
0,363648025995018
0,336744743715457
0,359545644097146
0,354552091185803
0,36265172343396
0,370835358321207
0,363798947927578
0,379696370341234
0,415102902284782
0,405261151472491
0,405053634931373
0,372842234566801
0,396840325391057
0,375995708017435
0,424915051083983
0,40794529205248
0,424911787538914
0,413825622950776
0,405570014213979
0,394749290262691
0,454763344683347
0,431140946907165
0,430464947256972
0,442226683624703
0,431697785537243
0,427769232510363
0,448409083983105
0,43653565702522
0,461560296468782
0,451665507135299
0,466830118755742
0,452189818603962
0,473423095462426
0,458941346812316
0,491735954344813
0,447813380763564
0,492072421916626
0,485627222713589
0,499793160515572
0,467186670626059
0,503238462647564
0,482581265601363
0,523136764742521
0,538105848819236
0,510297417002307
0,490337641717734
0,489776497397467
0,511227694098457
0,541232723241486
0,514112550700428
0,531026810973317
0,528416470656519
0,554553299965007
0,552204269783537
0,543785848929352
0,543746657185018
0,576831151646752
0,552825825892988
0,586976486071569
0,570935302959576
0,595001611850163
0,549715448230357
0,575543690127771
0,577468472220359
0,592972095333025
0,588486654279096
0,606709081541739
0,573521012145542
0,592257317617806
0,561205018783897
0,583353633450305
0,617774226240572
0,620696700586974
0,61716039850643
0,623982693695357
0,615691942079663
0,665977405303256
0,604218741878106
0,669549897506287
0,650847529394521
0,662241920589612
0,617309849454221
0,681554770392948
0,667398373924205
0,65437399554878
0,676784328614993
0,701883271289367
0,680118582996569
0,704247881709174
0,654302241608345
0,724861405560242
0,66427684203802
0,692046472505777
0,687909822076211
0,72674078757058
0,729061488080901
0,731470155649121
0,681708557592336
0,751547211380099
0,748263857157225
0,7445930076151
0,72866754545384
0,751246725289471
0,747109003890399
0,794876016493529
0,727664780104485
0,757112397113392
0,759004038073133
0,79244151122167
0,778109899927091
0,802472160886759
0,771175576731165
0,784564209072065
0,796536497725339
0,80179982692053
0,773300043687636
0,82147868381158
0,825662028111853
0,808772779326794
0,786287621427837
0,826943423021056
0,750549083433835
0,854844772414594
0,823327993467208
0,829981610552447
0,833396378696972
0,836749346090058
0,859490168801986
0,86677723389248
0,84262259876252
0,890638424080466
0,845256718413888
0,858918333781624
0,859101089021758
0,872241897556877
0,904157992530227
0,927489930369428
0,875892952695656
0,929859579661303
0,917230326076864
0,95029747155522
0,958540627387861
0,952239142981522
0,925800506714752
0,978974632374119
0,921399345688974
0,919592201666008
0,899212496236891
0,974981086680001
0,934533824057372
0,89665583430736
0,892842982487224
0,980964200226781
0,988742285266463
1,00291854273384
0,909661239845428
0,953918747345421
1,04152329709181
0,973342403268116
0,955406783557555
1,00659384025673
0,97812767526758
1,0062809119359
0,958563214020147
1,0014951670909
1,04583933011589
1,04847648299528
0,988114424861506
1,05027103855543
1,05190577607741
1,00319916045138
1,07030412781482
1,10824696190946
1,02667480327354
1,04709480772762
1,123113009072
1,15600014253634
1,08398871198319
1,16373209661946
1,0979083317027
1,16295476750436
1,10183323367249
1,09721863860612
1,12465415557892
1,11086386616155
1,15378881135602
1,13193299607922
1,13483364783481
1,11276487257628
1,06430930284589
1,13138055619248
1,14104583581731
1,14164295886314
1,19078173614729
1,22564157453018
1,15881192694822
1,21316154893926
1,15960156068895
1,13689399172657
1,25815417071832
1,20715888493129
1,13161263403377
1,21662606392358
1,25342831347986
1,19215351268643
1,24270598617489
1,25214236454005
1,2757157035602
1,19190058012416
1,15045872792776
1,28704223914669
1,27171138430113
1,22528574473679
1,32715363340595
1,25571224585656
1,2452742569002
1,27944249070491
1,30016563168764
1,24073347432365
1,35976277865482
1,34383036400725
1,33599618975236
1,3129810010164
1,21595515109456
1,30208067962919
1,29824161591635
1,33171399586757
1,35820372607807
1,35622694915292
1,35415585632265
1,24313757055985
1,32093044240597
1,27773624072223
1,26384787366747
1,33592341241639
1,39688537327746
1,39468671769186
1,41450568932518
1,34747979444597
1,38385845465929
1,48667113276555
1,42046669410182
1,27878002308592
1,28526071927912
1,32754382422981
1,42793684325729
1,31802749796252
1,3870764008204
1,37412494702864
1,34789421620129
1,33787881282277
1,36001498530598
1,44001150210291
1,39989514041695
1,37617391251372
1,39234155806998
1,42905706540713
1,64871798376656
1,42789409211369
1,40564629839585
1,43361215899415
1,57988249556845
1,5889738410692
1,4227994355263
1,33332990016442
1,56928347714528
1,34615546265914
1,45814323288092
1,63064300350036
1,78767316103234
1,55112032985746
1,62312982625088
1,49194589031175
1,51074024814633
1,47196809591689
1,57048257970292
1,49605856945553
1,65324391483279
1,44489961602335
1,39773576529744
1,4857072397687
1,49805797393108
1,34154905145205
1,50897426375876
1,6463068591231
1,64777356396436
1,64028796724242
1,6089889989126
1,53049151027516
1,46128622525896
1,37845504032259
1,54172918518351
1,43638539594004
1,5338448659777
1,42241638391029
1,49842300114264
1,47946867374306
1,41035084729019
1,56474397721241
1,47057556797423
1,3879399464851
1,60956933589308
1,48168610499197
1,51110628549577
1,59752184289453
1,65587844331511
1,42623064218816
1,5033618949926
1,56441047786638
1,61972762965284
1,44825957208487
1,70057887087232
1,50456090370121
1,57941134804861
1,75887635402306
1,58876099380423
1,45665689980504
1,55686030565326
1,4385817287822
1,37751476224651
1,42151959463592
1,50102736609865
1,45175470820516
1,53403910517762
1,44809996187503
1,4657228635529
1,50807676169854
1,53372403334634
1,43278958375103
1,59230701225905
1,69109332652302
1,63910236461803
1,33405100847978
1,54419357890462
1,45950101114892
1,62902532675642
1,50629978637106
1,61492467441869
1,51776952621427
1,55495131289317
1,53983841667895
1,58391663143131
1,36165691942914
1,46507449829774
1,38958037081822
1,3840035807837
1,40531178093417
1,55546568160801
1,36263350932298
1,46060238460775
1,56273954202603
1,54015086198325
1,44725638266088
1,50637988003415
1,53654191325635
1,71284413484228
1,4637967705597
1,55597375764223
1,44900502078861
1,47890241505218
1,47245138557369
1,5521879368871
1,45394539137469
1,53643759134504
1,47888890851439
1,55147261763954
1,50944015108863
1,52899168985582
1,492538784069
1,55766069287329
1,50309012918388
1,53672508944373
1,35112858907763
1,49117557016984
1,47417935209748
1,52450094965797
1,39967566713576
1,48973839981202
1,4723307566633
1,66758007711859
1,44483003395177
1,48450388538884
1,45418984479631
1,51908986398767
1,43243999545019
1,48479027855376
1,48087131826303
1,86844504981406
1,40481833004915
1,4157718221027
1,5830061618823
1,5662872231318
1,39746890217255
1,40081802324587
1,36287220501809
1,49244234293784
1,47049578431556
1,48512251304413
1,4107090444758
1,4835247643757
1,44241636124879
1,45275847308923
1,43200042301635
1,63653417273983
1,45407027954315
1,66915307041486
1,39062645117859
1,49652821900489
1,52297839315143
1,59335954481361
1,46042121835703
1,4877619604503
1,59051095753446
1,51746598527154
1,46382905536297
1,52850413094014
1,43240156808245
1,52122461034622
1,47749694973518
1,43612050782317
1,35554354031526
1,48073660773139
1,43444461277433
1,59781345097808
1,4906730084419
1,45206759119806
1,48729371159341
1,53582437112651
1,33111397536893
1,3999931344908
1,34991317638568
1,51202808488374
1,37726811699259
1,43563029461179
1,45384237184771
1,4833243060567
1,46681326109325
1,43116608651586
1,34976321176913
1,47865530725111
1,43907310612943
1,38956398163857
1,41313887336644
1,39288845265358
1,37042336695957
1,46041601581246
1,39148351318429
1,48914235775244
1,50610146753679
1,40431319706113
1,40947816850621
1,37654166269074
1,29778011165111
1,42677745846012
1,45791033361644
1,38528636344575
1,3193852690729
1,37455172587354
1,33779396387407
1,40246288421992
1,33358476250903
1,36455751999878
1,28962815139245
1,37557714995603
1,30941179462675
1,35471280630963
1,25954665797841
1,27597485871072
1,27436722678637
1,32007207668638
1,20525494169757
1,27884596845142
1,27895562322885
1,3390661351015
1,24957287323352
1,33106375378266
1,25602200591425
1,19291186803013
1,24879290868943
1,25338998478361
1,21871535068231
1,26258453748929
1,15231391497312
1,21893420908043
1,19330191471749
1,21674521479572
1,14666642448763
1,18865789573377
1,16210405684709
1,23740130625949
1,18082308550686
1,18500129509745
1,11908806811714
1,20199256858405
1,09618081064212
1,1593439785963
1,10660765481572
1,15026821827959
1,1458123811099
1,22304929511661
1,07851792685316
1,13723047940754
1,09585587351698
1,13455845317877
1,07186389963149
1,07666300445668
1,06819156381
1,0831951785048
1,05197407689452
1,09450903657687
1,01655459191957
1,06759257981189
1,02034053461564
1,06448346381653
1,03222778756454
1,03514768558533
0,99417333884484
1,03465107469189
0,977456880763096
1,00371997444405
0,925361154781152
0,975549927212923
0,964966112105283
0,957661234909356
0,950963343335898
0,950466965365709
0,949486349460367
0,980225681677857
0,916458206803365
0,956405168903155
0,929351650810688
0,948469080967237
0,944643757130107
0,953855726969117
0,896578122342567
0,917152177607568
0,892851134721754
0,888569941349572
0,866332638418304
0,895351936722261
0,863048631859475
0,87038835830281
0,843672119796566
0,849598998859813
0,828523159136143
0,837727603566605
0,833550546808934
0,850624585320125
0,822102688724389
0,853511850279627
0,785030306406382
0,826086875606182
0,782776287312618
0,818119513438696
0,805249701384357
0,798106775740049
0,775236083418823
0,78446747157591
0,766609060521517
0,793616772628677
0,749140493766146
0,77218818230648
0,757282335683892
0,782489612742694
0,732451425667243
0,753201971225701
0,72734518368684
0,727227747906774
0,697381781593173
0,725843937829304
0,699219356863866
0,728885809848958
0,668925081767601
0,700482259874065
0,682163899952217
0,701829546575324
0,672661337283797
0,689071354566285
0,675314063158087
0,69132542385847
0,668322748866109
0,685031182695303
0,667481661027922
0,662418734385391
0,637637788097593
0,642784462786085
0,628359794021275
0,63895519357097
0,63123991934583
0,630629073128616
0,599677039189928
0,615663787214913
0,598473907685338
0,619184967403176
0,59358211826683
0,611471298220398
0,57581168667705
0,58605866885313
0,568162227856893
0,594354969486388
0,572278337580009
0,582916151397804
0,569034946952064
0,578394674500319
0,552197702132579
0,56860537908624
0,550440683003641
0,550009489698283
0,534845194292166
0,550466307422897
0,535201016975657
0,535998463688439
0,525864270891355
0,525164236957816
0,516266503737992
0,529173281640216
0,512964136199472
0,525795796506553
0,502364101809668
0,510301521811954
0,487603588346823
0,505325672326047
0,480288471112854
0,489626694642374
0,472860579062969
0,475608193759997
0,473656464865855
0,469820578480159
0,46598704648834
0,473996346222328
0,46899611926283
0,461638504412305
0,45638651985275
0,459301956358125
0,44592555066955
0,447248782200972
0,438396443788547
0,440357312658912
0,443815484533918
0,43868131988308
0,433409286056425
0,443747954605292
0,421321086297769
0,424847519742911
0,423146454839479
0,420175798617391
0,396940570122652
0,417216988050249
0,403065017420385
0,400138708705977
0,394065963608895
0,397719551141535
0,393892424516192
0,396550700437816
0,385083551699311
0,389674212131886
0,38670847033273
0,383907636494299
0,370251605601087
0,378867230108507
0,36745742066668
0,378522751055435
0,360598320949946
0,362629161533173
0,354559580286036
0,361036369022438
0,354994476246672
0,357488724876135
0,345831862082041
0,353170549110806
0,34321010233675
0,353607042145418
0,343026384626162
0,337740117671512
0,331316950146388
0,341068625125146
0,332750323332924
0,337341320892052
0,322438398042716
0,332610606697162
0,31772943560516
0,323464767766368
0,315123456156794
0,322551646468544
0,313644137347028
0,325398491322913
0,305817050791541
0,312145454227982
0,310031291087952
0,312114613114603
0,293746468282765
0,306900290534297
0,292221247853077
0,304070021704635
0,292109762166682
0,296242202916608
0,286969884360613
0,291928779767503
0,274789532797008
0,286603148125452
0,27534572013047
0,288472649395234
0,272101345353499
0,276288574360435
0,267727894530399
0,278727691193515
0,268659772329947
0,276949930499011
0,262712904948143
0,271874655908221
0,262496516650114
0,262257835156806
0,256324115665609
0,265861717869935
0,25517285633233
0,2622638917586
0,257308266253871
0,255910556982868
0,244309028416456
0,257634843701152
0,246642376768191
0,252497109621251
0,240166868688328
0,244484853752399
0,2380197268564
0,246686730191782
0,235404062775992
0,247255710523909
0,236896304284061
0,235098296393909
0,232823910851591
0,234491832878563
0,229050762903794
0,232879383926512
0,222496608752547
0,231779107892078
0,230264458751913
0,232243834565023
0,220104254979955
0,223220027221294
0,215408917947637
0,220920195270503
0,214951428888932
0,22035999950309
0,212232546364446
0,214796453564962
0,212546818710309
0,216596893393489
0,2110985545542
0,214078712745431
0,206772821000045
0,207899002512871
0,203514331897452
0,20419497062002
0,195147925796326
0,200137015425933
0,194653237672291
0,197386899970367
0,193856537596208
0,203414376126213
0,193078128225458
0,198475695911397
0,184640622233392
0,189082426144205
0,181131399411686
0,190727520084201
0,186401185849822
0,19375328949788
0,184974640305025
0,188779974158243
0,179644969513301
0,184339045647017
0,180347553719172
0,181860887682433
0,176327952237789
0,182947437584097
0,170828203653551
0,178464610867561
0,170390437008984
0,178059552978528
0,171024950781134
0,17542452250916
0,161378453573984
0,172103467737671
0,169257805971882
0,172100186023914
0,161102507836617
0,167917073077385
0,164936034265852
0,168236166437883
0,154694415080059
0,167599359379861
0,159189509096224
0,16154343141336
0,155937473550292
0,160960644984215
0,155406836898809
0,159779584133505
0,155093171090264
0,162173093546828
0,153316443298201
0,157628826329571
0,152500518873764
0,158423927355065
0,146836516799026
0,152014375339152
0,151354520989698
0,150410666035275
0,144779989964514
0,148955766817843
0,143233303634107
0,148568921581084
0,140272700047737
0,145212228323984
0,136416744236964
0,144493822140311
0,136528007896881
0,143312614896361
0,139835567182693
0,138961963313228
0,139087281744854
0,13947434785815
0,12750390849256
0,136763528100028
0,13028262514136
0,139440282507068
0,130228158954912
0,133723880953289
0,127201326185134
0,135154765780764
0,129019258330599
0,131685731880674
0,131655466768976
0,128327311855241
0,125245199359481
0,130246340445469
0,124711014184195
0,127063043549907
0,125220321479301
0,122432225048374
0,119775989474785
0,121617898064548
0,121720492066207
0,126635859987978
0,118968914620544
0,120482783736068
0,116628415673709
0,120448678884039
0,115755895979874
0,118585056106855
0,112981888800823
0,117949550578726
0,109704718902177
0,116295535630164
0,112141175973812
0,118505660548097
0,108199474657767
0,111334244110119
0,109868081008196
0,116430959000987
0,108783302970162
0,114556094275638
0,106062886280157
0,112914391877367
0,109072021037582
0,106147579200314
0,103601380734566
0,111823490161412
0,106655257681278
0,106427804695343
0,105416317110031
0,105107305845906
0,102524852591734
0,104251004065114
0,0966878216512207
0,100699048207738
0,103336240315971
0,108469967264624
0,0978127760348818
0,102927736618415
0,10185483065208
0,0990319745139055
0,0951124661925672
0,102409663161118
0,0917738313760422
0,0966743350973047
0,0980551553716999
0,10129552428906
0,0949501621569096
0,101321270396947
0,0935485080307909
0,0976248811413352
0,0914268663735678
0,0983440393673417
0,0967460776535873
0,0973887996496672
0,0949909713046276
0,094019981149849
0,0923197823934356
0,0942354356504836
0,0878771173516927
0,0903089958789871
0,0881187557444539
0,0911550397006683
0,085529105801841
0,0894932805494844
0,0886828391166564
0,094797968018265
0,0851160519445378
0,0915889281574934
0,0822994074020025
0,090543549892228
0,0830885417806279
0,0873199339009948
0,0846031686548546
0,0880799707434051
0,0844838197225597
0,0861922791408936
0,0802192628826286
0,0850093924509087
0,0831270351053922
0,0875244271678986
0,0822107649210014
0,0871553432098507
0,0828434331090462
0,086227199660209
0,0800519291026789
0,0819039155686144
0,080797671998358
0,0829874617220719
0,0779944794902862
0,0858503834147715
0,0763825888106821
0,0792535730296946
0,0809388256091944
0,0828004701198181
0,0788889236933394
0,0818383757296087
0,0771951918871413
0,0765529826389962
0,0774646434412534
0,0798730003518682
0,0731918204263717
0,078387911250959
0,0729702428867474
0,0782082892777626
0,0733534938828941
0,0739990084163786
0,0737448739835177
0,0803978190714151
0,071911316491609
0,0778578569843637
0,0767883175767347
0,077672979883892
0,0735726990659647
0,07568536001428
0,0734158234591279
0,0767235836727235
0,0716277021516717
0,0730358702556354
0,0725835549446592
0,0738823567335157
0,0696063863801747
0,0751224340207602
0,0690324107629498
0,0726556778611785
0,0712230240071925
0,0764632715594133
0,0694329560730031
0,0726693541192294
0,0729086709025564
0,0752275932446903
0,0691000902571854
0,074541958529907
0,0697807136322874
0,0724182256237498
0,070575883898766
0,0721732511487899
0,0685545197108629
0,0742737711960454
0,067081746247956
0,0713093110331436
0,0676341910498151
0,0706739293136784
0,0675276351748522
0,0737860291690738
0,0666856132415328
0,0713195182070662
0,0700584258019703
0,0717280348592786
0,0700591995984505
0,0722483498399518
0,0673706484673091
0,0741682016526061
0,0641365425056135
0,0695834726785617
0,0681573350841761
0,0703778644109592
0,066424325369861
0,06921001418539
0,0674516757341044
0,0667286552286269
0,0657548641625639
0,0720026518497974
0,0645732472559263
0,0676408458891416
0,0624724656399995
0,0703759882367224
0,063422515213677
0,0704818731873926
0,0617751064674004
0,0649249940904453
0,064278528945472
0,0649457838225734
0,0629203740611776
0,0662838826700728
0,0665000397393795
0,0708066841338482
0,0626406430718587
0,0651103909767872
0,063946360504005
0,0665131980830514
0,0607305225828734
0,0672482146434033
0,0665228234275249
0,0634067418915703
0,0629278405355593
0,0680808928237354
0,0629063101662353
0,0655443808100798
0,0633991197409488
0,0675988168967717
0,0608341487403081
0,0661346488204499
0,0664306538923058
0,0647851823876346
0,06044930152144
0,0633836421884476
0,0616800597075737
0,0652328156076607
0,0600513788707873
0,0640666624190473
0,0601023251496684
0,0630563286913902
0,0595353219632265
0,0649007842676631
0,0612701287678133
0,0647718157550374
0,0613153220072398
0,064602080116472
0,0624236371943283
0,0645613420668049
0,0599064265794083
0,0615167215263573
0,0604296802235746
0,0640479290277157
0,0602903976162108
0,0623594385062125
0,0614301218340089
0,0653146827399892
0,0597584035935728
0,0623780668482649
0,0610753839158866
0,0642592634425909
0,0582392248805868
0,0606840017668417
0,0586020596709983
0,0628446795104997
0,0584784250755022
0,0618061321850535
0,0586577559940896
0,0606769560724292
0,0584737931970116
0,0639298236636528
0,0605528372014855
0,0611124640349707
0,0588658972064949
0,0593382903280123
0,055434361763931
0,0591819682089621
0,0617211833978423
0,0586288236260824
0,0561276837121357
0,0618565130392897
0,0600320379710008
0,0588219679741585
0,05530467568767
0,0625087672984485
0,0578105145013813
0,0598897400517523
0,0573131643205148
0,0594884482782198
0,0592361700650697
0,0607638470053595
0,0590442770392443
0,062401124382924
0,0587442336677783
0,0627736307052579
0,0566395870655324
0,0625535377675822
0,055213275108219
0,0558710910321932
0,0579182359021309
0,0637607359397465
0,058615964697337
0,0607532250644711
0,0584091913486296
0,0609158311226714
0,0578295386957577
0,0609126214733292
0,0584263090033048
0,0624005347418524
0,0586513427871895
0,0602193841168682
0,057696473094991
0,0589797572532819
0,0567651953909086
0,0602399088476892
0,0576614217633893
0,0608287149304839
0,0592498710980335
0,0613778500768124
0,0595847433820203
0,0638892350523446
0,0609444918721159
0,0581002358751334
0,0587494182650083
0,0602532633383277
0,0574118514298613
0,0619245507451762
0,0607747755614852
0,0624402123371441
0,0550368048914992
0,0560568377445596
0,0531297683331993
0,0614550870823456
0,0585812244665525
0,0626973384351216
0,0563479529007216
0,0596712602166377
0,057818503042622
0,062055032655458
0,0598514875862453
0,0592347390241681
0,0574042023506061
0,0615134684391314
0,0574187304333501
0,0636160664788681
0,059945667820077
0,0594514795537274
0,0597371125713968
0,0613230484351696
0,0581109599512707
0,0616932163465237
0,0600280313949505
0,0580684187719712
0,0588582806903452
0,0617321358237286
0,0594333019685491
0,0629051110405232
0,0601084912201865
0,0616876198685621
0,0593812192629946
0,0603221965204589
0,0589938080348837
0,0588297477347757
0,0592896452805612
0,0612448618209928
0,0560912336614822
0,0593983762908957
0,0601897771335079
0,0597722675704675
0,0611018693468975
0,0635794139433243
0,0606333932042075
0,0613071150120994
0,059222880494031
0,0635330412393661
0,0595439286085877
0,0625377330009188
0,0592698877865083
0,0620960207155057
0,0582981894948863
0,0611840576169662
0,0592918635023289
0,0602327120074119
0,0600944081225456
0,059299438363999
0,0584894478331994
0,0595377469655823
0,0607502447372021
0,0627127332180908
0,0610157043852992
0,0621231820178479
0,0587914263906906
0,0629627369987211
0,0610023099411377
0,0608438396090952
0,0613440907497491
0,0642705962386422
0,0619743101529766
0,0648443612442396
0,0605231384431794
0,0589492236488668
0,0630384994393609
0,0653415261469281
0,0596650773214972
0,0658622395453254
0,0606449830758946
0,0624154367635743
0,0623807069234021
0,0609006533588246
0,0610467447772112
0,0628168911230469
0,0624762660583135
0,0665769442236496
0,0615203413182215
0,0627481037495223
0,0613844486476455
0,0634343940494403
0,0623741721762796
0,0625612777867713
0,0619384423215987
0,0626644945235193
0,0652793552364329
0,0655202364069492
0,0618075418821678
0,0637656631664544
0,0602069314079185
0,0620806594447298
0,0640254385771153
0,0664249225741332
0,062279242653234
0,0644586332058952
0,0598386300308478
0,0636625993263363
0,0643345024462017
0,0627622510829549
0,063442972641071
0,0664312384709728
0,06335763325368
0,0657886166959539
0,0631970574818011
0,0649910160782219
0,0639026752147213
0,0639070104466042
0,063122433070409
0,0670093697242615
0,0633716210894716
0,0648655502867655
0,0636709091486993
0,0661086377720081
0,066588573050331
0,0663806932327685
0,0655790985084656
0,0674402876680417
0,0649703218853017
0,066099467936807
0,0655715911317817
0,0645423338274785
0,0644323075755551
0,0649246209324106
0,0664829423829502
0,0658952618357439
0,0638686487847611
0,0657018871268044
0,0654666088539843
0,0661630229578835
0,0654707951587269
0,0658530966581033
0,0641137271673574
0,0687752750409021
0,0684127612350787
0,0673297826443369
0,069886147741207
0,0688256694700094
0,0685845158088737
0,0691577766224812
0,065178583106339
0,0687750627692769
0,0664158618767644
0,0658204582030883
0,0663344819663514
0,068431372394558
0,0672401424242078
0,0683559487017214
0,0653829592497552
0,0660657339450968
0,0652462676054531
0,0685394900298601
0,0669348281678318
0,0679130186021914
0,0721073648011903
0,0707051719461796
0,0680772199900862
0,0684073746065236
0,0698466691638085
0,0675805746288059
0,067486305483355
0,0715364358784303
0,0691129243572221
0,0696474054513826
0,0677803410359736
0,0705163603466744
0,0689681132888932
0,0705502029775442
0,0716154604865536
0,0695999474939007
0,0684814572924485
0,0708667466656234
0,0711497364316021
0,0708331195951889
0,0700943951573001
0,0715661726079218
0,0703622429325373
0,0724589121459018
0,0727811402580022
0,0717927251802773
0,0691122322118674
0,0708259423460701
0,0731104317241286
0,0717754951364605
0,0716195498989995
0,0701830449430014
0,0702210597893105
0,0726508020482676
0,0731036704852019
0,0726470629251952
0,072285974971151
0,0708346967345697
0,0734106976157914
0,0741733288946569
0,0721753356858857
0,0712696861734811
0,0723099320672625
0,0759581926021313
0,0776173609775875
0,0736506485785576
0,076861538779345
0,0771954445071562
0,0771173242914745
0,0786349339065745
0,0780602218188495
0,0769363044475661
0,0800075288020567
0,0789262642796163
0,0795881676746837
0,0785657309513903
0,0842163131878263
0,0803450421509396
0,0793237078072765
0,0815585237531677
0,0903590593741392
0,0879172889937754
0,0860722553951391
0,0824037477274814
0,0917485939858616
0,0901753791683049
0,0860520012739703
0,0867086271969645
0,0890114511374854
0,082764028184185
0,0917579409320771
0,0836529777126298
0,0897877111476879
0,0895167372003878
0,0873601192768523
0,0813005934377493
0,0853506627871835
0,0801348652700577
0,0896756645866045
0,0840904528681322
0,0862179221619068
0,0796062230201996
0,0870298303601427
0,0794197422806682
0,0893353858996707
0,080027492562391
0,0931463867438146
0,083386509481107
0,0955363847685445
0,0757989300186579
0,0979017691618694
0,0751623212006639
0,0957698597372018
0,0689134485898412
0,0979518441740587
0,0698068760922409
0,104804616136498
0,0785362474132687
0,104995310940232
0,0685565808912277
0,107911045967343
0,0624633354686135
0,109372832678246
0,0662087124426066
0,112801973129167
0,0658425457897734
0,110373903918376
0,0599484525764631
0,117611164195786
0,0742557387625045
0,105536116753784
0,0613608284992342
0,104970552129172
0,0821204359272623
0,094671519609898
0,0885601265846574
0,0856143731714325
0,09706823808669
0,0773499957237174
0,107215661861152
0,0752718546824209
0,105481034249814
0,0708514933095825
0,101344485750539
0,0781027873231757
0,0998527064273721
0,0834676091035682
0,0940566190959438
0,0899522349258577
0,0907842334043
0,090654102509634
0,0883883771212773
0,0882746044280615
0,090719035961214
0,0852805725840869
0,0922813724932454
0,0875868203961531
0,0953381742767136
0,0876987947102516
0,0914540741729977
0,0867207268134702
0,0925178773131006
0,0884015902693213
0,0901043752972856
0,0883697848012214
0,0911332993152396
0,0886117918388077
0,0917629484003204
0,087201176469204
0,0917237205880028
0,0891661831183333
0,0925469877620207
0,0897898656979171
0,0892579178250992
0,0904678387027708
0,0932017524789807
0,0919762106033761
0,0945484865546269
0,088902041665844
0,0974137808048518
0,0961300603212901
0,0949947126142865
0,0913426251368502
0,0973888530396671
0,0938425090277742
0,0947389407346503
0,0922978989579807
0,0987275383931005
0,0938523794992182
0,0969130704089887
0,0976825249859078
0,0951658648948217
0,0903925783101999
0,0962571514145503
0,094631878659395
0,100897500915066
0,095334348633805
0,0975647170861892
0,0953526867469588
0,0990169990396584
0,0975252913774815
0,0986452007079069
0,0949798336463429
0,100841333127755
0,0963541466425404
0,0993353518960564
0,0965285754338377
0,10084579551525
0,0967507337281009
0,0993116024846643
0,0999111074076101
0,10253831746013
0,0991667037145104
0,103822092836784
0,0993256305933029
0,104229628518478
0,0998713643147385
0,0991554907042634
0,102735278661203
0,103353138744604
0,100765386720946
0,10216134675276
0,0998915672864952
0,103477442799717
0,102470467474134
0,104684928676394
0,102527914371599
0,10330962405571
0,102364364638594
0,104989040056828
0,103927705999608
0,105493198103
0,103895841978826
0,103995218201148
0,107126014015043
0,105668716523975
0,104294791223699
0,107587949600603
0,106266423033125
0,108374920817171
0,10768828656735
0,108795728011817
0,107262896311321
0,107059341210915
0,108278737293334
0,108544385214862
0,108185498802185
0,109302976920584
0,108274049258015
0,109365146848356
0,110660161457347
0,109884007849553
0,107885054326699
0,110866151047106
0,110226439632499
0,110820805293529
0,109980421173165
0,111960053667732
0,112943442861661
0,11388114442583
0,111817760939163
0,113298936739414
0,111268182958157
0,110876527673001
0,111385711167846
0,112168462629045
0,113012236604438
0,113862926021885
0,115007836774147
0,116615948817392
0,113351409564479
0,116449598967393
0,115823290685977
0,117479097300065
0,114362742433254
0,113958739738396
0,117528049403413
0,117580436749285
0,113203740759037
0,117737866774054
0,117544625320704
0,114842357029623
0,119962559982555
0,11811245445033
0,116821699429712
0,119534000999418
0,118274228179615
0,119616596102845
0,116177716731098
0,119639832936785
0,118079698497586
0,116896151591671
0,119722041336591
0,123226283314879
0,117151730514994
0,118330702923002
0,116758060223288
0,120671059996176
0,123646254701903
0,119862953065603
0,118526710612369
0,120449180946751
0,122034688104067
0,123339195695908
0,122151526177329
0,123045353157122
0,123081483509943
0,125020149359446
0,12526602872726
0,121935615604613
0,123139636815687
0,123011109497128
0,118760670073382
0,122964544671141
0,123587649474065
0,120682447398864
0,124256941206216
0,127036717114444
0,123436010452275
0,123681601296592
0,124003442731302
0,123550310640917
0,123054238167322
0,125771287620879
0,124321642213721
0,127115176622755
0,12550444449726
0,125192779986152
0,124081301526256
0,127168062046446
0,124762445608293
0,124064667596459
0,123065047884183
0,12590010269584
0,12805619324781
0,124190649485106
0,125882240043787
0,125876124467689
0,123888538536359
0,124886812986743
0,125870431445231
0,127536627236398
0,125171065828866
0,123555956753465
0,125442815486402
0,126956347582917
0,125394501597571
0,127492801525021
0,123654168031584
0,125163755584665
0,127312262074719
0,127211325314891
0,126054475924497
0,125763329259543
0,12633797008635
0,127455133254299
0,125903917435864
0,127597003154654
0,12460791942401
0,127566311404255
0,126196154543942
0,123129686950584
0,126482166015504
0,126503906189136
0,127350070064981
0,124430157341597
0,126498569717895
0,127350366895674
0,124537859708305
0,12608465009724
0,125292070187308
0,127127606125435
0,126350151479641
0,126089764321428
0,126515928728349
0,128487357026469
0,129100057359358
0,122134350257569
0,122214900708597
0,124859049548037
0,121440716620009
0,126962574908245
0,126131774094141
0,122847499733107
0,124481647072756
0,124176666363172
0,124570983182119
0,1254080387037
0,125406837650969
0,124095216431877
0,126450566332615
0,120189192830602
0,121991500009465
0,123685946288287
0,122186831629329
0,122834858999361
0,121641589502784
0,123578326170924
0,120236903987843
0,1192518422735
0,124193879763966
0,119858229779464
0,121720022553472
0,121033891458007
0,120260824872197
0,120619965511593
0,123649991576662
0,122890904911744
0,122676298483331
0,118492550874027
0,12080402613111
0,121613338788951
0,120118113493873
0,119977258461229
0,118557244222861
0,119482121308073
0,119579812923991
0,117742271899678
0,118207920404929
0,117643008467096
0,115678774895158
0,118989929794688
0,120754598267695
0,118674131873983
0,116904905240862
0,11824437543521
0,116842362737921
0,118033669258276
0,11510773739008
0,117541780271127
0,11491454453086
0,117724551377753
0,115097885316619
0,112619126200495
0,114471896629385
0,115596965422284
0,114628863492935
0,113681862336234
0,114750577013834
0,114417707337505
0,114799409625275
0,111200453758601
0,113239341686434
0,111613749044401
0,11282729249501
0,111918315365978
0,110803943920067
0,110149131830621
0,11026340633596
0,111670557063938
0,109162907537119
0,111371249110452
0,11084876325522
0,108778869791407
0,109245604692934
0,110639999266815
0,110761546229786
0,108051850511308
0,111579623289097
0,106764020702714
0,109055859701633
0,107971621054571
0,110227686275104
0,106095050065291
0,109133341354061
0,104548406002452
0,106106780138244
0,105718779897997
0,106460522290728
0,103612621633251
0,104136219677237
0,102971759599403
0,103613687178032
0,102319650585691
0,106049858867651
0,103544491711585
0,104262332037372
0,102968253813144
0,10105777048115
0,103364945291538
0,102211406157734
0,104257176694071
0,105317375653741
0,100197173438086
0,108250706268076
0,100597132691119
0,103389364806354
0,100502843571918
0,100268440441445
0,0984880664995852
0,101046900147568
0,0989508133779837
0,0980620552741473
0,100862249536905
0,0987795798640738
0,099969843407893
0,0977208198666648
0,094933163431538
0,0994203125857344
0,0977344791000056
0,0963159836517916
0,0986255575151989
0,0990098629526178
0,0978097746147151
0,0968505174833523
0,0961979956196458
0,0951638905569347
0,0950505901223414
0,0957056406857549
0,0950302103676208
0,0958528627318035
0,0968362011284381
0,0943353845112284
0,0951904389211441
0,0911558578204194
0,0938290689998006
0,0929375036412637
0,0944372670727151
0,0915064858406576
0,0939265255422762
0,0908898452681352
0,0912790330921709
0,0930688880531108
0,0901520190796286
0,0908161636201245
0,0911989592293658
0,0919741275598911
0,09005151097175
0,0909473124946993
0,089156905233683
0,0883108693437567
0,0916083577721928
0,0887556727477118
0,0918784466270482
0,0869619279721878
0,0940395063330217
0,0870228082662338
0,0933341688672551
0,0928777351521901
0,0864007281926273
0,0876537224034227
0,0869741145831656
0,089490931260651
0,0871271750731195
0,0863014640356561
0,0852564328164653
0,0873753820058122
0,0845577129070227
0,0870947841952049
0,0863838414299078
0,0857467821458578
0,0834471016716088
0,0878934057134
0,084710897076324
0,0844313021753511
0,0837556519534522
0,0865654297743754
0,0824330515844041
0,087373059761533
0,0884691584956996
0,0833801823244278
0,0874011029573072
0,085251314585393
0,0822205650911254
0,0949753578761365
0,0757800358405455
0,0884605153578757
0,0778913771553056
0,0852384302385895
0,0786159150276508
0,0876829361794166
0,0780723783303578
0,0882013960616216
0,0814821769789414
0,083851264756647
0,0837832836366183
0,0806366236596149
0,0848498699763569
0,081399553299646
0,0846547864734786
0,081709655492911
0,0798133728589859
0,081749892996381
0,0796012041968229
0,0833064980957467
0,0792576732261153
0,0848230154626572
0,0745270639576369
0,0855857096095104
0,0789227923111525
0,0846228171601211
0,0789953131355624
0,0829496150726225
0,0769571697360768
0,0871778458687591
0,0845256232562193
0,0795532687614877
0,080842950727026
0,0791467315330241
0,0833186829000762
0,0777342588712155
0,0800631415581625
0,0770599056802738
0,0815344227813031
0,0782071615479766
0,0821393928269279
0,0769835607092581
0,0807307376799183
0,0792277681894753
0,0792147712954946
0,0805194579995734
0,0805166290248759
0,0810587936483538
0,0793857167967418
0,085003947426076
0,0783661360731945
0,0860549691448943
0,0790777266305815
0,0848101662372159
0,0776879209733675
0,0820042056736975
0,0779812814500724
0,0808239422586575
0,0768974963933388
0,0798001187383806
0,0796987190703622
0,0782587462459584
0,0789755664141382
0,0800247524741095
0,0803774724165313
0,0799740176951697
0,0809789099125493
0,0772909082016099
0,0763809555138076
0,0804015839819707
0,0809743501887461
0,0775687023465503
0,0825442261163004
0,0748170310803071
0,0837675329217228
0,0748522403175587
0,0867814414791164
0,0726063759854132
0,105617062279429
0,0724119469231358
0,0849224769665917
0,0832099127104423
0,0799781004282637
0,0817491589991809
0,075815202298185
0,0825494732113704
0,0814408550234709
0,0778742474926593
0,0797784840467769
0,0801905692456335
0,083999211899279
0,0808152430749791
0,0810587732266957
0,0858068062101789
0,0855278175863446
0,0773526250162288
0,0867403795541393
0,0801058739454039
0,0878784563068153
0,0854274511426746
0,0803348613906775
0,0914888313062325
0,0795886733319583
0,0864754514030461
0,0797658729659134
0,0838260470463115
0,0841861880986996
0,0860304563885168
0,080289635306385
0,0812839689683728
0,0852433835688447
0,0843689610114185
0,0871811735882248
0,0871503878674033
0,0908522706783916
0,0875871324899716
0,0809367087840657
0,0901127377004281
0,0866955177346975
0,0888315296651174
0,0892745313906087
0,0873039736273084
0,0862805156607559
0,0936728536890575
0,089434067605481
0,0895728043298946
0,0967405758370353
0,088381994592218
0,0870345408244484
0,0948176800287392
0,0874606689023141
0,0986064756166583
0,086448971274985
0,101867686052937
0,0945288489461297
0,0852915977655204
0,101151409698697
0,0864297807896392
0,100784748406476
0,0892116402797148
0,102288771934363
0,08604945695114
0,106145004930517
0,0884658100612631
0,106616979672154
0,091013433461266
0,11041933338143
0,0987584237370204
0,0998732279760709
0,0990058262818984
0,100375535399741
0,0988597467851734
0,106090578737735
0,0999286303971155
0,0989963063618297
0,124536706766103
0,103253440368104
0,109211198048464
0,106390048036988
0,106304583529791
0,128926966037224
0,0996252006089274
0,113424159758224
0,104762890163877
0,115279489029861
0,112313274960521
0,11440466089885
0,119321833746985
0,109411724471525
0,112509684028398
0,117817108272916
0,110672896005808
0,130639774212026
0,119387853912272
0,124264526143433
0,117780102923503
0,129717019688085
0,113727098230925
0,146735472638667
0,119384988696994
0,133778283658342
0,135893347113914
0,129687321886036
0,137546162639678
0,133513129222588
0,138266840927511
0,136666609201707
0,145072752240757
0,13742356178853
0,139526031215421
0,148464069160855
0,156180968906724
0,137914112168842
0,158059786029593
0,146036054588527
0,160516622852118
0,160836957179539
0,174610033990563
0,156622152218074
0,160604580128332
0,160694405553097
0,179106772690962
0,163366971302481
0,17181172561207
0,168645307488177
0,17389295347547
0,178493154709954
0,180884130878799
0,188252480285222
0,181916451870067
0,187829137162241
0,191718733905923
0,191046571663861
0,212374305352002
0,200565867170853
0,214502895405009
0,203648735668824
0,236464448026964
0,210558184718866
0,222009747876327
0,220148468315599
0,226860724228008
0,232459988819761
0,23183035201422
0,236747673901846
0,238907882531321
0,257157787555533
0,25608040644161
0,247114616289953
0,27982583770639
0,258064938033446
0,284821702500705
0,248547029351539
0,414917689054252
0,270708406349507
0,303324317703626
0,294225381714692
0,309738327086473
0,34106070656801
0,310120520900006
0,315282631239773
0,331062309894436
0,329288526538348
0,337116901118971
0,343214347531905
0,350635098956663
0,356700190396809
0,366486759457808
0,3620152211819
0,391492227359742
0,414120314631496
0,409284845919191
0,398875438827269
0,39971898868264
0,416773149028285
0,428339051334844
0,421381369431135
0,437200258971767
0,438166575636353
0,440940941731085
0,489580832306488
0,451273315126586
0,477136372306249
0,468492608555667
0,504535134430733
0,475170029707928
0,525643055738692
0,523996180697916
0,504253253448235
0,515845058619524
0,523861598204398
0,544323781273966
0,53025997999343
0,58260880456283
0,568395097198932
0,568387359707275
0,568425460820451
0,575850236352682
0,583533648870018
0,588982358237335
0,599742634111895
0,604053249583439
0,653593895381265
0,628772049261506
0,681462391540681
0,653757102504988
0,627748090727727
0,656871514016723
0,639928699444634
0,690046200479266
0,661722260003213
0,705208497515272
0,694252496501868
0,664268842376732
0,687850904903745
0,691753030822007
0,687571727338342
0,684437624725133
0,704263233913663
0,68273255840491
0,717915041417831
0,699111386405283
0,692363829436613
0,779644143924331
0,672710756302664
0,710927089191766
0,707170705061687
0,709538277184766
0,682846791857495
0,698753706274083
0,674798926825015
0,709826529541445
0,659832169304287
0,680129221670273
0,669572618508977
0,691477398842227
0,677080493147446
0,641593015194524
0,644700173259158
0,633600285135522
0,634211909734643
0,618981263938124
0,613163948893157
0,652391978936567
0,587821841169842
0,604478097334856
0,582538095811506
0,576526690874198
0,561275316172344
0,5512109479204
0,548353311665798
0,548654574440957
0,529161055452634
0,545625629661943
0,519934701926553
0,512595552577209
0,502804076913293
0,503366361650943
0,489303937633741
0,480528162920082
0,473320081863898
0,471791591926534
0,463429222619316
0,45199898614559
0,447216722419706
0,448141315734287
0,434689990353977
0,433193916680595
0,421045715922853
0,417815009557474
0,414585267588011
0,408716912088718
0,401897176795516
0,405099396529091
0,394192067970743
0,387364508966669
0,385507346159779
0,383253641963696
0,380254989825986
0,372450339309555
0,366518987535368
0,36389444548539
0,364161950338227
0,351179092443135
0,36125694119193
0,351386532272541
0,353505026078193
0,35155157750335
0,328219534750185
0,34177541635508
0,328045245934501
0,340703140846629
0,324258655083917
0,354226244452525
0,333225359335484
0,315839774748969
0,314590140440812
0,316451947870228
0,305531788975652
0,317562644582167
0,30443991382783
0,315124618967572
0,300925991773148
0,318926271928216
0,347754463821602
0,301331197832916
0,336599735611831
0,290151604625728
0,297814206901576
0,291369795456882
0,317607805814291
0,28365502245863
0,291559710596692
0,288052761328174
0,292265150931279
0,285218022631866
0,276336839312878
0,283029250982554
0,274744335655236
0,283631964106041
0,274906350467787
0,271511266171429
0,274734870056233
0,288852110823967
0,27251457073892
0,288981726129905
0,281369118306455
0,271109829961995
0,260765055722705
0,260292785370862
0,262912693430173
0,264634524205016
0,280400707317418
0,260115847066578
0,256975825057534
0,258261462635489
0,251200587506355
0,264968569529366
0,254580143441617
0,265435383902261
0,238029227999425
0,266917673060342
0,246998701980594
0,254843461270452
0,263032077128131
0,256655408907932
0,260095738144199
0,24607958175523
0,252434560911286
0,247909821546743
0,262907350067497
0,241320379052542
0,248576384425512
0,241678043332762
0,233577954163843
0,255299471081144
0,242757120977497
0,235734348292713
0,247714905241072
0,249467798227571
0,266743156454733
0,248798663687563
0,247968286240667
0,235640634056888
0,229360793151609
0,238686707977388
0,234042248544291
0,232801803858308
0,235970412275788
0,223598087481313
0,246003802588966
0,221803081030812
0,248839121455794
0,229840037174596
0,226026468296625
0,22819265939896
0,233875728531797
0,233713575067207
0,24634383933144
0,234266531784309
0,237071246640156
0,219272796503995
0,232801580020705
0,220218009242253
0,232398173492032
0,223434665241244
0,228597934906449
0,224368737355899
0,227083846213594
0,224925536972552
0,230810899919626
0,222404540132222
0,238326212480362
0,226403802648965
0,238524951451295
0,220135902960298
0,236711252206944
0,240116589590857
0,22871611295226
0,234518388769663
0,223600108641137
0,232029970059927
0,225373264081587
0,226521295574428
0,233606510275307
0,2275722405831
0,240900216371863
0,229940423802219
0,231019091694733
0,229404814224466
0,22719783178497
0,229585785640495
0,232615844491628
0,253597712978046
0,223230383617365
0,251829483365766
0,224648513307977
0,23103849991528
0,227050962015512
0,23098132461325
0,226221269810132
0,223297465864909
0,231026412892159
0,226316026400322
0,237293401005337
0,229361511901868
0,222736993391504
0,231469535348971
0,226684023513328
0,233259840457777
0,227577875331103
0,225570770403878
0,231578140024328
0,225632767855513
0,232950954270243
0,230198080292853
0,23393471961924
0,234642063997242
0,221799890346023
0,234442627448105
0,224211045392036
0,235595470122972
0,226496950317105
0,228230864895233
0,2312273640024
0,228179628705201
0,231303290222023
0,227704185595256
0,229603054211856
0,232090791122769
0,230683400987118
0,228617310729436
0,221607678121192
0,242310071455822
0,210359797504122
0,255196711547305
0,221850986313632
0,238804144082193
0,230127886495234
0,228287435268498
0,22364641637774
0,228195657473357
0,22723381724023
0,231898254269953
0,231594270070608
0,224986816584481
0,230430545054107
0,22601442747845
0,228358115277089
0,231347605051771
0,228406172889898
0,232806947987269
0,224761275070852
0,226366081379392
0,224432186235182
0,232448824830819
0,227152890956401
0,233303463032921
0,22538669591433
0,228757247562942
0,224579426999582
0,23973090950211
0,229003542700841
0,225368049492749
0,225805972759327
0,227038401719067
0,218816600908992
0,235422357982177
0,218565385920538
0,23448177419756
0,228469088882619
0,22799705865506
0,225899981937579
0,226922404228811
0,223394979357541
0,229575227720112
0,227456661208533
0,229737130789212
0,230359282118598
0,225737608210792
0,225275155498983
0,231326887564489
0,233452423865464
0,226838768449126
0,230988290151383
0,230440140442409
0,223170153189127
0,230707208566896
0,224712778767767
0,227305865558984
0,226000517040797
0,227290409856621
0,223005024817772
0,229161514490403
0,227395623848838
0,229838783248129
0,229624405521849
0,218915060242826
0,230796853625261
0,222184957057873
0,227488935035057
0,220404128544992
0,224176346158919
0,224559528831545
0,222958351668668
0,220172523703279
0,224646084387797
0,222042421668922
0,22260929822749
0,223422880366987
0,219175243379106
0,221862992189504
0,219981344135035
0,221873911475733
0,222625587903632
0,221084757216708
0,22309134542187
0,221343014014517
0,226576592625292
0,221690973914163
0,227330718383818
0,220949905044315
0,225263329015829
0,224723509636175
0,224894352152639
0,217241257326809
0,224331598475233
0,221281046916867
0,220026030428728
0,220374218119766
0,218074060996625
0,221229801706251
0,221744995562557
0,219403438889238
0,215756391323571
0,22075111528061
0,220202714350948
0,217059826435868
0,219651860910929
0,223204649359783
0,219388828390669
0,22285582380626
0,216931067641391
0,223459295999969
0,220331779562745
0,218733948705353
0,220826122553759
0,220002321193226
0,220463084469641
0,220825315145634
0,216496387082182
0,218598610199017
0,219209351254883
0,218716537841468
0,221137723581494
0,220318785491624
0,218540276326789
0,221123346538427
0,219782059014119
0,217435962446659
0,217561245730752
0,218451438628712
0,215387713567735
0,217404043772665
0,216706043555268
0,215431213256099
0,214369384070519
0,215670931098304
0,215766180106142
0,215104558771306
0,214032755409346
0,217678359695183
0,215344566465765
0,214045445601765
0,214143064024655
0,216969267063896
0,216460201133186
0,215932213570713
0,214673782078493
0,21651305987644
0,216090530141369
0,215627248080116
0,212600973500364
0,214320792840444
0,215625333165305
0,215233015155816
0,214223609642937
0,21611018950602
0,214910089627598
0,217657837106479
0,216227997097303
0,21653772171406
0,217561438409969
0,217001556280077
0,216116796837949
0,215761463952004
0,215929654221647
0,215865924567157
0,215723311189599
0,215945331282938
0,215579691843604
0,215638759897915
0,219074113857394
0,218740265968581
0,218191919595254
0,216209501629959
0,215757619864681
0,215844086855285
0,213945638179428
0,217097772604164
0,218749253830094
0,215562712249566
0,217626879877998
0,216860141277184
0,21254155192151
0,216128685068491
0,21705374033244
0,212989615125219
0,214563323194818
0,216782365382299
0,216673181289103
0,21633596605975
0,215568218945393
0,215905361404117
0,216727404600622
0,213483384664415
0,213914651137399
0,218254249661052
0,213456691796912
0,213882488031062
0,214587335331562
0,209802269225043
0,213202015411516
0,214569215398847
0,214454851975959
0,214772064584583
0,211838094406108
0,212358124005522
0,213971646947873
0,214115347221693
0,21291756237906
0,21374665470101
0,211343146586768
0,214305051506369
0,213893730883389
0,214287922095737
0,213583154755506
0,212063484070067
0,21089639827458
0,210552578501
0,21159627969248
0,211794800821843
0,211391627121917
0,21022317229363
0,210865819160887
0,209518522171016
0,211503413139355
0,209357493470486
0,208583582625186
0,209267030316567
0,209452401777747
0,209069381062479
0,212105961300856
0,209993270167129
0,20722648547654
0,209680748689145
0,209211099863386
0,209393776727964
0,208800135076545
0,209501811694402
0,208270772506474
0,210343964874527
0,209036757335405
0,209003461140538
0,206343442160774
0,207303223125783
0,208773530785656
0,206683821984862
0,206754711008707
0,207967984929306
0,205913506939167
0,206129329665602
0,206898835228878
0,206545987790405
0,205367828505004
0,207295170171063
0,204551201732087
0,209597322078621
0,207209386804406
0,208481054930753
0,207535462040565
0,207810564631331
0,207478180022113
0,211081397101375
0,210465068849174
0,210531862417838
0,211334752909184
0,211768700653291
0,213580195262296
0,214938276011229
0,214589333410162
0,217469302426853
0,218185618622946
0,221022089475345
0,223040974223542
0,223378899892255
0,22313462075269
0,226183140830858
0,225136528510549
0,228634577045716
0,228829145979656
0,23186600438685
0,230847166270981
0,236048640736824
0,234557133117395
0,232548092028712
0,234208428220695
0,234020255615186
0,235073587729294
0,236403510072597
0,23468401227231
0,234954352970003
0,233174235878878
0,233969423700547
0,236033023902056
0,232791219582873
0,232280334266703
0,232927222642113
0,231202854915363
0,230647415596463
0,234392128230535
0,234034445465242
0,232368832336136
0,231906742708962
0,232085454706874
0,232317217981663
0,232107070090199
0,233510084793639
0,234401415488648
0,234107936399805
0,232093609323424
0,234396299779017
0,236165851692668
0,233062413173706
0,236937162617063
0,23725707017934
0,239437935310452
0,238737185647317
0,240198142387347
0,243037959127468
0,24240749129673
0,243508763845593
0,246715591260612
0,246216620570592
0,246862873112006
0,248845977936603
0,248773581298953
0,250405711019886
0,251271531820204
0,250969979391325
0,249671860247987
0,250942936026305
0,250182115476413
0,24847432229419
0,247975962201232
0,248154536376008
0,247293739900746
0,247826281259885
0,247996732901309
0,247946226373945
0,248083188272064
0,249935906926941
0,249429923522108
0,250017622451228
0,250521067352241
0,253399312677114
0,253841885453087
0,253404751545556
0,258699663859547
0,258265559774082
0,260127238086058
0,259761518039001
0,26184254954699
0,264425242262887
0,266665797666172
0,267643514045302
0,267859048985291
0,26956141699217
0,273029333349825
0,270592040564374
0,273302811263788
0,275592315681555
0,276414110507378
0,2803348223402
0,282719355907223
0,2828076119029
0,286974695580507
0,286376790806783
0,288999331090554
0,293683739179425
0,294038982088377
0,29410242854552
0,300207504445304
0,29752975565471
0,300790019406371
0,299788719957576
0,296682623792769
0,300248079403199
0,296091676327765
0,294329875670321
0,294696008430169
0,293457591866262
0,291554192809578
0,289753644751917
0,287325296831013
0,28543457329496
0,287027841256374
0,285922541570646
0,286052766207659
0,285727695610537
0,283913975548348
0,284730208148076
0,285321162104357
0,284730590016457
0,282662531035752
0,285483999764026
0,286698266432878
0,287387147401797
0,289399276782586
0,289382765989705
0,289922927671844
0,295813339759237
0,293136821185661
0,293370119348649
0,292839757992576
0,295043179564717
0,296244149689938
0,294938936477392
0,294876923131441
0,297286960160533
0,295823941204201
0,301421964572603
0,298098715677797
0,298159568599279
0,297665465163048
0,294020813519487
0,300872255914973
0,300507824379891
0,297375545312832
0,295580009572509
0,296507010301939
0,29788687648822
0,295808931449756
0,295348110424376
0,293363561924162
0,291129270619929
0,291818596363155
0,294194280670472
0,289743926447538
0,287837590502514
0,291251797912509
0,285967166379114
0,29101462587255
0,290198483020227
0,288444549608666
0,28367641708203
0,282812978469875
0,277056534918885
0,278851498521458
0,27365616373075
0,273970730875746
0,271963910224656
0,266948736192795
0,264462836013321
0,263883037408731
0,26127232168384
0,262861598041039
0,261004036410018
0,25779839674785
0,258165278487168
0,25885434930592
0,257314456636514
0,257395567364604
0,260677126512477
0,258410369971471
0,26305972836948
0,261897385283327
0,261616131314443
0,262162520366493
0,26400285475431
0,261624310597924
0,261827834947107
0,26424589062789
0,262268429033755
0,264692961002404
0,263389525638284
0,26567826577497
0,261979142188869
0,262341163484351
0,264389451771864
0,256814259928318
0,258907649496999
0,260959327868604
0,258949684132024
0,262698906254551
0,25682426821985
0,259531089774848
0,26148365682631
0,261133690224049
0,262070608466294
0,257941876898139
0,259732646339927
0,259981487123065
0,260146038850277
0,259217842625136
0,255984293660442
0,261324581130707
0,260484059031967
0,264396398795909
0,26034018325723
0,261547796092859
0,261391459348194
0,260039856186328
0,263102295225092
0,263530263663566
0,2642242267377
0,267293454494732
0,268159254373524
0,266436046793596
0,272422337048233
0,269202353535815
0,274292373851654
0,273620719557372
0,274389819499497
0,279966614799231
0,279777151637959
0,274595168551788
0,27781251360967
0,275990964585367
0,282510180633677
0,28063131200257
0,287240373279108
0,286514685580754
0,284552600099511
0,28966397885266
0,292886925727078
0,291377866269753
0,29734622931954
0,293203690356755
0,295491200494536
0,297489700215878
0,297757351999948
0,299490999996407
0,297107284508384
0,301633488218949
0,30186070803568
0,302947229015868
0,307917097740029
0,302662564139037
0,309185246438438
0,310352150612126
0,314394535620923
0,313659583008603
0,319877170426836
0,323382788464754
0,323662659926187
0,319023603031131
0,328601783722259
0,33105192415771
0,324958396092004
0,330581513561948
0,334994170677756
0,339347877816175
0,336415640123819
0,340128052583723
0,342636266871651
0,344278416492119
0,353431963954867
0,346078041177117
0,348868073916165
0,354617836188685
0,35731014196442
0,357034201943136
0,359967643689512
0,361337819480259
0,367950202527717
0,365398547762276
0,364502080269814
0,367953155668545
0,37233409073924
0,371186817506741
0,375623269983743
0,381788194821154
0,384065441803143
0,388572513695284
0,392118396246392
0,398645729314169
0,400349348578854
0,400993284261394
0,400821894672443
0,400025414047155
0,405947148252488
0,40559606294453
0,418674848991071
0,413613801171477
0,41694135742892
0,418114358693533
0,4283178504959
0,421936556383383
0,425954706619613
0,432147470222051
0,432187375330518
0,427976865452541
0,434261277254955
0,432988425277814
0,445811079086353
0,443756629169263
0,455124539556218
0,461722479057591
0,448639768595107
0,454768778447365
0,459531354613818
0,464366027164984
0,476127581405316
0,467844349923814
0,479211732215896
0,475023031088747
0,48556417951192
0,481388766029946
0,490384488816625
0,497559057156084
0,502522143566876
0,493800540415303
0,50141717080945
0,506773567349909
0,502126300131971
0,496754652596705
0,520164875768036
0,513031087362567
0,525997483038123
0,533513879977814
0,525923659422065
0,529497554709434
0,547846326601255
0,533982663602535
0,536994669133519
0,534938727466068
0,555544608270758
0,548390295489679
0,551690407305575
0,556718899317382
0,577041063471167
0,572444863735963
0,584931920884195
0,55440383971218
0,584736191825149
0,576422334587765
0,572023509006787
0,588446884174034
0,590827463953582
0,565806079326465
0,590691173013956
0,601118268820736
0,590515367786675
0,606190808683829
0,621259537353949
0,610520427806588
0,628994168074739
0,621726852061698
0,636309886319402
0,635602173156909
0,629749751050856
0,655403047566537
0,661525876372988
0,668280477373552
0,664265415502337
0,634158182356313
0,646969142438393
0,640811499372585
0,6572488912379
0,676138170538929
0,678785073859381
0,677073916657964
0,690408621101345
0,660539547660663
0,696885989699061
0,673493485027606
0,711799868463976
0,690904250162795
0,693811206521182
0,704749877255782
0,718015713875084
0,691357549379155
0,695707253992568
0,687184171780472
0,70273100190953
0,703031285171642
0,744189187181837
0,714789425720604
0,741511141871955
0,734041429353759
0,743727322131537
0,755245406469015
0,745918929054403
0,738644786654121
0,76444318580971
0,728460952596352
0,792159264912056
0,777662007678887
0,783324591264066
0,778363035018961
0,764673560991308
0,768474488444638
0,81054386372775
0,82931103574756
0,797608726232606
0,833932870558298
0,855893368255125
0,840491771046914
0,846073981394689
0,773642690921301
0,815383295775709
0,785727527130734
0,800992362051004
0,877590579294729
0,86565222590894
0,818915336687036
0,843513439082371
0,841004062775918
0,855701587720859
0,84048899423279
0,846558263745418
0,85855333715489
0,930539482650065
0,842947927957646
0,937540511541637
0,865229834619046
0,837418317525566
0,934849136673269
0,956225245117709
0,892087801269401
0,963112494912562
0,873487131738383
0,938923628003718
0,907524727412892
0,83488286759492
0,929575577315522
0,928000686923549
0,978721575249758
1,01142337295482
0,921564902571899
0,96228897825454
0,916365493655178
0,996399994179501
0,880082622274718
0,946391037466867
0,989231213746065
0,886883055930905
0,942199861433338
1,05304390752772
0,879216775478962
1,01263817267908
0,948961066632615
0,966229650732767
0,92153280979746
1,05683672476938
0,966519756595262
1,09931590582495
0,909012157901118
1,05550723729843
1,00113706936545
1,00629894347282
1,16603733849075
1,05704774843114
0,938636731629108
1,092615352947
0,892827058920946
0,983897395112231
0,987580204577192
1,00209482059671
0,994461817147693
0,996618591315458
0,896920468258923
1,05538100364739
0,974067404753663
0,948342323716665
1,0143997936475
0,997781791865674
1,14659603281261
1,07091233928937
1,18236721949223
1,50159962687976
0,984196124070055
1,19287096805832
0,897713655545449
0,930420810479236
1,0774209316634
1,05030027459152
1,40396882181779
1,34021803241771
0,856953429416797
1,4362869422283
1,05008212794448
0,899808067581233
1,65099889929291
1,10341312429551
1,19242311615356
0,991801107151656
0,925067654031159
1,50276458429331
1,01237605704315
1,28293818498932
1,49835786701924
1,39899058508503
1,29916653567226
1,11984527425614
1,06699426971971
0,976647964820512
1,25536885735175
0,965413410443057
1,02608819581235
1,6022394962686
0,90196375731875
1,07181468418216
1,13175671080232
0,948137393632007
1,36781971683661
1,05361729845752
0,92161690848588
1,71322550842189
0,896072368745467
1,33781807166603
5
1,80338953668244
1,32311942623356
1,23530894607515
0,983564035108473
0,818842572695545
1,24199552317557
1,29775022424032
0,857614826933426
5
1,05502399723747
0,935306091398301
1,2172471576426
0,766784341910771
5
1,05051615864857
0,895463646395425
5
1,0023329739999
0,736382348326931
1,09115331609338
0,80698711436537
1,68573449177612
5
1,27158508401011
1,51087317022418
0,715628311246064
0,72273383659604
1,83517355917004
