3596
4000,36533379555
650,420452594757
1
2
2
0,00627259323276973
0,014389821868345
0,0201250136126879
0,016942404174659
0,0128761089576294
0,00982922944882799
0,0168736985831348
0,0109302014089671
0,0214357403914965
0,0145460819292785
0,0158344896179912
0,0140113848383038
0,0145040633633483
0,0105142474390603
0,0133292270471457
0,00888745677934587
0,0250034496796809
0,0145819203024779
0,0236444877110957
0,00814407199387382
0,0113551010464716
0,0166385772937328
0,0195292412557099
0,0141893732981179
0,0120151794234874
0,0155915571840507
0,0201004190734752
0,0124406886920926
0,0150784509201536
0,00905163924937959
0,0234866064796729
0,0102039353787683
0,0154708215481296
0,00784733504464354
0,0176028901490286
0,0155355597791982
0,0168372450946932
0,0147172700057796
0,0173572938303525
0,0166203977774569
0,0199706288107375
0,00873787575926565
0,015881650907852
0,00921176080574743
0,0170828307415631
0,0158474680475044
0,0187104440103905
0,012266724175877
0,0274090587103425
0,0140753853407249
0,0193933642217614
0,0138220656121897
0,0242115761447255
0,00457371358549053
0,0147897476839149
0,0196462993577211
0,0111460608828244
0,0094556396104624
0,0245882336614549
0,0176649374674498
0,0145614193498244
0,011519113017977
0,0232744939524568
0,0182262919466733
0,0194458374038907
0,0196869919560294
0,0184041921635752
0,0159636150400322
0,020816017383569
0,0158854452837746
0,0123312249004309
0,00718335613157801
0,0169418509533328
0,0149519565839157
0,0225536725447666
0,0090714671349563
0,0180919323278711
0,0180011595219665
0,0136241806569902
0,0148889947151827
0,0263111394963138
0,0161942392935841
0,0222839713353334
0,0164782693240886
0,0219328713836898
0,0127706670641885
0,0158419659066043
0,0247101154580687
0,0214531979928379
0,0136318175200462
0,0144748373819022
0,0173471019040176
0,0190822568154849
0,0180874017470646
0,0172991444556929
0,013047268037432
0,0184843742985912
0,0181614542459261
0,0145448167550153
0,0190900406953442
0,0242675904348076
0,0170418619420266
0,0280960968848476
-0,00396130113872876
0,0397825109785511
0,00287888160553158
0,0184634056885873
0,0233723880254618
0,0182914067546631
0,0259196360048152
0,0105034378041625
0,0146478032403558
0,0140764021773806
0,0157447963909679
0,0122549174395141
0,0147536386430926
0,00395808149182597
0,0150354554948468
0,0166049768501866
0,0155423411434818
0,00671437521849007
0,0199472476446229
0,0259636502144969
0,00443066117254582
0,0216509568151637
0,0144238165132587
0,0228323214462553
0,00957553666814142
0,0158366181253236
0,00863160181294098
0,0184222196837078
0,0151248943076879
0,0268283746532965
0,00649514297398549
0,0256598222445642
0,0127070771496341
0,024767734934145
0,0150557950733264
0,0260584061428578
0,0200131883852202
0,025544703951974
0,0224050506036682
0,0175578981352453
0,00690559044012517
0,0302141994869842
0,0175341447702702
0,0145780254066148
0,0192992931624543
0,0221913059081573
0,00788583505040451
0,0201277414684003
0,00957673740376258
0,0263953184228738
0,0150927043138451
0,0149882885812839
0,0223337802732658
0,0353035497395799
0,00444949995910325
0,0518908898879985
-0,000282375816273119
0,0319589118849197
0,00748999120090101
0,0225229278257328
0,0106109090940834
0,0203574884530921
0,00871608828052021
0,0156995181882555
0,0145634835402678
0,0228345077767457
0,0113946047601162
0,0283154060386225
0,0265787739427902
0,0197201118188003
0,0177980502325216
0,00841120534981177
0,00814786325346464
0,0235150383384253
0,0135181969047978
0,0158011834575935
0,0129827746690498
0,0351209491278358
0,0074737121110477
0,0303736053698966
0,0196914887005155
0,0248974280561706
0,0188550852736454
0,016444789299591
0,0131311988990348
0,0361815162459167
0,013164585689239
0,0372685480553273
0,000575739382493619
0,0190239221432039
0,0167296285880188
0,0340857893395656
0,00212838587931858
0,031297911917322
0,0108361734143643
0,0167452219571493
0,0147822718669611
0,0268599314066859
0,0196381824369173
0,0262158167900483
0,0110628305464907
0,0255368393307444
0,0160627386995011
0,0315659409953862
0,00876658897818113
0,0278325678571612
0,00900327904313357
0,0259170836554115
0,0134265555499352
0,0155410957536231
0,012828664574357
0,0188387909894625
0,0231196789510645
0,0197017182648119
0,0163694988573611
0,02982073162805
0,0176320589021596
0,0289137031156548
0,0158662856723148
0,0246626076143297
0,017057704381545
0,0229622513430379
0,0208157063277048
0,0309424102720246
0,0184480304810258
0,0251299804068079
0,0212962710588846
0,022369948656125
0,0202419544803247
0,0294896128148707
0,0210847449772703
0,0211888884864432
0,0202454859301707
0,0381686072411931
0,0183884969449569
0,0291937496058309
0,0109647369863086
0,0273757659287354
0,0176223558044899
0,0279800196890727
0,0136657113459654
0,0283531583074122
0,00647122240467039
0,0437241319898205
0,00867342794943932
0,0294457664269696
0,028182473210283
0,0295072704862577
0,0216985447766002
0,0258726565198672
0,0208026786080561
0,0280848597738763
0,0314566851513664
0,035631553569136
0,0294719410710887
0,0311748626309202
0,0282393533615099
0,0370675533665827
0,0268563284439845
0,0231886254549411
0,0338852008769787
0,0292090547170457
0,0282224418629401
0,026718528345402
0,0164629289603232
0,0485414505037418
0,0162748743065809
0,0229354986106379
0,0322270849911337
0,0209002831085307
0,0261945216556494
0,0254455575227335
0,0322784209619282
0,0341030272235027
0,0290132109045804
0,0356547755090011
0,0294390322136969
0,0409353882254119
0,0309901425731131
0,0618692310433667
0,014110109157824
0,045849885667643
0,021770356928761
0,0412067598084986
0,0282763460103595
0,0355254256942652
0,0387882319646962
0,0300454694940261
0,0299852795446612
0,0366241294477998
0,0421393633340621
0,0360013695002779
0,040028872798829
0,0325441376975841
0,0428535521763569
0,0366741678174083
0,0420717474491752
0,0398080026480572
0,0434066827013275
0,0329750021492795
0,042074640249993
0,042127764344098
0,0348984033706266
0,0463357767398004
0,0407633337428641
0,062712899414711
0,0452632405493289
0,0471820236553156
0,0537562841372396
0,043016355912666
0,0432638831048095
0,0509774946347501
0,0521651624643908
0,051954798753486
0,0564817234389364
0,0556061719204195
0,066967482272741
0,0676480449205193
0,0531623495361986
0,0632200444319299
0,0663145704117329
0,0729337019051829
0,0612901093130406
0,0710063458829962
0,067299250106717
0,0721019938544716
0,0757143583443707
0,0676937188611823
0,0781555045572122
0,0796361599280882
0,0733969881279559
0,0937505649292377
0,0766848475066397
0,095870058665497
0,0781564619410815
0,0878423458787961
0,0862419523387733
0,0997989235076697
0,0995175408787562
0,104224526749038
0,104373309029396
0,109439612268286
0,103928481734716
0,137501870291622
0,112144790186425
0,12648886117159
0,107558969091336
0,131811042081473
0,132144790565273
0,126661258418492
0,144542834619451
0,131279639343306
0,148152776390156
0,137614841509319
0,14183383419029
0,147368210014735
0,157479384820817
0,158077143842938
0,161924087205537
0,170481641306736
0,163372256150568
0,178013513538369
0,173881044188374
0,188095843541869
0,188583424479266
0,189008624044066
0,186987883131323
0,188381874142558
0,191078939337062
0,218302978805988
0,209035583065904
0,234152004992059
0,20252646707446
0,222165665161909
0,183498151351828
0,23460774612161
0,21715136124621
0,237890215698813
0,232199247337882
0,241865819663476
0,238811308607653
0,243736660486535
0,240855309563974
0,259182630240051
0,248720681617046
0,265155124447407
0,255980043336314
0,269683674187234
0,268250703725225
0,277543276124229
0,271590497426973
0,272047031518341
0,284614650107995
0,304305607875178
0,315598083678115
0,291835107849933
0,284760450743042
0,28378356949517
0,29111563174891
0,301331847140995
0,317619363954904
0,299453986007084
0,305208913730778
0,320595953659133
0,328716432768157
0,343061230007622
0,309622258869598
0,311004310631542
0,32057205888939
0,34547199538997
0,344412901854487
0,332026078049783
0,349112188657927
0,33038076524104
0,346249352925469
0,373868300600178
0,366217942068463
0,350290073687066
0,350459040215008
0,347161891314306
0,357972818225189
0,361913078968111
0,352271247999599
0,382129143827191
0,370275686158825
0,370647057814036
0,376447525695183
0,381540758585642
0,377812590818202
0,398223166046114
0,405028768669917
0,401615770224258
0,384312319267657
0,406471808411757
0,418750764914425
0,404106256532957
0,413339126488762
0,402257119345159
0,437634267302665
0,415499192879604
0,440426525737328
0,41224420473155
0,411945253920039
0,429871456133681
0,431561247318034
0,432371439802458
0,436272562224029
0,449855187290062
0,451434421276887
0,438343083474741
0,445236526770478
0,44956797219648
0,470109359326867
0,466825266428127
0,437904943379697
0,454060709960493
0,462857913276181
0,46720251705022
0,497597001813124
0,491497666220603
0,499386089509073
0,469687266665171
0,477535512489821
0,474913083824781
0,473548641207144
0,490367070731295
0,494281683473641
0,496348419228088
0,511418494877712
0,519660449918429
0,513621233047881
0,524273718411674
0,537788915258557
0,524138886620054
0,536715197191903
0,547068339914775
0,56078381163601
0,544968045734478
0,544678260806366
0,531878710019899
0,557262843258581
0,544136803514892
0,559329161710754
0,565460598361811
0,553962568915155
0,57266024058944
0,566902027216613
0,566468074316484
0,589429311133139
0,554198366155026
0,577673458989708
0,600355802660798
0,617195748379621
0,59489016174104
0,624998879260892
0,606477208640513
0,586568025345139
0,607689871540077
0,61935544983637
0,605147194946554
0,610069544947457
0,646926050981199
0,659460010959423
0,62516940131001
0,669849028713734
0,620296759095897
0,627956066432245
0,659811689921822
0,675816104828709
0,649774792818218
0,679064360739826
0,657642168619509
0,676647947520233
0,654611956371837
0,681395103294596
0,660064019512968
0,637709107023637
0,652536429135319
0,677191574919255
0,69019552419514
0,682817464464504
0,683804143570055
0,7091045653394
0,679915241332458
0,736310197696031
0,702755984868941
0,721300767043909
0,711367403653906
0,716592982644918
0,706518713287831
0,737063019169874
0,710465307150083
0,725320102801407
0,68846065058994
0,755645487675627
0,761520144960324
0,760465935717375
0,748786695231287
0,732909701275643
0,756474552020699
0,78135844925578
0,769908101023043
0,799274690393219
0,752799521062777
0,799789567548241
0,80129244453927
0,77181112705651
0,743584344975834
0,794404232487609
0,807805941466215
0,820585406714613
0,826753428216733
0,813433508141816
0,798026321927857
0,811228556351599
0,800098406882547
0,851836831565108
0,786165703447145
0,864554665100738
0,841967909157433
0,862287755130619
0,796336232455104
0,84737700740934
0,817378376042466
0,827658545202512
0,823154614661419
0,866419767755537
0,876000362463251
0,863622088200355
0,822166696206488
0,935695983224758
0,901793986443802
0,932814403422591
0,861877360601257
0,879542080493001
0,86644061076478
0,945309720025196
0,897519279474613
0,901227549484771
0,88229516138584
0,930374074536362
0,905350413659249
0,900268783385342
0,896799374324453
0,9427398992432
0,917003984304228
0,950028736803619
0,913625330224119
1,04001691775485
0,915747416588041
0,989632182374846
0,963723207868619
0,963313609754848
0,965039020555187
0,973115837717701
0,92288469898732
0,961741639793071
0,948087025558526
0,974276395116053
0,905091085501291
0,997349153150501
0,972406653009869
1,02132829215384
0,980401407839637
1,06805521364181
0,940925843088045
0,996409059298331
0,979398061829439
1,05617334505413
0,979671148775439
1,02568662983682
0,982845755565339
1,08119447634405
1,04301033894628
1,10898255057434
1,05424536800365
1,11989496708466
1,0164983198432
1,10181623943496
1,04528241440265
1,08425626003597
1,00193444244275
1,14883239725156
1,0399132171891
1,06609720275797
1,06270153262007
1,06846944520044
1,0880012657619
1,13303940537445
1,06694043667726
1,09065622443585
1,08812263918604
1,15628181460237
1,06486555418618
1,13568411008267
1,08764302632742
1,15810323179409
1,07424442776202
1,15338231893812
1,03602389881402
1,14550042282414
1,03032389927339
1,21935400160626
1,11359541966697
1,18316678370236
1,09011152882601
1,19955971416191
1,09591288402568
1,14408280114355
1,10316329604248
1,19491390769831
1,15449928548639
1,24455083669312
1,15208849719383
1,16446477667341
1,16128472418228
1,22759344135194
1,12705164135611
1,19828429443664
1,11867251969568
1,2311227744497
1,09662616749686
1,19233168152769
1,10961540107521
1,19619512397159
1,19762285628688
1,28363686023009
1,09924245113696
1,23148405934751
1,29631587386991
1,26904438946354
1,05296968376694
1,21908798773626
1,15650690144196
1,17105243690087
1,19001009028251
1,28957690273762
1,17015347780725
1,23145307476705
1,21992294514692
1,29126299575994
1,12504645776567
1,20541551737331
1,17168125269498
1,23959925778436
1,16540001570318
1,34947196362955
1,10991175365046
1,32999899631274
1,14138757450878
1,34609053389595
1,21863724349653
1,15051144047433
1,15962023369829
1,21943488489018
1,1424355712789
1,19567444476685
1,1336623757866
1,22475007817453
1,13327590042368
1,26738930586643
1,22346278932113
1,22788545689237
1,13548587827436
1,24924553013376
1,14073393942109
1,20842420661571
1,15628557506847
1,26567002370479
1,14791780224663
1,26871547208942
1,22124607641985
1,35947819736557
1,09907855440465
1,23652201829227
1,23864998090922
1,28430983387223
1,21145808044159
1,26314340790974
1,17088800386297
1,17907701289958
1,1176109820526
1,19171643141911
1,1499345691922
1,25445671166788
1,12739366740752
1,36040590603606
1,18317245318389
1,27903754303251
1,15235210891527
1,22016801226893
1,14066745684134
1,29169549538078
1,19050117023149
1,24975390527652
1,09613757167008
1,22301479787495
1,1826247791845
1,21440928374382
1,17884219310777
1,29039332700272
1,14891915328716
1,3147509289852
1,14314817681097
1,27144256979137
1,17763126858852
1,22768685554232
1,1509081196984
1,30405280642861
1,18211472025165
1,22126651925708
1,15382848532694
1,25061297021276
1,12527363877475
1,2393532272264
1,19542816758157
1,19976806771115
1,18107992173844
1,22972331345579
1,21810687991873
1,22190588648801
1,12239109670869
1,28540612183653
1,20658711357949
1,2767317625194
1,16177562529628
1,1906489538515
1,15546876115921
1,25057617518734
1,17192423219093
1,27530071620398
1,1210098912353
1,24159355224747
1,18112058249887
1,16434026222068
1,16820682527041
1,2355446934251
1,1689569528689
1,17661695566669
1,17915355786679
1,23173352365125
1,24732005513104
1,23016606021355
1,11774919023866
1,27437376870012
1,21340653014773
1,30916365912815
1,16730805061073
1,19525441533142
1,19342206519212
1,27804120328415
1,17115776965305
1,19667799988338
1,12079157708859
1,22977047940818
1,17970524893762
1,22921021004384
1,13886738550091
1,27856194795228
1,15713486482998
1,17868146930771
1,14119975462991
1,22439707285861
1,14125639679916
1,17617059703753
1,15536080571587
1,23398824007102
1,21853282797064
1,18270836673716
1,18834781690117
1,18939101199712
1,11341118478869
1,19065032432617
1,11826601402377
1,24503271193732
1,12514436788774
1,23411933291428
1,13929866816185
1,20601088247488
1,13053892387044
1,19272456868305
1,10744169104413
1,2604673691355
1,15159097681083
1,18406141353101
1,07028918443481
1,18832494454073
1,13704364538958
1,20105473740328
1,12057500515911
1,15680999335209
1,11042878975502
1,20388516902761
1,0714307552229
1,13954665946754
1,14113262811284
1,24611891559773
1,1112596285818
1,12814226526637
1,09904758682187
1,21134984878683
1,0420675562979
1,21801843520661
1,08533920570426
1,12320345957055
1,0888585904051
1,07414838802905
1,02747536706586
1,13304798950256
1,10164315930213
1,13354511537541
1,05492033474489
1,07674893865204
1,08196746217368
1,12876120611074
1,07929563462105
1,12087382544394
1,01907455426352
1,09100095347175
1,00178090839579
1,07583701995881
1,03002704239475
1,0956174948594
0,986860363640464
1,06295266886526
0,986681255304094
1,03387703759226
1,00226885948705
1,05603855430571
1,01827649219963
1,0044002592192
0,986073109009187
1,01424651127389
0,991130946501869
1,00629860704685
0,991144321309692
1,02465942364385
0,943987742635075
0,992449099450677
0,91914440972564
1,02305938699577
0,961248586111575
0,974420787416423
0,966401847864235
0,994355077371214
0,932510475492701
0,958958218536998
0,914561522710933
0,957242822790847
0,936319439299661
0,942184163418306
0,885464219847099
0,931559908550727
0,892132600240311
0,905328583561231
0,890288772264329
0,903573428100152
0,840386734698617
0,863877287800629
0,845578517395935
0,919962772756098
0,864332793087635
0,91037309564099
0,830568867048579
0,870177862855345
0,831105645650846
0,858112142344453
0,863416799112113
0,85255969909896
0,824441854812684
0,846775732393619
0,809752846038037
0,849931928525898
0,819519247158525
0,812177191396302
0,793028156240038
0,817115218835753
0,777693730362076
0,790333445123196
0,774833389721484
0,792806344681316
0,770793455564846
0,801107147768184
0,755585796504351
0,779072653679731
0,75504158943917
0,773559088798507
0,753847620845118
0,735841112440869
0,712099095626944
0,739357020399163
0,710629183442584
0,734630279073633
0,705844977210538
0,712837714089229
0,689172240610293
0,718110038580515
0,694518496627719
0,714249595205164
0,696932130807419
0,687571109697823
0,687579637520771
0,680569113578029
0,671094994686847
0,673015843261665
0,679499058278706
0,680073609028343
0,651759003928969
0,644831459946055
0,652048645863313
0,661873706195357
0,644287249848655
0,634653329355506
0,626801525608139
0,637707285796334
0,622804668116321
0,621431161041827
0,60680151134067
0,626188790751758
0,599258835002924
0,604543883537565
0,59798721528047
0,599027967643434
0,582045719194868
0,613351640632
0,578549352861711
0,575231181092072
0,567612731016987
0,590312729163665
0,565779108918154
0,582018044096222
0,549577601971867
0,55711734088171
0,552197768206955
0,560729369623679
0,541401336999035
0,55369974723098
0,53429982898435
0,535311422989532
0,52972596637823
0,545837558004615
0,515527606244925
0,533725453574274
0,515110677888631
0,513214753021856
0,496475179785472
0,513386126767
0,493043273433072
0,51081934747799
0,495264756572127
0,498605915277924
0,490467418841871
0,485628061439298
0,485008178303973
0,491350161906642
0,465483082167413
0,478495974765412
0,465969205169809
0,464472770803996
0,461850669354421
0,468855025364743
0,456145534843125
0,462459345626398
0,451575824733977
0,452442464834546
0,442090735759085
0,443129109321531
0,429166337856301
0,437585016178713
0,422629478055115
0,43606573499863
0,417882117350104
0,426162692464251
0,40486167735026
0,420825940350855
0,412863981152549
0,42145258755246
0,409984481559998
0,417073856598309
0,405172203219255
0,404451521059765
0,392003340754622
0,398915171942243
0,383029365604572
0,397014232647206
0,387446142422676
0,390742886381397
0,367402850504094
0,384181844409783
0,379685728180006
0,375545675935267
0,367787764433759
0,36994737237487
0,362328866826135
0,356092708566122
0,361583619250347
0,366885170688249
0,352995139264812
0,353697545173628
0,35221593648417
0,353194098426924
0,343043536065045
0,350883438382805
0,333847754007392
0,345353672970922
0,332532803121336
0,332986572698232
0,328056637402806
0,333661192965416
0,325896871321262
0,326397669094354
0,324704069308307
0,327785279498459
0,320394427106797
0,324143416602466
0,31866011723752
0,312228520652371
0,29866125291475
0,310473925806633
0,304624020678978
0,309621166855701
0,294517742129308
0,301666710692165
0,295519836088626
0,298355108745919
0,285292168516284
0,292864845528686
0,279967471444466
0,290481651448987
0,278248522180555
0,282273338500635
0,277629036575709
0,283863443681313
0,271353935677593
0,274530135856928
0,269449955974163
0,273863849950517
0,268880092704633
0,272877790533239
0,257523225051898
0,271353543321677
0,258543780947818
0,263540144282197
0,255308564712534
0,258234251419676
0,256697047306231
0,257055797537214
0,247542872174308
0,252499987266406
0,251613524800168
0,248110892491412
0,245332069942864
0,245402416423378
0,240013138315706
0,240662750465817
0,233212511426405
0,239720052421126
0,233724285986143
0,237134615699628
0,23000727426455
0,234236395790199
0,229420195430809
0,23323035635726
0,230290690830094
0,232277596804739
0,226861834944548
0,225462441867116
0,21975482877233
0,218858268126505
0,209822986875388
0,218536951161341
0,21132833842778
0,222016355180663
0,213721707125611
0,216045194046072
0,202907029589847
0,206095118726966
0,206274142228075
0,212381058533688
0,207912222759337
0,204754347930178
0,200816562759422
0,207480152914995
0,196717031501463
0,201964200984707
0,198845500471892
0,204300003157971
0,200192064117453
0,195085092794916
0,185928673510409
0,195346805412938
0,188502955711879
0,193819322732851
0,191079951068309
0,187199854936788
0,190292294654117
0,188201174815111
0,180832251072528
0,184787161540379
0,180789945011008
0,187775775931772
0,178917283247913
0,181512655242129
0,179902109003301
0,181872916921589
0,174418160248946
0,174920455356314
0,174366464761026
0,171475266517699
0,169909021191656
0,175129566210263
0,167611265406422
0,166187318154578
0,166945034584258
0,173543627888444
0,166192492316914
0,168591512218936
0,164184931629113
0,1550381731596
0,157296478624664
0,161877430381928
0,1552603589325
0,162329081333529
0,15882031964398
0,16807014287391
0,156933783734224
0,153523966348456
0,15019153122469
0,1559631200835
0,146877959363392
0,15280302577281
0,151663309798693
0,155556926612341
0,147583220430113
0,153020648450675
0,143360636525491
0,155464073671429
0,147124707207663
0,143712038660883
0,144300575477681
0,142909806732085
0,140156687763127
0,146615581981875
0,142612380384963
0,146118962382968
0,138899096076407
0,146244117481426
0,138369008311248
0,140160820114748
0,132326902206484
0,13488684446098
0,13089904826829
0,138556343501821
0,132587921572873
0,134559569343872
0,131203970398085
0,132009563966025
0,127250415268895
0,137558700428564
0,127327682229699
0,131994978375007
0,128669791144934
0,127992232508235
0,123947957999368
0,129400252017366
0,124523304214626
0,121635523440247
0,118384726250749
0,126751536016584
0,118352702481242
0,122630160574456
0,115475700860714
0,12290252032942
0,118928546361288
0,119284758722543
0,121454559896115
0,119896585427683
0,115458682169078
0,117731849869488
0,112318412999725
0,117311795274273
0,116112301381819
0,115666498499001
0,111387365030212
0,110121013472314
0,108413799278537
0,113017064943644
0,106850155283388
0,108289432236912
0,106768079647835
0,110595946169001
0,108269401303525
0,110499033607548
0,108120214416987
0,110965806572687
0,102786823879669
0,101638892372991
0,105000672010679
0,105390590915394
0,100325808429706
0,105199667740043
0,102443484087022
0,100919570456605
0,0988109943323066
0,103469945150498
0,0970337779807906
0,0982776799375278
0,0954891625225582
0,0975711233703539
0,0942647835524169
0,0989595651962788
0,0967431367831918
0,09531673851016
0,0947948466256745
0,0972998631052309
0,094926841223851
0,0982907488849176
0,0905685360403522
0,0954694357552825
0,0918556232837229
0,0990941584793014
0,0905495789615312
0,0926440510225433
0,08671113945065
0,090139153827005
0,0896863517573934
0,0928565847392925
0,087288296954174
0,0877320294872053
0,0889497721094579
0,0885402901486902
0,0870690871253581
0,092220699293891
0,0822729365212044
0,0883417065215537
0,0882066552206087
0,0865899013373703
0,0830361098573655
0,0839677956553873
0,0796530297229511
0,0814556669897261
0,0854380487768899
0,0898138383848452
0,0808391413918665
0,0824772614626554
0,0830071752106702
0,084771464644806
0,0790416707250093
0,082202916049527
0,0839206166657559
0,084598433811585
0,0817801571006616
0,0816998206370825
0,0790206758914656
0,0800210415720932
0,0796202920324422
0,07983277169883
0,0772608842254428
0,0816132328496492
0,0768919940340608
0,0734068915138235
0,0792866923833847
0,0787945720467711
0,0765117895306158
0,07717890320165
0,0725564815822658
0,0762162619182601
0,0721764002662966
0,0769628709584459
0,0725626084833504
0,0777141753046526
0,0742589491811136
0,0740559667854808
0,0736785027524375
0,0744245691472247
0,0699385429542119
0,0757515203302726
0,0692915187348262
0,0748959530917461
0,0746363373056288
0,0747502109050176
0,0733546004657675
0,0726768440412885
0,0721698105512976
0,0735239887230077
0,0714945617566308
0,0723352494295917
0,0694488046191183
0,0699881345688129
0,0734358832649991
0,072001470403433
0,0664742939962976
0,0700159608199718
0,0668253616976712
0,0678091047993207
0,0672481840242363
0,0714885944652306
0,0682289041581183
0,0694151056987319
0,068178735553107
0,0648111169183452
0,0642022597729096
0,065767866317829
0,0607095963094436
0,0653756942159106
0,0666170176730213
0,0651195390242241
0,0642676477816064
0,0681957003297403
0,0648617729812497
0,0663644308536791
0,0621247628005797
0,0630005400737029
0,0679173970904435
0,0679832367175471
0,0628487782813217
0,0657265668842416
0,0642365531531875
0,0658404167201346
0,0655632987411664
0,0648526698854008
0,0630166724454664
0,0661429488140259
0,0639983532769574
0,0649704496548592
0,0620300134305177
0,0663780355367155
0,0610631293043678
0,0617968809625425
0,064160986959599
0,0638544732849921
0,0576443626962555
0,0608190657531445
0,0636884730469382
0,0640027937690454
0,060715507234902
0,0632029611437907
0,061356823790967
0,06103186051059
0,0583248997576062
0,0605521477126559
0,0615499236740238
0,061419086591074
0,0636077132673856
0,065930592211668
0,0615529444526165
0,0580472071396491
0,0566469208974874
0,0621779453448257
0,0605213755857556
0,0647576869127697
0,0609839709390238
0,0632156984583091
0,0604104710069264
0,0602170547639198
0,0575147505871387
0,0606421580495511
0,0619810582758198
0,0615898339065784
0,0591864021794876
0,0603664777017908
0,057120601237885
0,059326954261068
0,0572878467278555
0,0582282763412395
0,052672530106819
0,0557948402071824
0,05630605831083
0,0600018891748741
0,0590513966378804
0,0571465927185308
0,0575469431313153
0,0608774279493566
0,0552682421134938
0,056464794453879
0,0586506956653723
0,055558871407121
0,0526417122244575
0,0553566200855216
0,0567036593679076
0,0597334180958073
0,0581630403178902
0,0586336693569064
0,0577781060768298
0,0564402939242088
0,0552907407777992
0,0591707782133604
0,0540282661181171
0,0553888534433017
0,05790434990203
0,0572530163689541
0,0541714703096211
0,055442192012942
0,0537484703800692
0,0564987028304593
0,0553456832088702
0,0565063116768783
0,0551744528695453
0,0554315916951889
0,0548803133598077
0,0571645893461317
0,0542682313661561
0,0527109276491017
0,0539590477921662
0,0581876495187223
0,056795817135871
0,0562171200754973
0,0550106107477349
0,0531544253947204
0,0545144173058438
0,05850495301733
0,0533777477374938
0,0542434660836528
0,0538237977830532
0,0557279785238712
0,0523596241859559
0,0544592257924947
0,052947668772125
0,0569161728528028
0,0543801396852295
0,0533946109519796
0,0540683759719267
0,0545841275566676
0,0528661283309477
0,0514998132610875
0,0512129526195764
0,0563542744993244
0,0549272477504107
0,0559879317879841
0,05458888725175
0,0540625004707564
0,0540762530813663
0,0532402849661493
0,0507593025623994
0,0544037818049711
0,0526079647097047
0,0518199031173854
0,0504374187349756
0,0527685169796471
0,0506019382351677
0,0493779932901938
0,052039614996564
0,0542840049967653
0,0513583365970753
0,0513431610080317
0,0524593955188757
0,0512800450286418
0,0526283813667454
0,0543928160585775
0,0538657346396296
0,0558327779232583
0,0498540229464051
0,0516385534672047
0,0530264433476122
0,0565617307343944
0,0512279729675506
0,0500427122244839
0,05176939866504
0,053692324586965
0,0509261123577555
0,0533776505920844
0,0523936488659675
0,0533003255015899
0,0530979019677591
0,0537542994671249
0,0520339748407175
0,0558928822480955
0,0515534493704029
0,0519875787572369
0,0539311723426288
0,0529231446837787
0,0520166636673723
0,0543830338204118
0,0535542878504572
0,0532132845440486
0,0513546116944327
0,0523423060272362
0,0515266319261271
0,054926195527817
0,0527186662351263
0,0526194721479742
0,0550721447009459
0,0524251047618616
0,0529702035369268
0,0529123795178985
0,0520916130115584
0,0576617344968526
0,0530237388731506
0,0553981874369602
0,0502121620982361
0,0512768391136782
0,0524701025304551
0,0543387738573781
0,0507893022916175
0,0528714342011099
0,0516528232276104
0,0539176006302363
0,0523651199676513
0,0518168683881763
0,0500005500669108
0,0532488084725029
0,0519544336770679
0,0562901703114855
0,0557624922241825
0,0517563085962071
0,0520143153546555
0,0542745721314363
0,0543603855529865
0,0529147373464158
0,0550753213851969
0,051448738412178
0,05147048833489
0,0538812194526719
0,0518878946289829
0,0529782201905957
0,0552033457205041
0,0540448207910272
0,0533553205727769
0,0526490127281248
0,0520318379254303
0,0531027265821931
0,0552418018693245
0,0562076560566854
0,0529052752842096
0,0518862222228933
0,0554299008097491
0,0537994025029756
0,0548057914837889
0,0571856768948853
0,0556193564313683
0,0533323795698016
0,0523154485138188
0,0561880637689009
0,0547473335645157
0,056574860780831
0,0565059229685357
0,0572986042261288
0,0538409873956967
0,0544761102081351
0,0539756352442036
0,0538260470215499
0,0567519363299451
0,0531035687151316
0,0515101311787647
0,0521151397139114
0,05399571316946
0,0540273152921941
0,0564065823831596
0,0545971682243509
0,05189171382717
0,0544853874208127
0,0541667662118194
0,0528653392862554
0,0525358429268977
0,0542867173555762
0,0558173527154024
0,0597333154383443
0,0546973989356318
0,0521714640299268
0,055253589241789
0,0566247124826731
0,0529966388861954
0,0559056252367053
0,0558860250087836
0,0568436735601706
0,0574769015436965
0,0546890597971308
0,0551538560349583
0,0554614292213519
0,055795338029235
0,0603626041133855
0,054090147655211
0,0551652040922587
0,0561243842406441
0,0568358001614538
0,0564813565282658
0,0571486511549887
0,0580396744165591
0,0545152365713605
0,057559767531644
0,0577037403604091
0,0580148380066673
0,0547255538612647
0,0538585948528667
0,0553723948834287
0,0559216881117641
0,0570817093127748
0,0568596344108436
0,0566242240497966
0,054639951686089
0,0555294090807503
0,0557022180292507
0,0550501119926145
0,0556979766880768
0,0568111977447094
0,0581534521580439
0,0583696446613017
0,0584683030891232
0,0586597891015001
0,058038263493763
0,0569894263935265
0,0588467681258183
0,0603757817744614
0,0591213558756385
0,0596476683937104
0,0565899051373361
0,0585976238379567
0,0601368725685336
0,057844578151572
0,0592438416661297
0,0584883292425424
0,0558016926324088
0,0572758987800726
0,0616355372669681
0,0579446779495315
0,0559860529305692
0,0582431844992947
0,0594927685141121
0,0575294420757835
0,0579574047002028
0,0564009172551012
0,0574617915024064
0,0569970472179708
0,0592910953088172
0,0579529863197188
0,057898272903394
0,0610595636270592
0,0624195981890332
0,0614280102446842
0,0618461980039686
0,0593622534994386
0,0624204029321353
0,0589942841929506
0,0585642815055862
0,0621757395010968
0,0610841736336096
0,0592183947343645
0,0605878359759725
0,0608161017239297
0,0586403973742282
0,0569618757695889
0,0591723532157772
0,0593932924216146
0,059458674300487
0,0600638036261786
0,0606528115444221
0,0615991998140249
0,064621209798479
0,0609031896130513
0,0628659525289617
0,0630486194146458
0,0611466438626635
0,059240670212647
0,0621237780316574
0,0629929526428554
0,0620586596160395
0,0596028593290993
0,060502122188353
0,0641376415615192
0,0608792345580379
0,0604648762505625
0,0616869207540429
0,0644063594962659
0,0613798393585326
0,0599612411293819
0,0619465603014015
0,0637096885717058
0,0641460312816453
0,0620980085053783
0,0603716240083025
0,0646338421059901
0,0652124249411582
0,0624945073346688
0,0619109049166497
0,0628257867740337
0,0657560408709582
0,0621403106844653
0,0645581804802425
0,0632889286555559
0,0636724325668692
0,0637002762873993
0,065351283972212
0,0640442825793745
0,0641361015784143
0,0631527366436089
0,0656631089520515
0,0669869878730571
0,0682984299689553
0,0637759508257943
0,0646512651387616
0,0655506624420943
0,0664884895311722
0,0615927642670807
0,066055581692572
0,0632782879356131
0,0685512784153483
0,0672684207412016
0,0670024768423238
0,0685338143644794
0,0669559387789839
0,0654694712812432
0,0706027804472569
0,0665592962564699
0,0720865113060237
0,0666876670238836
0,0684182678701611
0,0663433052451492
0,0758309119968991
0,0695916912290122
0,0716092762548347
0,0723507683820493
0,0718435536479133
0,0711476672749787
0,0746022083125965
0,0717559378874626
0,0743830555915413
0,0696986052006694
0,07498889776212
0,0628539962497158
0,0762206983004705
0,0725767499142232
0,075041905127628
0,0720052068070306
0,0716253365633736
0,0645696332653623
0,0771959444027707
0,0679126971305766
0,0734231702275081
0,0672989496554889
0,0735388876572472
0,0622405426513734
0,0752140755189661
0,0662628980816345
0,080755856040415
0,0716127895997162
0,0785394269118156
0,0658094343896349
0,081695795525379
0,0637088471205072
0,0790571590473199
0,0589921615885013
0,0798978277920075
0,0652898562378949
0,0853007003126143
0,0688484468083932
0,0875576604724393
0,0600893763816891
0,0823211132325876
0,0605352169780797
0,0847884925087723
0,0634125064406988
0,0885437873741048
0,0626036147179028
0,0824423697933035
0,0623266470926866
0,0870327131812928
0,0692675733147196
0,0770582870431863
0,0688149002889733
0,0807362293311067
0,07615067812889
0,0712894393535731
0,083877945885047
0,067327526263692
0,0849284746705704
0,0637588779407491
0,0889927741750364
0,0646939592998869
0,0858742717658943
0,0660552073952717
0,0846663876584492
0,0717592253764474
0,0803425638120726
0,0773735440332858
0,0801260988913268
0,0771523086811816
0,0777692458275835
0,0765029380248114
0,0770795190046515
0,078903907828823
0,0807299469119646
0,0748572592868653
0,0802199286016959
0,0754921094928339
0,0822156588439585
0,0757161918603954
0,0791535186282296
0,0765711052983552
0,080210742617816
0,0757189493129519
0,0795557614364647
0,0765887447529726
0,0808450830157721
0,0782495434418594
0,0820104081434321
0,0790730536907515
0,0810046051314581
0,0794421683273329
0,0810985787708592
0,0808214663485086
0,0799101295558926
0,0792205670733166
0,0813252624242002
0,0820882415442137
0,0845350067758773
0,0794212719934202
0,0846682125927457
0,0816289449150956
0,0807541551276103
0,0802561276490999
0,084871840664462
0,0791700191462007
0,0841664916931797
0,0793075325029522
0,0854197905862617
0,0824883712956859
0,0857630606887512
0,0850565370855927
0,0823704279494909
0,081374725757088
0,0842710733691139
0,0827687855987362
0,0877234091822034
0,0864758729305218
0,086443416790302
0,0861975155917457
0,0852765285584906
0,0870740422109378
0,0873245087026108
0,0820551410867244
0,0857375982657829
0,0847161385166011
0,084543728737176
0,0814370568834481
0,0904307953177569
0,0854014161861971
0,0866089311713182
0,0886004482655841
0,0890385058496499
0,0854250821146717
0,0891473912629352
0,0888935697787877
0,091137880249056
0,0888156358641626
0,0877469781273758
0,0912857248288508
0,0899369535453765
0,0868662014167098
0,08961411938247
0,0879093297204135
0,0898261590232271
0,0888331018218435
0,0899738405688668
0,0894221500825491
0,0904150566658251
0,0902504940476881
0,0912594769793457
0,092048971044363
0,0911875080617615
0,091641749896453
0,0924900311690969
0,0926624761138613
0,0936428382823671
0,0920864909692648
0,0950784878275327
0,0940591480460928
0,0942050827271006
0,0937007751853915
0,0958989234249667
0,0936583380205513
0,0949990845889515
0,095343622713919
0,0939777296355051
0,0956159835260009
0,0967572161652945
0,0915915288534354
0,0947793624759882
0,0966753771211185
0,0945581608056193
0,0981673070943871
0,0936503572807065
0,0948310354035622
0,0962310073862877
0,0971823420336996
0,0985246388743275
0,0975996335719453
0,10145792214487
0,0991984389712439
0,099375883997143
0,0980617858479657
0,0974899214202935
0,0986869906436799
0,0989226601738801
0,0981646709086942
0,0993442665092113
0,0995763930430676
0,101220346730374
0,102182026816129
0,101486571237089
0,102757854539475
0,102361874188246
0,0986615094484552
0,101245664081752
0,102080629776372
0,102962896423747
0,102304042458408
0,100922806050628
0,100516529368912
0,10012851397406
0,101411640711392
0,100437453106546
0,104151962949515
0,106175428448944
0,104048829926289
0,101124724333872
0,104346396737402
0,104407681625199
0,104433708868525
0,100509159468393
0,102833562149634
0,10522455928113
0,103584491290859
0,103201599886625
0,10329346673419
0,104750300092403
0,104881603648584
0,103882832184096
0,104427957086019
0,106318062740783
0,107338338851451
0,107935799790102
0,107412282235819
0,105973472963162
0,107331501397485
0,10637057209762
0,107688115985955
0,10820766924687
0,104975676164048
0,107395141422486
0,106525437679933
0,106235257904057
0,108246442994064
0,108071390842588
0,107766512616983
0,109018721131164
0,108042788759708
0,109032666873188
0,109062183140182
0,108472259099995
0,109631202394625
0,108913778029036
0,107337243026608
0,106797443796557
0,110861098493
0,108306846801114
0,108393106428195
0,111417231959577
0,108590389782294
0,107172848227409
0,10588028893441
0,109965132992012
0,110685573732539
0,108007933826655
0,110144826165452
0,10963605557316
0,108267650356756
0,110203355935907
0,107323960330417
0,111127486538642
0,10896928679619
0,109613182789517
0,109155619180564
0,111816950373532
0,110961844952628
0,107522254962764
0,111252175379329
0,111065168722558
0,110187206032791
0,109797348104896
0,11081428983274
0,10996460106354
0,109931824382893
0,107985564440216
0,110432633687445
0,111387536923888
0,110807182570537
0,10928630522936
0,109846661563046
0,10998229359143
0,108800661608133
0,109729691455865
0,11004224004463
0,109753005038902
0,10921832747715
0,110991167112222
0,109105994399497
0,109399711002589
0,107771029618681
0,110265178813976
0,109476920215071
0,110276794909794
0,108816991605608
0,111767360621207
0,112157033905598
0,10757300319988
0,107728465658622
0,108864948110931
0,108667171290381
0,109791111120218
0,111042399379101
0,108903467645099
0,10710913453879
0,108351126599018
0,109544085515396
0,107184972950453
0,10800142098053
0,109009920668555
0,108244829967682
0,106891470203896
0,108668646877496
0,106613701191624
0,109099196687074
0,105378458770318
0,107012886069783
0,105720528720659
0,107051110195658
0,104450833250468
0,110027444690545
0,106590812165887
0,106636786099391
0,106538499505341
0,106468054724132
0,105636899622284
0,107680653458009
0,10528621226281
0,105561851518919
0,105799772710606
0,105172741122989
0,101611386773779
0,104481945661184
0,103304729087358
0,102522223177246
0,104622952283644
0,104407525014987
0,104868478141349
0,104753306545662
0,100514104283116
0,101200407973519
0,102874353976385
0,104380496035462
0,104472546833906
0,101810621195539
0,103208245770348
0,101378615706733
0,100984121605921
0,103265807721759
0,100681281798822
0,100455405692685
0,102049091035196
0,10281728133357
0,100821483905831
0,0999318616279177
0,102649512160215
0,102309704179693
0,0987221328796799
0,10159612489497
0,102638620804901
0,099768947320327
0,0965880578128515
0,0975217855517248
0,09758274289048
0,0998747104161004
0,0972728118878313
0,0967845882797808
0,0980558993038644
0,0988867691643365
0,0964067978252443
0,0964676970058316
0,099008844344369
0,0951620442721459
0,0960209075429172
0,0954382764466045
0,0959020252709315
0,0965421058488821
0,0946696700900555
0,0981105309383424
0,0945440829084865
0,0944668078343654
0,0941745751381033
0,0944856212194751
0,0946033545895299
0,0937676496550544
0,0927466874707437
0,090838025775597
0,0912629111439386
0,0933089525594923
0,0912072365952401
0,0930116057650307
0,09123202163856
0,0927441521823612
0,0926467873056941
0,0921073610874115
0,0910087673914095
0,0923048225048771
0,0908112029781351
0,0897583373956117
0,0893794089602778
0,0890490210929172
0,0890462935914504
0,0930376718033458
0,087163494415702
0,0898358013515493
0,0869075036016434
0,089364404981257
0,0864226248846931
0,0901602158272557
0,0873057624906963
0,0914684287400535
0,0892372583046039
0,0867200179107575
0,0862231882579896
0,0861544882434992
0,0861685676522974
0,0862054400489712
0,083106343307649
0,0863968030896621
0,0846228364955596
0,0842208801393792
0,085016808007679
0,0850148221853311
0,085058125357835
0,083723973092322
0,0848224155787799
0,0835378185463024
0,0842948280255033
0,0832669593375069
0,0838245195425833
0,0839143831078055
0,0849322625322719
0,0806644452383078
0,0851840724905254
0,082796835999712
0,0808358944204199
0,0817129766695773
0,0832404716943904
0,0808588506206871
0,0819925500970129
0,0793033195458882
0,081041783477688
0,0803204867517237
0,079748171468682
0,0796757769264791
0,0777167624982893
0,0784249786092313
0,0802520419326978
0,079885177144654
0,0783316398828324
0,0792245546670511
0,0800055692180866
0,0775784307735142
0,0793524415247074
0,0755170275834439
0,077601596869905
0,0757496106937073
0,0792799583733484
0,0820074475710477
0,0756210377571366
0,0792475673544339
0,0781034791551019
0,0775017504568187
0,0746565577759597
0,0781170662534577
0,0750562547193719
0,0778521719762794
0,0753804741199099
0,077039326795614
0,0763795948490227
0,0750709764275983
0,0736861790571047
0,0772684198435033
0,073667417880802
0,0768296536223152
0,0734026342792804
0,0773670488388738
0,0720046925931982
0,0765391334927638
0,0739562413897814
0,0745642741295878
0,0740825324488984
0,0764268560457018
0,0739233413327569
0,0813403167660681
0,0690491664457064
0,0765268891508337
0,0704620736288003
0,0731575571127643
0,0700082334486937
0,0756861413811313
0,0734151533112388
0,0742299935459705
0,0760974583264769
0,0696343239471676
0,0725710110142203
0,0735082124483171
0,0746584853427544
0,0696235661874536
0,073409945879748
0,0708438610629702
0,0710173715677748
0,0705396008470597
0,0706440787887199
0,0746827884548458
0,069943511751393
0,0753828355697928
0,0682736111408289
0,0712605412263889
0,068077675999129
0,0707979280353545
0,0689202647362656
0,0707026525086078
0,0704777059825115
0,0752244686869307
0,0742631643844336
0,069040374069237
0,0714842827873772
0,0680438978892629
0,0706482548395462
0,0694046778285203
0,0703754475985613
0,0688775792537667
0,0712541806045989
0,0697082384026594
0,0709328291156536
0,0688584799036481
0,0695925012406499
0,069132483251969
0,0706052393646794
0,0706204581799009
0,0719542291587559
0,070755305743951
0,067226827948812
0,0728080369974384
0,0698216382861847
0,0753337172382815
0,0723981504336733
0,0722318942378875
0,0700451940279952
0,0681026372056757
0,0701180596500552
0,0695425622374772
0,0689791115887768
0,0694230494634764
0,0704137548767852
0,0712404931671645
0,0703114596090604
0,0693946601690633
0,0703882263483161
0,0697266359866845
0,0695385096892579
0,0672912679324749
0,0676026306704963
0,0693308846340997
0,0713928707692483
0,068653259446017
0,071276824288926
0,0675934134439834
0,0723051896031525
0,0673094223905015
0,0742843947080568
0,0672550663504119
0,0831167499978728
0,0686837269239648
0,0708403944855633
0,0719469560513631
0,069092557526501
0,0705123464194337
0,0672961556829253
0,0731347440523014
0,0734660263745513
0,0688058891358232
0,0720640103660341
0,0729888798151012
0,0716795577255642
0,0692245813927934
0,0706494354422159
0,073624799316577
0,0713247174021523
0,0690651580312591
0,0758185635862288
0,0716366931956811
0,0733990573123171
0,0773750185550232
0,0701824970014286
0,0757613035791025
0,0712349494542653
0,0733997772930081
0,0690918692278555
0,0739631905255446
0,0750066918964428
0,0745425797990912
0,0731087052865442
0,0736228102034844
0,0724008593572189
0,0723837825489995
0,0750386051592112
0,0746087164183724
0,0769219585619608
0,0746906022572441
0,0726398136475104
0,0779383659638102
0,0757294010374742
0,0783725105615612
0,0780114233093176
0,0752258038226994
0,0768089327099347
0,0802842815894402
0,07601297751792
0,0780843141168037
0,0812617059221949
0,078556583879587
0,0755790455583003
0,0802711819379104
0,0785768339273888
0,0798050117918825
0,0785893550538843
0,0828952085936996
0,0836218439022777
0,0738986834879684
0,0876022515619932
0,0774801015816015
0,0866280437597359
0,0790367908489261
0,0875724785030717
0,0782658011088946
0,0849584753661354
0,0776762391889709
0,0874814704243054
0,0840028562178225
0,0871742249535255
0,0850008817435405
0,0861316117061844
0,0854485498050484
0,0872948249299713
0,0868378053153449
0,089204131587544
0,0899320956571382
0,0862899418093477
0,0989391962150133
0,0892194854028022
0,0922633529667959
0,0920585626449869
0,0918032880024954
0,105726796200529
0,0875885169383884
0,0959823927649397
0,0909046740367491
0,0926530507371138
0,0972798082034217
0,0968937162171524
0,101284576249118
0,0949865516812166
0,0953795001966703
0,101926950314817
0,0994986268049792
0,109422097274021
0,101859190483773
0,104390367373551
0,104121065085618
0,109072473067877
0,104940043693126
0,119610178815867
0,10816999903142
0,109692106879576
0,117809184385648
0,110265681615081
0,121342977698754
0,114723168245626
0,117911059897454
0,115039997704289
0,122285884051493
0,116903773888506
0,12207807805288
0,119389917702294
0,131066621613129
0,120862015726285
0,128460450087476
0,126342722362021
0,134620907732312
0,133990060987925
0,146317396261267
0,132967853114752
0,137550880695615
0,134774649612751
0,147699903808546
0,14336191889971
0,144484411661846
0,144438807257571
0,148787145362192
0,151766681977322
0,153387283204353
0,159275586179114
0,15748458993206
0,159503968648328
0,165225122717176
0,163046554269083
0,175928933948479
0,165925252635051
0,182423438857973
0,173015770205766
0,192397698706516
0,182958956713234
0,188022238668508
0,188375567443146
0,190574880181157
0,195914655905408
0,198454485425739
0,20035444422713
0,200663591314811
0,211250354250623
0,218849696970928
0,21158622403068
0,228375027988538
0,219619088033783
0,233797363563277
0,211401273468568
0,291298330023323
0,239122675797906
0,247565915844103
0,248783779711363
0,256194380349544
0,282098356792622
0,262133943812403
0,26663719251906
0,276607340426781
0,278664320713388
0,28257857883784
0,29050415512901
0,297783312870769
0,302918519746302
0,308534053943277
0,307986683853001
0,333968464945813
0,346355236011434
0,336064615355819
0,338795861801076
0,3358992061712
0,348639931097403
0,35641617362284
0,354471311308
0,36273597744331
0,369040636421532
0,375916770861317
0,404523658070525
0,382865072541091
0,395290048606654
0,391660100723592
0,414498655518451
0,408644717780587
0,436508364968251
0,434635327854946
0,427361823497208
0,436428026004235
0,441395830627285
0,453166354253169
0,449443092490785
0,470540251110351
0,470780696654544
0,477320442590026
0,478381547935847
0,491194250957954
0,498848197059602
0,501725884949958
0,501464027996918
0,513253698351275
0,541301029723462
0,544421431757468
0,578770713287281
0,538461894474263
0,530972633164769
0,548814845206475
0,543524547368094
0,579177945723058
0,5590931200992
0,556249001495488
0,574946793536008
0,555411496625101
0,569309210233225
0,578490259343742
0,573830158599184
0,580784929359907
0,589984727386986
0,579754569786424
0,594533144835668
0,590934585502415
0,6002896606443
0,661425800917914
0,585095164155699
0,586180721720683
0,584824376881443
0,579444161930213
0,587515458067235
0,586388641077412
0,566903336444705
0,592181999699235
0,561497937090813
0,566803802035612
0,563739036881891
0,563209750758736
0,552835357492457
0,546271328340027
0,544240649673215
0,525750609255435
0,522552312004293
0,52970706659334
0,516086331078923
0,539735459367766
0,508761808694142
0,494142039375344
0,486555954068437
0,485245079243084
0,473637978247582
0,468089177712613
0,461806708648623
0,458377049762142
0,445926242175271
0,447621150596546
0,438112774299859
0,428095284625663
0,425876442562217
0,421866983652098
0,403983397602116
0,404251625392487
0,401419218453852
0,393925393623423
0,387210694517278
0,381948872706852
0,379230647557947
0,371960053092721
0,369097704265865
0,368738991960018
0,35798396861251
0,351175995805559
0,343708103709694
0,341810132766129
0,340004146553534
0,335193704385759
0,327311448090434
0,326228587683937
0,323182142617641
0,316236196670562
0,322144315896626
0,315726160238891
0,30744207176525
0,308139598711929
0,302653762013304
0,296038215159635
0,302174435582388
0,297410167356696
0,303470874547072
0,29746554215053
0,278948840191577
0,28797609957909
0,282654203430709
0,28266778173251
0,273958132632684
0,288510117207549
0,280418413377414
0,267419685525303
0,267520429588869
0,26649062308007
0,26505148174963
0,273223427239245
0,259024675207473
0,260740354342606
0,255317219821239
0,260170207354779
0,286249018299537
0,25714120605396
0,277762375210719
0,245726134389271
0,252387953475749
0,249762712897381
0,257797713154728
0,243752532150981
0,245949326570661
0,242762281823582
0,241890143712674
0,246630658496562
0,23776689456666
0,237626191712041
0,234353353996491
0,235453136609613
0,241359232060638
0,23440622934477
0,233102841529516
0,24353505437449
0,227025692288956
0,229737727407304
0,237292030639886
0,226221377102504
0,222936571481198
0,227933036965321
0,228255779298035
0,220402070410053
0,230045467539465
0,22170021915867
0,220492883134117
0,222567262659702
0,210302659312433
0,220248263590994
0,215182102242278
0,21869989163422
0,212429266050955
0,223973932337172
0,213161540226597
0,215269866344166
0,224841453374072
0,212135541317347
0,222016908201163
0,210812695772635
0,208849322653806
0,204484398358327
0,215479395838138
0,207558242521879
0,212732955169188
0,206890665696688
0,201147349130882
0,208276188437402
0,208341519318946
0,204330225718142
0,209746761817905
0,2076094226238
0,211425842506142
0,205874342826978
0,20787034568136
0,198624884743186
0,198515417990636
0,200441237346588
0,196355623934127
0,194572124151994
0,20039289733855
0,193521617312181
0,206847019672523
0,193639273287019
0,201122492043533
0,194766879294368
0,195996308105053
0,197603976296244
0,197044214330477
0,197894377687073
0,207494803338109
0,200912764816879
0,201280242730266
0,192525460213575
0,197649485066037
0,19035339809194
0,197390791639565
0,189271263110925
0,191605319957256
0,194997779378795
0,19271144546301
0,193839910966388
0,196014616055903
0,191081263128378
0,200909883428698
0,194008436609325
0,197733547373459
0,193028271463851
0,199507936899307
0,201219011291017
0,198022185893161
0,202397340318885
0,189286807260193
0,194904617631704
0,194756892188768
0,192043821314124
0,196431189657435
0,19682141973874
0,199941134869894
0,197050655048993
0,194456001591423
0,193736651599628
0,194809247123797
0,198752904899285
0,193000761526367
0,212631823484817
0,196904955028797
0,206478722081671
0,189900704753921
0,196552624519592
0,193717761179954
0,193956668316213
0,195417547217743
0,192726868080043
0,196480117866743
0,197199614168912
0,196526240970611
0,192965703782963
0,193070532562436
0,197570403405483
0,192799668375518
0,195803087038234
0,194889993178331
0,191936130107671
0,194069501658307
0,192515341425598
0,198275620633344
0,200414577393422
0,194103475819664
0,198190639250634
0,190834339717523
0,199082787801485
0,190054178186066
0,195692157252854
0,195969387161979
0,194761776958469
0,195589975011004
0,196901967782521
0,195554144407077
0,190666753123753
0,19262848401814
0,196769749512656
0,195175380932236
0,194924924090374
0,188037126175591
0,201385275895473
0,187076584919871
0,206569904804576
0,189729956065496
0,201875645027919
0,196902707263116
0,194413551132542
0,192622151631513
0,19112717655729
0,19486753032397
0,196996340540812
0,196761738103415
0,193961197753127
0,197728903811841
0,1932048918831
0,192215743723733
0,195987797209687
0,194044017581448
0,19865953360166
0,190868504569353
0,19128451804604
0,188750605024138
0,19446627948041
0,194191356984972
0,196362771236972
0,191033986658857
0,194879738244555
0,19099887706199
0,197489811811969
0,192077351235754
0,193791403524325
0,192551394097684
0,190874748533682
0,188886119104369
0,197085958289746
0,191410220712325
0,194969598941945
0,194824907057337
0,192305108935103
0,193432237101516
0,190748411940255
0,191983574726985
0,195697663429755
0,19048316357091
0,194484514002517
0,194211857135475
0,193736218208453
0,192705045949176
0,19553697212554
0,196727537752911
0,190322873324571
0,196477365998383
0,197755835023961
0,192236713268973
0,196925759040116
0,191058774270175
0,193413390203036
0,194056337531657
0,193198501861096
0,191820306771167
0,192318860808059
0,19396443085755
0,195560338834781
0,193105333886879
0,188393169045377
0,191247560017924
0,188825305268357
0,191245819436738
0,190637233480767
0,193981368494714
0,189858342522498
0,190593341929256
0,190543599475662
0,189745705332418
0,188333608550121
0,189315974079309
0,187920561490878
0,1882772858864
0,186833973933493
0,186241792185672
0,188147000449144
0,187546671600961
0,188129910478784
0,188901223260962
0,186332064294142
0,189956371218737
0,189161452923584
0,192368526584919
0,188630684705298
0,190100657263255
0,186884069561182
0,189657254272725
0,186728358276724
0,187380148582291
0,188171432241673
0,187993650434222
0,187022947872642
0,18726544370844
0,187609478982542
0,187018091925732
0,187425888448696
0,185720602044835
0,188857679742425
0,18733203033208
0,186011984497774
0,18816915657139
0,187920139851088
0,1858584159836
0,189076438493746
0,18783036783517
0,189459021133193
0,186801543103432
0,187780419300242
0,186151622263902
0,188645368268312
0,187714798021884
0,189276300632146
0,189554409912843
0,185128180942568
0,185202609448684
0,185121010021359
0,187182078643987
0,186823757539673
0,185953520987764
0,185102515558643
0,186019307101977
0,18730540989767
0,186449473348287
0,184229469287747
0,180701600699215
0,188271951887928
0,185189624774983
0,181848268115139
0,186045942291668
0,183048360360588
0,183691748869026
0,183296456222068
0,185502942470339
0,184027049192047
0,182590392151686
0,182408346324824
0,183033290629384
0,183816735578147
0,182320278072542
0,182671300357361
0,183572126910293
0,182902666070049
0,18397616890894
0,183698533063204
0,18245624606878
0,184923136504242
0,184295366934193
0,18242662368027
0,184818011813913
0,183176617555738
0,185196203232769
0,181981786220741
0,183115733196914
0,18427412531023
0,182971446709503
0,184707125686031
0,18330877432513
0,182903447221288
0,182807738578236
0,184296540157746
0,183214561996689
0,184885914929226
0,182679637845156
0,182251292461149
0,184690414720712
0,184952824007717
0,184874733178438
0,185157269300575
0,184740135849851
0,183227408819609
0,183524679392398
0,184086768104736
0,185479139374859
0,185179185473932
0,186237724596696
0,184995960537883
0,183235912626637
0,185986994600725
0,183862405283428
0,18294169661816
0,185459419706642
0,185005470362828
0,1820463355237
0,184286866537031
0,182223897669672
0,183610537120895
0,184631870673492
0,183751006958789
0,182591875938829
0,186339166829571
0,183153076762815
0,183104595159972
0,182881455941454
0,181479103328016
0,181292348100376
0,181014101696
0,184537034418865
0,182275525206449
0,182305796840265
0,181114727164333
0,183887773227808
0,180947635798338
0,181226669201435
0,182862238117524
0,182061853328102
0,183132354936688
0,181356724086468
0,182817562090962
0,180637140096252
0,180116868979974
0,181285804332822
0,178660536240468
0,181942540953901
0,180941845563142
0,181039924061863
0,17894212383574
0,180853414152791
0,178341353323794
0,180173470674384
0,1790595714098
0,177399228583879
0,176926765045943
0,180296213924465
0,177925934490978
0,17796495295318
0,179372544727664
0,177214825664004
0,179872368300382
0,179382162241302
0,179101428251949
0,176913236200233
0,176543110105855
0,178466416679265
0,178192674195201
0,17687714047448
0,176307298937988
0,17873059702044
0,176931569945588
0,177835781669202
0,176554859692487
0,175138071382014
0,177304035307436
0,176677564399186
0,175986527722517
0,175580307118069
0,176653307919078
0,175688890858531
0,177453256386314
0,175750286813114
0,177128658244768
0,178387682866521
0,178598332008057
0,177153126450082
0,178556514499555
0,176027585600464
0,17823594144913
0,177442017514429
0,179539373011866
0,179801555223236
0,182366787232261
0,180210079639297
0,182602939774894
0,185767811064922
0,184696157291205
0,184633736525406
0,186146504643076
0,187893475151191
0,190314590705319
0,189502615946124
0,190549693206066
0,19150103095777
0,193848286076101
0,194325117897213
0,196946329596547
0,196017232131683
0,198194188366799
0,197732052592493
0,196072809542379
0,197863030861155
0,198133099626716
0,197445093666519
0,198878827727661
0,197383789723204
0,196593910268369
0,196731877160442
0,195245499947327
0,197365741588668
0,196509077608116
0,198194607021081
0,197114285930405
0,197306166467216
0,19614237303051
0,196413844898105
0,197221644609289
0,199837807525865
0,195272223475184
0,197728403742676
0,195466750358339
0,196629745890637
0,197377043213843
0,199057348968121
0,195694385780302
0,19533999604921
0,19762201909291
0,199098183010459
0,197122559004669
0,199910096278978
0,200731142126856
0,201397751149617
0,201119305806333
0,202718192908266
0,204640666093034
0,20352201027133
0,205769026967404
0,208612194542597
0,20749881855374
0,208855765939773
0,208473619064494
0,210083361368472
0,211097804262485
0,211446946575962
0,210536747384732
0,210220790211658
0,211504762901907
0,209450578788266
0,211178917148122
0,205773645051955
0,206771782542077
0,20866949406659
0,208230092717411
0,210265645282079
0,210293634258248
0,208741396087387
0,209595496064503
0,206649549547178
0,211181353916539
0,212322168983076
0,214251459453327
0,215718827415278
0,21272575410769
0,216859674630369
0,218716311913921
0,221482881763626
0,21946113762567
0,221440002659429
0,219502558747172
0,225428726017136
0,224642054624875
0,224043897342502
0,229084848865105
0,227906782780002
0,228112461028649
0,228898703415551
0,228529229282908
0,231255741411116
0,234546920391616
0,233985884345403
0,237068960987602
0,24127019031841
0,240692083553901
0,242151769815335
0,244814505910429
0,247207348913282
0,248398111230332
0,247768382245855
0,249644199022656
0,248703075471034
0,249415096816429
0,250583984681099
0,249467775112774
0,248081130954233
0,247054766690306
0,249458671013355
0,245838237254989
0,243252626791475
0,24483245113227
0,241337965614288
0,240858647184584
0,238332166957856
0,240546526064327
0,23852573324592
0,238613907327168
0,238100138470888
0,23913448707712
0,238638702335241
0,239793976766415
0,24148122875815
0,238623973181446
0,240742386518812
0,241091192628743
0,241217408972695
0,241893507762756
0,244668464209147
0,2471814748061
0,249672121985909
0,245484113075673
0,244890273015258
0,247567790001918
0,248749895871839
0,248382578642335
0,24442688616971
0,246813017988768
0,247822172981751
0,248947129704206
0,249032286869263
0,251673846384324
0,247183025398849
0,249019818757865
0,250770243366354
0,249856640775992
0,248088773402675
0,246102281529545
0,247422788667844
0,245747683452309
0,249167820314582
0,247557913739451
0,245757571370125
0,244916707001981
0,245188696548701
0,243850048901312
0,244388841205108
0,242344609220296
0,242529125064484
0,2431791163648
0,242106094986514
0,242354785091094
0,24027206300071
0,239558326972787
0,236340089540244
0,23835884822043
0,23301033003207
0,231959501345455
0,227071423024926
0,226912389426855
0,224928992351974
0,224480620783455
0,222679924302848
0,222111853057523
0,224218901284483
0,22448103287109
0,215749598718668
0,216695804227337
0,21736625676725
0,217569827092536
0,21755923507123
0,219867794661596
0,217885110613993
0,221511976121709
0,220362058194991
0,220601112826835
0,221429040602586
0,221476409607087
0,220485381667729
0,222028247215825
0,218464145495556
0,222062376645543
0,218568590694447
0,221509002774993
0,222540882011942
0,221658736690578
0,220916794437903
0,222901277048728
0,217247141054644
0,221053047138591
0,216694821792273
0,222325273068954
0,221124532031547
0,219677079743835
0,220087651803491
0,217388109848962
0,220522732893479
0,217431759463402
0,21852229801664
0,217176700647061
0,221742921426861
0,224270735131308
0,221165136159776
0,21683074100214
0,219722671857743
0,221029749179512
0,22427053771845
0,220816051116837
0,219627771786221
0,220940552158295
0,219174553126245
0,22366665395858
0,224308420206499
0,220044275092822
0,224875741815752
0,228289893871865
0,228351959039833
0,228461619618521
0,228705983025756
0,229728603433396
0,231787382466847
0,234744791931859
0,234983842536424
0,235835645799917
0,236629978012719
0,234178117613659
0,232834321173197
0,240833926726129
0,239721885322649
0,241124776684305
0,24038417947823
0,242147973721829
0,242755413916041
0,249098672409815
0,243282633026618
0,247361093174912
0,248286553776004
0,246261888976836
0,247816449783091
0,252082077999764
0,255156587337787
0,25808550786999
0,249202608412137
0,253399872996287
0,256439456210434
0,257754668091188
0,256531272070997
0,267277979646395
0,266126964265643
0,265480262377819
0,263732134714888
0,266942658380082
0,268424354413496
0,268958733423307
0,267104697453811
0,275358151386334
0,275930657772482
0,275317146263957
0,282477601393045
0,286318585911081
0,285177199572624
0,282561650286481
0,283177767244587
0,282861446625394
0,295334359743874
0,296656028129936
0,293318208596064
0,294218590578893
0,297703152806512
0,302413476173869
0,303006956514904
0,304525296939531
0,305701615503799
0,306144085837459
0,308708196079757
0,311702932322704
0,310744244932161
0,316879116493721
0,31825487536854
0,31554929122125
0,320928541055586
0,326302052257356
0,326176755565835
0,333795832444395
0,337560374156426
0,337075085262526
0,340915250852781
0,338934832662769
0,336286254319796
0,33780100029491
0,342864425869921
0,349927019781706
0,350513182908716
0,34772260370626
0,356351294490899
0,35925520781539
0,357954479062719
0,361413219209306
0,363558914868649
0,37081517594749
0,361745991004223
0,37212494533049
0,373334285226392
0,373824224125421
0,379750272734809
0,377433437173362
0,386883555879083
0,388369575114638
0,380403078335331
0,391045812001477
0,392517409203951
0,399422702306963
0,39326310382576
0,407640678131477
0,402977429747766
0,402428549269401
0,412571912938192
0,403100912561526
0,412984617159944
0,421834033524572
0,41684428003558
0,429146222907788
0,403152889465133
0,418928068494833
0,426767740970491
0,442674213331623
0,436729663925311
0,442285335704413
0,449322139722067
0,447232476993221
0,438145298460115
0,452531521115152
0,452648639013821
0,460382462514031
0,454260160989031
0,46695387263016
0,46687613536091
0,470667657708224
0,480929985455579
0,488735769814165
0,477773003138036
0,480826237377972
0,482591189478945
0,477337916597297
0,48502950549663
0,488878079855196
0,493289181136911
0,498113361321126
0,501626235728032
0,511068847202115
0,511530293603534
0,512602126143901
0,513687823737873
0,51504958750774
0,529522158273352
0,527859897235241
0,519406045191328
0,534612320525562
0,529682331040951
0,538378516848099
0,540046845969091
0,556455102256131
0,539854866269166
0,550114281750527
0,544378689986748
0,557438597718357
0,551052567684996
0,555717098029866
0,560305272926874
0,580214269079866
0,570356647242485
0,573583986976062
0,58063717028034
0,587289449557987
0,58429924466016
0,600254290935668
0,587140802426213
0,596143181136318
0,592976573253759
0,591223917299029
0,589786118950721
0,636296263866368
0,609924683705986
0,627173322075839
0,624456920846176
0,626708697071333
0,607280743651016
0,626739103603055
0,626525474041997
0,626480649941528
0,611819595003172
0,64137057242364
0,647329464029446
0,663363804528101
0,667076895720745
0,658045008794042
0,628497524575057
0,67224517219085
0,656550865027146
0,666620062499475
0,678967275908042
0,700127492542826
0,682908245508067
0,678973964403689
0,674132033874564
0,730292241193478
0,706790486200948
0,716648442591564
0,717659378663479
0,721366600377661
0,699618823850638
0,725856769892097
0,685963542781123
0,744039484596284
0,734593871315362
0,747350630754306
0,746682901240576
0,747970967309217
0,729727335672324
0,724537459824438
0,739515257760634
0,729121762813869
0,727286209818612
0,773529045675646
0,740970391760355
0,763616195301375
0,793364205182711
0,815198165111957
0,776132978976948
0,808797442670566
0,76700212946878
0,778216335550216
0,794432463119179
0,815014623101634
0,774709466415304
0,748196442846648
0,769844275455196
0,838217993923274
0,843835758975252
0,860813067369384
0,842945295886015
0,853189319571968
0,782140626377625
0,851680561498419
0,800640677170908
0,849990946822394
0,864079934090544
0,882092798390696
0,775601360762687
0,849129703762422
0,83916711659843
0,877184193167964
0,810685176139353
0,90929468966689
0,891610385926503
0,877162918470144
0,862021374807183
0,89536830179461
0,845925436248191
0,91429778656473
0,90042714936428
0,926257260935015
0,809484390379453
0,973426347423411
0,892679550710497
0,948126005805178
0,896049492691257
0,892944538824718
0,899132608323647
0,988128596146434
0,94117630096393
0,988220822648638
0,917768086700594
0,959741793063683
0,884389380197033
0,979475825169826
0,949279105676441
1,0268746817075
0,973519270972501
0,96881072810556
0,962606197280497
0,933978163035387
0,990955012423931
1,1129489483527
1,09701859199742
0,967309155724934
0,930431787684862
0,863261582969779
0,976316633474019
0,924853103378561
0,914497659255227
1,12367407112813
1,05931443690683
1,03663409651907
0,898134027027422
0,944747817523565
1,05552339388569
0,94470687161755
1,01949679359409
1,06090009707898
0,916671275309844
0,912046361433468
0,933645778681057
1,05408679855198
1,08409038382074
1,14065834972978
0,994898707203037
1,02333939851783
1,10613111958135
1,02418328318141
1,08400452007169
1,01085822128872
0,771956799802662
1,11671050682469
1,05459209303833
1,1912089478244
0,918730030586659
0,775410839847035
0,847640786194265
1,02374079964576
1,30247859763522
5
2,05368970824417
1,43358179843375
0,787239220033944
1,2127627474944
1,0464294597581
0,923395795496007
1,42794649297408
5
5
1,18334692928298
1,35891002764503
1,67440542439625
0,9534216512297
1,11000081147759
0,905357052424496
1,32817116577011
0,920744328119566
0,728170127038727
1,25549206059138
2,51704835260651
1,74488734943583
1,04365956467364
1,40319032459576
5
5
1,05295584960847
5
