3596
4000,36533379555
650,420452594757
1
2
2
0,051812304431729
0,0420391819702417
0,0541701124192343
0,0450696636717783
0,055684794666673
0,0408353432884512
0,057860662770798
0,0462011009276683
0,0542012673245546
0,0335338408259253
0,0574094399660506
0,0431809233842359
0,0572888279198204
0,042679250906471
0,0541346132451323
0,0445007107368609
0,0506052764412552
0,0398872324570885
0,0560302546718424
0,0424530971798959
0,0591794778141619
0,0472544579240066
0,0586054284442151
0,0384893822773158
0,0598757987708216
0,0433123742809643
0,0573192795682577
0,0495190142499707
0,0535747591307887
0,0459016891600492
0,0556270735062713
0,0422251816953815
0,0620806466519409
0,0404949132432003
0,0585184625018627
0,0490225601972173
0,0508546719771773
0,0443465858248571
0,0560861284774549
0,0377739523095364
0,056223265838253
0,0404003393083694
0,0627999937922799
0,0381426126718476
0,0540021181058057
0,0411049250411065
0,0556037541241137
0,049257323485303
0,056113544959625
0,0334514907183794
0,0612025297111819
0,0359205747149876
0,0606276109235108
0,0484091476328888
0,0476635264047678
0,0437026319793865
0,0486114401237446
0,0459999326851062
0,0544096937221346
0,0416516508784411
0,0610952758555701
0,047871067077826
0,0508014048662707
0,0483718689129177
0,0515415358187837
0,0477235172022397
0,0559549122843616
0,04195268277651
0,0437412066898107
0,0545397753162471
0,0457849973376423
0,0504818791773564
0,0670787874870892
0,044141303279498
0,0617028234310384
0,0441418416450371
0,0553482415417885
0,0409897305590774
0,0454352884827724
0,0489175493108328
0,0640307930942013
0,0420799952558302
0,0600272553808418
0,0447885402532434
0,0587400209959624
0,0524170479454053
0,044064942791725
0,0476591759049195
0,0691062959163763
0,0446169725754998
0,0541899277642256
0,0441654034725976
0,0526036727517453
0,0408762634742927
0,0503279256627304
0,0435896697381142
0,052735474332836
0,0441161373707127
0,046347745951818
0,0344964464219316
0,0701675861510075
0,0196161507349465
0,0927420828966236
0,0092283247134846
0,0873249015125223
0,049919842892945
0,0444664723765536
0,0720214634669151
0,0526182384724236
0,0463787062552991
0,0487103941049405
0,0442120090231292
0,0467484935138705
0,0534121788914022
0,0382849258444006
0,0480447240932897
0,081572806779804
0,0456047115305831
0,0555624193073047
0,0491955493157834
0,0398525737961708
0,0416746134285208
0,0801592258211357
0,035112916766116
0,0626758337494388
0,0439993361113057
0,0483220592142873
0,0486958010358367
0,06472346000971
0,0369361824867993
0,0555290254211926
0,0383226143829594
0,0549800797077762
0,028816245831866
0,0843629144481393
0,0373865552952943
0,0576974260499328
0,0190857322864777
0,061942327928458
0,0757475384126334
0,0569272695854248
0,0441857091417659
0,0474394058497815
0,0244783328567321
0,0778296873682843
0,0503194099816782
0,0529028846314493
0,0392928855628747
0,0562167518926725
0,0423825368725957
0,0497274521936956
0,0347855816379619
0,0566465034032901
0,056985078699814
0,0129957910282614
0,0198582729843262
0,101103408245318
0,0276673320051002
0,110489483508058
0,0245131552219593
0,0707974373033712
0,038754181984908
0,0592624323670629
0,0340133339157782
0,0616492906747837
0,0235639785845699
0,0462367403890854
0,0641523708301985
0,0517015988673402
0,0468605853113356
0,0679396700863295
0,050738008152683
0,0301174938081626
0,0875677908546725
0,0687702701354043
0,0252275122674878
0,0755992375944637
0,0437614133882185
0,0460412675222343
0,0322570714607945
0,0823937510984146
0,0368291655652256
0,0618738201467663
0,0421518694246668
0,059458715770946
0,0534241694873831
0,061656819949328
0,0367208890172356
0,060139215292463
0,0153457578174356
0,0659966481711135
0,0520209696453729
0,0890953596360351
0,0386819310948355
0,0721406301215829
0,00648697175985371
0,0726274228427923
0,064512379471619
0,0533014827492596
0,0478558203759107
0,0532382638126545
0,0490085938497954
0,0526978892232733
0,04370157734856
0,0635882695958356
0,0145539542321643
0,0952013149823007
0,0510334908108097
0,0660188749879194
0,0391321379895598
0,0568015725829687
0,0194666017152086
0,0885487503700278
0,060529750850813
0,0522926680386528
0,0569364551631546
0,0547266583544846
0,0450436461211974
0,072936966891084
0,0471103756622203
0,0640168549213023
0,0414014504246804
0,0569654755382852
0,0477701712869743
0,0579548205129702
0,043812080079967
0,0562734762188698
0,0471800859078632
0,063346236524998
0,0454326496409865
0,0633414547614152
0,0448298514832047
0,0524896873689915
0,0560550903157764
0,0506422262042699
0,0410671659025772
0,0766487392691107
0,0547572232199644
0,0671085958882241
0,0360858218814601
0,0587349269886163
0,0457818922452293
0,0633687872458307
0,0388176183444103
0,0657591759445934
0,0262615246566228
0,100890490767715
0,0532081979726256
0,0773695283449533
0,0390624803099556
0,0736360409786233
0,0605889909300826
0,056772011981224
0,0482270352154243
0,064635672422954
0,0435398460874123
0,0470268493360328
0,0742520697404462
0,0671101741333232
0,0428235020355502
0,0725784939219331
0,0622641950961764
0,0523011087271432
0,0528329910124651
0,0368817117793646
0,0991070639908582
0,0724481016435127
0,0152384724839135
0,117429476222649
0,0527838508766101
0,0669340473289237
0,0496358074737032
0,0221113584172419
0,134915067296678
0,104667295708288
0,05331228983297
0,0549545388461815
0,0746645930448077
0,0658179203685022
0,0572063994226263
0,0658201457058464
0,0560598615569952
0,0826655458252934
0,0314914742687338
0,121991221653342
0,0354042160316785
0,0848588401348891
0,0828640415449792
0,0734867150623808
0,062681679773946
0,0692919190899485
0,0477298738225028
0,0786360427535417
0,076100519048465
0,0721288547608497
0,0741195984611757
0,0562752703876476
0,0880010802258974
0,0832962162803372
0,0649582513721958
0,0677909802811916
0,0800100575445252
0,0727393408319265
0,0749269694629109
0,0758152861368434
0,0804742481176588
0,0805193608319411
0,0580169427046009
0,130413044205564
0,0809431467679547
0,0724633421329003
0,0992445620867238
0,0895871948589087
0,0811926341994908
0,0879498621679945
0,0766202633761067
0,0872741446352674
0,0860926633421045
0,0796579744779317
0,0941221916085138
0,102704495066692
0,0846973171962394
0,102677215676697
0,0859625237057301
0,105228906567228
0,0952428349975972
0,106259008949827
0,0970632143011134
0,114967335942992
0,0847720617304349
0,114282164532456
0,129173466819875
0,0852783928909502
0,120343263532574
0,157951378198681
0,118668903283091
0,135583438759982
0,117489737444111
0,136415882997602
0,119329010146873
0,140560371355641
0,122263734206876
0,142784220857442
0,14353012931908
0,157642305277588
0,134886595765828
0,157639818619314
0,15948532030009
0,214161811389769
0,153635398134385
0,175857023071745
0,141441822133783
0,199957772766265
0,198103798607087
0,186195971454797
0,210924866950239
0,181837125482543
0,19576936699156
0,193697030011511
0,20605665948949
0,202747152144357
0,208629773079902
0,205654800956922
0,211238934034244
0,229287085209912
0,218422691598741
0,234464406509687
0,220962718830686
0,276216388013903
0,24659793227089
0,243154884230361
0,24788752699546
0,245088909284528
0,259865247471539
0,267674669729061
0,262724536069044
0,315063027702867
0,261849060972913
0,324698292507217
0,266629994560801
0,2953377966726
0,277172476398955
0,304988968229437
0,291651093866797
0,306828022746061
0,287826126834763
0,311096869383871
0,292095289454032
0,327204679342929
0,309252204920795
0,329679010057101
0,31016383784807
0,346588982830047
0,320507145422656
0,351062411008994
0,324541744473561
0,371011906487143
0,357024096193102
0,390965474774257
0,349155157138584
0,358991350182637
0,360908675657822
0,362713615550084
0,358563894967597
0,37661059015513
0,372399664582717
0,372753039885831
0,393287160912196
0,414611493386051
0,38205757834324
0,414076419617716
0,375704598689252
0,410474074606561
0,405170014689286
0,418496670868741
0,43800493258855
0,423179008017281
0,385718997730482
0,437312221005597
0,437649181905913
0,419108189981476
0,443998782178925
0,43765959675707
0,430749125029383
0,440657146821174
0,434262330131231
0,455525562178598
0,443676091670161
0,469109901695369
0,436852129086862
0,461132577392268
0,460850655278313
0,492840131527518
0,478571117859709
0,49387305905455
0,459695829751389
0,495306292054031
0,46516446526787
0,497175195063699
0,471839013309338
0,5059511484405
0,497415890488272
0,527823853204861
0,515559595566666
0,508335826136998
0,499590172540234
0,51024011390828
0,496420593010791
0,530845983640905
0,515779433331494
0,549333437771429
0,509966612831126
0,533740583146013
0,524991086298474
0,537078704601226
0,54264445494395
0,564327209813178
0,515436323861041
0,552088809547813
0,554491222043606
0,574429033309715
0,542209840586564
0,589386858773225
0,591639858671158
0,612201418993709
0,609895330566637
0,571609566487445
0,562497455381099
0,606793443308115
0,583813439397624
0,608360067994691
0,584611805252655
0,612193145656883
0,59186811404112
0,625480614904733
0,618306403630385
0,621056454097072
0,608145408863742
0,648893636737875
0,624934016444695
0,675267816251276
0,641837937374383
0,667355079209729
0,641751047493257
0,681227417145337
0,650888747887917
0,667483367842273
0,624738280672314
0,666102390964432
0,65329444294369
0,682680148952217
0,660066947130193
0,700909500872437
0,661346682794121
0,724853356305041
0,666597607325682
0,690901467830548
0,71373842609806
0,728042037104093
0,675718681970709
0,746012944885952
0,713656959768414
0,739584948785205
0,732009758869391
0,735357761956462
0,747177573225743
0,761068901961615
0,749940598871402
0,726542397275892
0,697947105752231
0,769606648630261
0,808178661949047
0,788955938666375
0,71775126171375
0,801318331088549
0,797398008278245
0,803994771850146
0,803363668012579
0,809475937928852
0,770465498853012
0,828618151584396
0,798523005752066
0,863426404901261
0,802549745188599
0,858726627546448
0,823396083619087
0,859014945152386
0,785661369988766
0,833816934077571
0,822972719540671
0,836743991872868
0,792321180264363
0,816889436739998
0,836832593649772
0,891522052412706
0,839920408945728
0,904788824018425
0,851246511744126
0,832710516604916
0,858528452005004
0,912768400467145
0,86670511560866
0,96964486428342
0,861571397083027
0,929097064535803
0,92385292945802
0,94763828480283
0,879024680607907
0,932312972503551
0,851401719902865
0,869179977967197
0,904367936039849
0,961639012953434
0,930013497194917
0,976805019827409
0,898567484713962
0,911982299766935
0,92389620873453
1,00682624062295
0,985287876991469
0,996773511894729
0,925239843280171
0,991373843131238
0,953557948677389
0,99877057513803
0,968860726994985
1,03180224281853
0,90835817981866
0,989959268371693
1,01223999388245
1,05949997888686
1,08176990534403
1,08368551426506
1,01293559508645
1,04247513768549
1,00461454097579
1,05745727193483
0,997853649670063
1,0505869009771
1,03312092396216
1,11722688061344
1,0524608672019
1,10218199514085
1,01872710435235
1,07676955488017
1,04468644103976
1,1136993580362
1,05886473950906
1,13260362296452
1,10365353599482
1,14214149158172
1,06882289774951
1,07228068233719
1,11367116646043
1,2212212153007
1,10566060495452
1,1704950932997
1,10714592689255
1,14190887475309
1,10690565826304
1,11854767395842
1,07027804847852
1,11857181395881
1,11897061333935
1,16750705630512
1,07565249815814
1,18129736799843
1,29545542926793
1,21892443911666
1,1138147475287
1,20725713568327
1,13624314627107
1,20447273274944
1,22150048783799
1,17387153011892
1,15459799333748
1,22095565710608
1,1910107345372
1,38124038230436
1,20074865482842
1,15111087692755
1,15213714017432
1,24355384840289
1,25062545890363
1,21929233837163
1,19446753294431
1,37705825937812
1,23302399632898
1,24786466436828
1,26034745937624
1,25207250072339
1,2349920453347
1,2663745144517
1,19129038799616
1,29592009103288
1,25552092286473
1,41191450269335
1,30471812146938
1,28074451523804
1,25876101202641
1,32716716509789
1,31288722849357
1,2494497418088
1,2318357159473
1,2972042151278
1,24835240618425
1,3552854838215
1,30010176715362
1,35822754638929
1,29707299467587
1,36137655267612
1,2586823821912
1,36503070058373
1,4819784446858
1,30437227835537
1,26360534539134
1,52119124839099
1,34708284214299
1,48447536799489
1,37008222732652
1,39566811487554
1,35606645388344
1,41134274075483
1,44672747570502
1,34581031414173
1,40124256412625
1,49440746144407
1,32554846783728
1,31638830398994
1,25259936005044
1,33077319492963
1,35374652138114
1,48516418511346
1,3572052382837
1,36968643181634
1,3444076743663
1,39362532761683
1,41854482400986
1,37463872154131
1,33540366977266
1,40465559878109
1,3108785269224
1,46104438282566
1,41270713494835
1,52694776812645
1,44494530903473
1,38309904117128
1,37141305917457
1,50121639869253
1,39736223342385
1,36763432301406
1,38776273112159
1,54684041154315
1,34954235734644
1,43315635350096
1,41159612107663
1,40592639811474
1,35188487951597
1,4217022446023
1,37029709415256
1,47269657713378
1,405497354223
1,4486044583317
1,39564530180698
1,34069418739775
1,44578638831103
1,44104706160345
1,35080283726464
1,39149304657127
1,35102507298396
1,45244744389013
1,44781918782441
1,49086447596618
1,32945063473236
1,34421019719094
1,4336355568204
1,41087938339167
1,38719152614039
1,41955344232976
1,27697480394109
1,46062530043362
1,47271300657788
1,4534909029966
1,4482381891475
1,44829883418262
1,4580263695469
1,43855224983068
1,44892214511031
1,42623019410191
1,33311906178501
1,4335956245026
1,41941418132253
1,44674123242588
1,39604175396218
1,41501774489079
1,41373976469348
1,43593213999415
1,3758138556781
1,37031930177827
1,36910953708574
1,43555805650741
1,34838933534653
1,45889945641303
1,55605761695209
1,48345513398158
1,45224579435988
1,35604344534068
1,36622657493131
1,52330419325158
1,4335936802482
1,44556664304767
1,40192226560848
1,46900581828038
1,40100626440843
1,38795858756179
1,35675325794256
1,35410821491003
1,40336603882676
1,39731943333597
1,38903633152205
1,43384202399964
1,47188227676619
1,48885687330234
1,39788355677762
1,39653964083353
1,36901149159358
1,40320389847084
1,36268525309446
1,35914122227291
1,43317205005317
1,46894890669935
1,46650881078992
1,55109289016134
1,43398085173673
1,47165198739705
1,46286987375384
1,37107993140239
1,39807101560957
1,44039504501658
1,34720749241703
1,45079687767475
1,52105693362112
1,41672555989567
1,35721103984572
1,42987579101366
1,37895088694522
1,38309159324953
1,42416566291021
1,44040301609261
1,48944850581014
1,53152346369352
1,46276144034595
1,51484904472704
1,40737241808161
1,38576928322856
1,42282906886472
1,40262442479688
1,40961433424218
1,40860094587314
1,35975666913592
1,33720789512981
1,35374760747747
1,45388512991212
1,46322809043225
1,32397370296632
1,29668157949487
1,41908942009813
1,40946860287452
1,43797295187837
1,41027090613962
1,40345450282079
1,37543396944664
1,39654176644767
1,36022340220684
1,37770752530509
1,42250655614761
1,32896606769015
1,31272169697282
1,37071546357262
1,41664477551681
1,43556101890734
1,36119202011213
1,34453489862213
1,39359266692251
1,45936439808969
1,30311695239485
1,28420855407508
1,32433886019746
1,33663927775088
1,4128108136556
1,46579659720865
1,41279238457927
1,40718845060917
1,38654387543551
1,36752328727417
1,39108827671656
1,41522609456866
1,33598862828014
1,36965233514455
1,34890625380096
1,31944183640492
1,30753923824143
1,31797732359857
1,42086344874688
1,35684547740013
1,33132161552963
1,39405175852586
1,2976145069501
1,30753891449197
1,33426905761156
1,3013875622488
1,28577229541504
1,33026065598619
1,29052282166209
1,29124761033936
1,31625076249731
1,30733323293807
1,29147590092501
1,28816423352657
1,28652001787084
1,25104841538869
1,23781559139798
1,25392389596186
1,22851274507193
1,24155785567516
1,24037783431129
1,22832017224056
1,21740748355725
1,2538583415756
1,27655024699374
1,26464006119791
1,22008097992344
1,19424043195939
1,22900080217722
1,24072223631233
1,20635881496074
1,26118515962246
1,27430090530314
1,22768450389286
1,21671960203214
1,17048194898688
1,16173990748685
1,18051639687015
1,1669347477888
1,17214187303383
1,1892623206839
1,18868760485977
1,17161035551407
1,14746201293483
1,12664738418634
1,13266095664754
1,12210431930081
1,10969730835919
1,13913946079849
1,13501645866436
1,08736364252094
1,07279673603178
1,07032209269917
1,08151764521596
1,10078884545488
1,06931047560007
1,053210025992
1,05758720106946
1,04748186999973
1,07160200873724
1,05866747507214
1,04787391564829
1,0485960333501
1,04319682627124
1,01105873077766
1,01671131104569
1,04191898650479
1,00221412255996
0,979527862301525
0,990270041694753
0,989036412428143
1,0066807230871
0,987330214124402
0,966244384007798
0,967930101893913
0,974270673295594
0,934503492472423
0,939581616841139
0,949903839342069
0,944092254756433
0,965879062359178
0,922058271528421
0,90661915538639
0,917690910224979
0,914756003141787
0,953862523121225
0,904797738792885
0,888830825484922
0,90211600830245
0,876217083944357
0,880202227512181
0,885899991242464
0,864733893584205
0,852876178351309
0,861908693159355
0,858788946705208
0,845659401230546
0,836344911221573
0,838496255224847
0,833793704356064
0,840550549889118
0,841272122255996
0,831262547315385
0,820886535379875
0,805996485198185
0,824150805983887
0,807495326584293
0,798084373552412
0,788529578097531
0,774308775935773
0,766579316531085
0,776764213952723
0,796492823138038
0,777520569302935
0,764714183355062
0,749752872865142
0,743615044809989
0,759807109091803
0,74648433421303
0,733042347416326
0,71746101494287
0,731410186977081
0,720768950764611
0,716562069908631
0,711063972902142
0,694384677610996
0,694772660180229
0,696515668941942
0,691646260908008
0,684778179283581
0,679955670946552
0,679296281217289
0,664166767782693
0,671942604752939
0,664456246698968
0,673979020581081
0,669294640791847
0,648589435824736
0,643234899270919
0,637247233387785
0,645399141601899
0,642490585650761
0,625126887068118
0,629984643568891
0,617134468731021
0,610633251803069
0,605073901907961
0,600030048821308
0,603240026998566
0,60213332437386
0,596986009530205
0,597720239754696
0,595860520685599
0,578145554401565
0,569447826373174
0,576838251359597
0,584750431691211
0,575318573302221
0,563288989365518
0,562322801047325
0,554483723958304
0,56627872537351
0,552633625838659
0,54352592667798
0,548133891789456
0,538236307730066
0,529855339565105
0,53119611877745
0,526474117271228
0,522646650113704
0,520028962347491
0,520933616079546
0,514262920407448
0,515178435700464
0,511921886916593
0,50499509248479
0,496064144515975
0,501338868761337
0,491988682992104
0,484616079064899
0,488840616439953
0,481016285026227
0,470496092065869
0,476231860906709
0,473017296139374
0,467827833674927
0,465240792907095
0,460827347555122
0,447789133911157
0,457801483313338
0,453891690572448
0,447011623301034
0,447459886125453
0,445290526258367
0,440918017236727
0,438141466429971
0,430843771268562
0,431656889288838
0,424781055068508
0,422754499265771
0,425703447016841
0,420774576089513
0,407736430252865
0,413547149998221
0,413802296216331
0,405521017908756
0,406650802434309
0,401614333192112
0,391535806240157
0,396599669195073
0,39423122096548
0,395257086683989
0,387498849385599
0,387042316382395
0,37964439994131
0,380859908279495
0,375306254168877
0,376658074564071
0,371203998619006
0,374085843968682
0,367912916616855
0,367780748556959
0,365633493389029
0,358386475419761
0,35574606054039
0,357702216413417
0,350568258580593
0,353023972459113
0,345536632489479
0,341226086311861
0,334516090121643
0,334322872930196
0,339816437851456
0,338613511966303
0,332698568092818
0,337653045548426
0,327254491178421
0,331598604606001
0,327394654997573
0,324901564838448
0,32243380549531
0,323763911299067
0,321448643791935
0,316632529880956
0,319728316990899
0,314117295963879
0,309196377438842
0,311710935261541
0,302099687146562
0,294976303934117
0,296782462881667
0,299451397730684
0,297488671822454
0,296183074591707
0,295261273084128
0,288543363457577
0,287249500149611
0,291299495282204
0,285414287356548
0,285093600565753
0,285518503111429
0,280217861365838
0,274346633702674
0,273333507527098
0,271699388363026
0,275397003941967
0,269121762428473
0,269868434167994
0,268673733564172
0,269592249505139
0,265214356771054
0,263711193051652
0,255472366379372
0,263846419626787
0,258299538546788
0,254368837423443
0,255050373730359
0,251511414494608
0,249992448035699
0,254470078656887
0,246400402352507
0,247990221252816
0,248742212011224
0,244425158306
0,243430964293445
0,238422179909166
0,239074484373513
0,238704797389885
0,237673756721941
0,240561413313872
0,235277202784179
0,232868536031087
0,230527057938345
0,227840485753732
0,227136772036963
0,22788234320859
0,224686492493821
0,225522497904578
0,220698191732521
0,220736122752623
0,216677729897766
0,217487016691324
0,218811362454763
0,216992618356727
0,209970255681689
0,215381675116539
0,206687239388334
0,206952554897175
0,211858240156474
0,209265037079802
0,204323262918597
0,210688925640267
0,206877267025815
0,207426541783292
0,200628529297025
0,194736605656486
0,195511449410236
0,199756027640477
0,199894815008287
0,200979041747529
0,193061160110699
0,19736621418748
0,192343347635969
0,196383159254099
0,188376492763359
0,19117240928837
0,18879159228718
0,186326633256401
0,183827114702882
0,18399155446989
0,186000016665784
0,185730067322589
0,17973643479194
0,182616500767461
0,183613167816529
0,179731857627263
0,180108201229782
0,178856234677236
0,177282776276268
0,180633486038982
0,173468962637664
0,178147259414755
0,171762844651671
0,176105033032822
0,168481469637231
0,17271962801986
0,168954199472395
0,170336597197665
0,166263988706506
0,169901573714266
0,165171238142152
0,166797122163271
0,16252821886556
0,164474782506946
0,162862466121034
0,168453172895617
0,165259292662051
0,163504541564834
0,163474257225225
0,156641906796411
0,158686141163399
0,162679427941512
0,155521339369966
0,155708331682986
0,158568786239423
0,155274828437156
0,149530488851879
0,15294550531035
0,148949624707051
0,149275964375357
0,148814618338728
0,149492561511875
0,145103237333479
0,146723119163004
0,147404894367018
0,148466510523227
0,143112846677296
0,143617429007037
0,143296081870896
0,144446241328921
0,143901563402583
0,137847874763227
0,13981590089641
0,141216582168597
0,136661237388822
0,137640553170852
0,137063154470918
0,138759832988034
0,135081224818191
0,1351795652052
0,134640428379479
0,130259687067996
0,129560805461599
0,130371233839704
0,133127488754264
0,133347678387347
0,12985732308176
0,129937216587637
0,127690999182438
0,129158985122202
0,128222825787396
0,131024967329586
0,125889742498529
0,127409686871982
0,12593316011481
0,128907345052529
0,1238764129667
0,123228167687696
0,122222818790761
0,122066286477281
0,120792175861925
0,123122557818055
0,125614187029687
0,122984778074957
0,121251621282517
0,121651938077803
0,117114308392131
0,119284796986832
0,114719725494604
0,116396374284061
0,115390785506694
0,116710027789329
0,118545027566384
0,115136261409083
0,113299226275978
0,115374054248722
0,109591448220203
0,111125270124556
0,112778620819779
0,111236359689577
0,111342301485576
0,111112866809188
0,111560653615604
0,109992981198991
0,108820052466084
0,111662784331586
0,109105502493215
0,109605020318746
0,108231195095462
0,107248993818237
0,106848661521201
0,108472698992752
0,106663425706981
0,109286973909223
0,103222476856711
0,102992525211212
0,107094953326483
0,103967178844507
0,104758695135774
0,106405565541859
0,102300063512822
0,104318546798709
0,103104482353483
0,104977580814067
0,0999496403185059
0,0998992868602472
0,10026386869527
0,0963531855442571
0,0978353715166502
0,0987815591164392
0,0976399829154105
0,102426114586627
0,0981195802310792
0,0991628369089974
0,0962630023815846
0,0958245983253227
0,10010383292399
0,100093289410146
0,0968590326012578
0,0992392915454077
0,0959867135161096
0,0978457917997616
0,098479790311244
0,0971516290704257
0,092348812637607
0,0951758926245347
0,093130718116819
0,0977881198396304
0,0922492635810651
0,0956635845098127
0,0912619456802421
0,0930381772146362
0,0908770963997142
0,0944468739192361
0,089704893050202
0,0921231258840401
0,0898011822078191
0,0905000016034619
0,0908174555407318
0,0914767097534621
0,0921100132273867
0,090170100930074
0,0901198304673514
0,0890945354536209
0,0901009949713128
0,0906042832956209
0,0877454845707588
0,0872315134889292
0,0872558207264047
0,0888638548362879
0,0859285650309508
0,0861717123256603
0,0866429017157479
0,086695820721871
0,0855310590503559
0,0856972024096176
0,0868543009421558
0,0892980117731518
0,085768217875935
0,0878687339456994
0,0833912075991234
0,0866185257860157
0,0876437175618998
0,0858780598077993
0,0841074915802538
0,0849852042826834
0,0781319332911436
0,0871215314573993
0,0856396790297578
0,0845390962021423
0,0842326682346914
0,0862740979586838
0,0831295821691391
0,0856396020107555
0,0801002947070222
0,0820034565707939
0,0795605440940847
0,083307763819452
0,0830770463737961
0,0831944589582222
0,0841253413212727
0,0814130156717564
0,0797211139894399
0,0803651657134806
0,0787246330826435
0,0806450599782352
0,0799276728559847
0,0802966127238418
0,0806959194002997
0,0811750695189989
0,0766624824048725
0,0799511516655634
0,0803063667343389
0,0763765544346411
0,0800199025959079
0,0810789034547844
0,0781847731586369
0,0823272422738619
0,0798150977043171
0,0778386116990127
0,0795250025889354
0,0763169759151813
0,0774132662980558
0,0778152170984993
0,0762657105942336
0,0789697607610031
0,0763878470358833
0,0757055382544116
0,0767376057232731
0,0755592775484256
0,0762758657189181
0,0767741353894459
0,075503403380568
0,0763517147653303
0,078019745802385
0,0762011871720669
0,0735571831273585
0,0763632341438935
0,0758422484230856
0,0766567966373633
0,0786260205343086
0,0764058399080773
0,07458802483308
0,0728155443132188
0,0745647237726461
0,0751432272298212
0,0733747461267855
0,07222916326802
0,0739443366011763
0,0704957242617939
0,0736688615457538
0,0757237799293021
0,0706724327209363
0,0769199183568024
0,0714956335306891
0,0730430847288142
0,0724822095227309
0,0725358740964503
0,0706599462689542
0,0765380086906072
0,0715376840730034
0,0726748605639596
0,0722322927863666
0,0769507062377771
0,0726458480444284
0,0748134271940297
0,0743902580092685
0,0740011297537157
0,0719614025187359
0,0756886794569478
0,0712310322802801
0,0722796362419497
0,0709156971336403
0,0721216808885859
0,0711265013825983
0,0717466697147075
0,0707122260201109
0,0709760246091965
0,070743243629762
0,071892673818865
0,0687240197391079
0,069815230220149
0,0686221565455227
0,0725070536644825
0,070682053391527
0,0721813221627484
0,0700929180961317
0,0722997583333477
0,0721069098278887
0,0680975845990827
0,0674743564528969
0,071640035315546
0,0682283893037896
0,0720336431107625
0,0706876342775467
0,0681383655230507
0,0698925251284452
0,0717389022648183
0,0709188635682861
0,0713314746689597
0,0685249030953176
0,0722189483752153
0,0714376038665809
0,0700201039163041
0,0689347622902321
0,0690631190476649
0,069853666772272
0,0688675975202772
0,0711801103282262
0,0722190650274907
0,0696248444715357
0,0697215378829267
0,0681613357021558
0,0691735839279294
0,07093588691374
0,0700256574406899
0,0693335828636484
0,0709367084638002
0,0704880070910463
0,0694893798562834
0,0674906350980036
0,0699147677854548
0,071378785081786
0,0721685336084747
0,0680636642162961
0,0704556198764398
0,0680913999341701
0,0694789369116718
0,0664144621829703
0,068392597699851
0,0690225333809827
0,0701955131259338
0,0713392671659476
0,0669812689250476
0,0714573060423596
0,0718179130081292
0,0697933493463895
0,0686209342775807
0,0662706622362694
0,0675915986441632
0,0697171861069872
0,0694570385336688
0,0684274752925626
0,0697694688721658
0,068789095485689
0,0686614891643045
0,0690080142321612
0,0685910712522562
0,0704967709634844
0,0675425482231451
0,068243642306954
0,0694121887939005
0,0696684946826135
0,0683612763150534
0,0699915933277604
0,0682089763600985
0,0711204933025074
0,0694028863368614
0,0687874123000472
0,0688588279523205
0,0661463484562422
0,0681079372986859
0,0693955068535393
0,0708541963939412
0,0674685980012859
0,0690929060610306
0,0695103253072225
0,0694281903069689
0,0692482692092141
0,0698491774003294
0,0724185499959029
0,0710916742906272
0,0713723005793691
0,0703959648839413
0,069745160942593
0,073017637119003
0,0699538848776575
0,0680977165343316
0,0690882637573598
0,0725971646012497
0,0716974417706929
0,0697115873765705
0,0698754221266207
0,0730623608547325
0,0727418796046994
0,0687800868871457
0,0709879840630128
0,070444654778112
0,0707056332039096
0,0685017155970889
0,0677518844113678
0,0687706498507344
0,0710720841300344
0,0725933725846443
0,0700958773660594
0,0681941958049996
0,0680402555723874
0,0708409421180441
0,0685046690095012
0,074460346862148
0,0691604835547021
0,0701275239132718
0,0722157796743015
0,0719751851679397
0,0703960931844766
0,0726229612111774
0,0716171279570259
0,0705758295174602
0,0681671855401178
0,0698017656203381
0,0722409460953902
0,0688064501686142
0,0699312793886053
0,0706772500796219
0,0697371602969519
0,0727444873065649
0,0724497361671833
0,0713705477538975
0,0733415340226518
0,0728486842034207
0,0714463825215853
0,069473412970971
0,067855040152246
0,0730624166981624
0,0744622012588712
0,0696482775255162
0,0734081798100281
0,0726592525732701
0,0735627217934894
0,0727325944939593
0,0723432669673271
0,0723705036456733
0,071782906650768
0,0734182672646581
0,0727326809653985
0,0717268874798145
0,0736943584421081
0,0727041363955038
0,0702914487402577
0,0718739348766521
0,0724568255106416
0,0734515259206104
0,071634187715312
0,0717558098320629
0,0706162514671089
0,0741364772436404
0,0743480617743068
0,0739031453043139
0,0751210530363277
0,0737602727715335
0,0749418834569644
0,074269185291768
0,0729257985683523
0,0750040276637996
0,0753766372432219
0,0720523248777847
0,0725395659485667
0,0760017386344038
0,0750383435197061
0,0743756033411175
0,0741571789998321
0,0767738471877355
0,075078218787774
0,0752401074783053
0,0720954919258913
0,0736113657910284
0,0762987391631031
0,0741346312380985
0,074360681822961
0,0766661683863736
0,0751412047610485
0,074576836732404
0,0758029579035796
0,0762602826827007
0,0771793938647021
0,073459071714254
0,0738647766102664
0,0736599456428358
0,0771122012812436
0,0754640587365848
0,0719292157846507
0,0732997663962192
0,0753856576401048
0,0761598479078308
0,077881591972475
0,0774081941785787
0,0757090103845688
0,0755613048827159
0,0778198377291564
0,077690707268455
0,0748603310748023
0,0750979876071718
0,0754514711124237
0,0791674979623995
0,0777338196386289
0,0764176817082997
0,0786618034098608
0,0769527299792781
0,0782720996943886
0,0777396598396473
0,0783028353954825
0,0793371465964521
0,0775241551905899
0,0787932637813007
0,0766094963152565
0,0794208347011602
0,0794353514570123
0,0806007455905211
0,0772554275699065
0,0788352901388201
0,077826626423677
0,077951394592646
0,0784970343112398
0,0792625219219305
0,078117788691035
0,0791947533518927
0,0769813980252888
0,079647061402539
0,0806055484953578
0,0794137788420325
0,0768689128406045
0,0785737874042731
0,0815697520842152
0,0823248418293961
0,0775369390879742
0,0813361101848444
0,0799406856432692
0,0810859059845684
0,0790714345051387
0,080343042260832
0,0792179410696075
0,0814403101492061
0,0817324277456439
0,0813157825105814
0,0788722489091797
0,0805982728275817
0,0803931771561014
0,0805865130446296
0,0805485509017554
0,0792084639729202
0,0822025573594364
0,0782159110889734
0,082042067463731
0,0820737190223162
0,0826147111324779
0,0824983651017847
0,0804493916957864
0,0824704358080703
0,0836551774320653
0,0819517734266255
0,0819144549332563
0,0821545974239173
0,0811643942537787
0,0846387580543169
0,0814790799259806
0,0836062573637039
0,0824313927049791
0,0828774184306457
0,0838435260103375
0,0829427854933009
0,0846643804658612
0,0830573201707606
0,0862317058557681
0,0873978201674894
0,0836766550003285
0,0847409994071539
0,0806236753465501
0,0837612243496783
0,0797844066946111
0,0872623687422472
0,0828924773387018
0,0838401441543587
0,085187560966222
0,0839960833847442
0,0909445124461874
0,0926390041518932
0,0862622177424987
0,0847839529547434
0,0824849563996991
0,0896512915190654
0,0846691042008752
0,0856627984480555
0,0859224821819957
0,0924477445533205
0,0836761508841652
0,0884140171695649
0,0894031727515162
0,0876387504074106
0,0920642245232326
0,0899054397320326
0,0921598555865973
0,0890567323253069
0,0840930211905263
0,0948075439687748
0,0868906805167925
0,0933653413062138
0,0869740464774419
0,0895466284372381
0,0825587117619872
0,0911343070502855
0,0870791726315704
0,0920870919312699
0,0882432094133884
0,0898509386837968
0,08922141178699
0,0915864124288019
0,0843072130983393
0,0895165947822303
0,0847341708587841
0,0894402550556895
0,0878099321543026
0,0899341053464844
0,0957803144187003
0,0924597088500129
0,0982148936547263
0,0826384801309629
0,0981284347576274
0,0826812522677644
0,110042258402747
0,0882060148697603
0,108971080222388
0,0761886261854517
0,110903425348777
0,0801195356955148
0,12515216896575
0,0691042358400744
0,117206609748202
0,0736601446643476
0,129131417000468
0,0700625623909009
0,119887610543617
0,0754716919393735
0,114342551567496
0,0788961980960762
0,108674978432325
0,0874655922202591
0,0980631177575064
0,0963675758744213
0,0950716045093238
0,0967689362713602
0,0946218590719605
0,0993083076694387
0,0951941994747702
0,0971464318133887
0,0988580137686104
0,0953038923583691
0,101232683427075
0,0940787856646794
0,101615719587112
0,0953855320904169
0,100036426548677
0,0954760635343242
0,0997257029840005
0,0978240935201946
0,099323784011941
0,0986787238670798
0,10220701732333
0,0975697658546952
0,100040809508627
0,0994813841647621
0,101963936696608
0,0966633999327832
0,100468802457037
0,0984397342210351
0,101875239534713
0,0993323742164443
0,102703214392654
0,098520105183029
0,102587132641786
0,100292638932593
0,10173793556905
0,101780221478444
0,102546593200577
0,103345733878572
0,103840910470923
0,0998235799672469
0,106066453844021
0,102959126606263
0,105420295505622
0,10207312486687
0,107057596890349
0,102281490380942
0,103786592858304
0,102154066690165
0,106140482606987
0,104933619656316
0,105696588455169
0,104981852156862
0,106482282563486
0,104644132041421
0,10555856460334
0,106102311574298
0,108577349974763
0,106514082489082
0,111027787412115
0,106655065714904
0,108680847010585
0,10432842987251
0,1086835113984
0,107752218671686
0,11105540605319
0,10612396884919
0,108195969732016
0,108738717349667
0,108627672020333
0,108990558488968
0,112471530923315
0,108959348336172
0,110264017601372
0,109253587748779
0,111347828965187
0,110110419799882
0,112584941535791
0,111414271051896
0,111829283128613
0,110941108371065
0,113792654030204
0,112716367778629
0,113027089758865
0,112949173140408
0,113718875111562
0,113439023032436
0,113766604074883
0,111197163130816
0,115305950825258
0,111642747411099
0,116967424421759
0,114110647835778
0,11652476166528
0,11499344543731
0,116849714526222
0,113058157928853
0,118117731713299
0,115040941968939
0,115414519214295
0,115246376295354
0,118780425524848
0,115141802548075
0,119426098597648
0,117586605692564
0,118187966771661
0,119142957417138
0,118525897553542
0,119166774215742
0,121460623613624
0,119293816617277
0,12201253832263
0,121572667514409
0,120872617401621
0,120390054243046
0,121270836331023
0,119466852381553
0,121993274358923
0,120635990133925
0,124201155824742
0,120093178868433
0,122093292939541
0,122081156051159
0,122955652498626
0,124169362805307
0,124486083981478
0,119838836265489
0,124580832192283
0,124814781912349
0,125429643311261
0,123273447638737
0,124548317150238
0,123355202460719
0,127521616206332
0,121126939803393
0,125685947019819
0,123478028938867
0,126251770423034
0,126599931885242
0,126385681118643
0,12568548026602
0,128126935754275
0,12648671540994
0,126573856468435
0,123908556356802
0,12710751916669
0,127036112468275
0,126935266516699
0,12644050424035
0,127239177603357
0,127884163144084
0,132092840487554
0,126161557389294
0,129789258739381
0,129350439209468
0,131221060752109
0,128308898942479
0,133867868316433
0,126119670941521
0,127867491356598
0,128255937888498
0,128739365715697
0,128458472559543
0,131685302941369
0,128987431816064
0,132120285239587
0,131206525215103
0,134179189332229
0,132145531066633
0,13081630380263
0,132218361228314
0,132354597169762
0,131506852126531
0,134080015234718
0,131730213652202
0,133242731253173
0,133104615983364
0,133306009835028
0,132889882661946
0,133179160029938
0,13292608018468
0,132643558228825
0,134112802679178
0,13479372831459
0,131308251493698
0,134334794229663
0,131670519683975
0,135958646208903
0,134374978946134
0,135514117676905
0,133491631809097
0,133751768774306
0,133465248996464
0,13492364624496
0,13539367134993
0,133381616872673
0,131009090165729
0,13339684721732
0,135647897907029
0,135057459411906
0,134990808044403
0,137164851545782
0,132058120761013
0,133117885894422
0,132453513050334
0,135081398393866
0,130826637502953
0,133368436665103
0,135399763932937
0,136005725656422
0,132310462465845
0,135316912152137
0,134351293409127
0,132695670804586
0,13661489981479
0,137576646411496
0,130569830129018
0,134611004112172
0,133905990191697
0,135566014976434
0,130409548016928
0,137121038888986
0,132791552941993
0,1342266352561
0,132850587859276
0,136164562264743
0,131418214406156
0,135901515311664
0,136406465206233
0,135535159608648
0,131056767911628
0,133291810518009
0,131401506421131
0,133615346285553
0,132591213302185
0,134574205683217
0,13537145561486
0,135360037565895
0,129931992781165
0,133902084859168
0,132326892128335
0,131447258925428
0,133244898301254
0,133068949806429
0,132656458784259
0,132769550346907
0,132091524726512
0,132114554517497
0,130394846777075
0,131245299308265
0,132358038304772
0,130141146646069
0,127994157234532
0,131389893643068
0,129972906051689
0,130496183088479
0,131047201796212
0,13133161913019
0,127625966288205
0,129553051209535
0,131442385874835
0,127925283160472
0,127948552088322
0,130183017626916
0,127993072404594
0,127519813667059
0,128426811466168
0,129883490429835
0,128861448907744
0,1309843159013
0,125043430314965
0,128747816185979
0,126035128300454
0,127963637191237
0,126643169465056
0,129578562127827
0,125581194046539
0,124717985584487
0,123416372713461
0,127672710960424
0,125130878574078
0,127059991682742
0,124989155953305
0,126504160162089
0,122268136725023
0,122236803315394
0,12386774601616
0,125955739447273
0,121528451618598
0,125558703994921
0,120723069157261
0,122708115804913
0,123102597173357
0,121788080858055
0,122538759520511
0,119626013311133
0,12160805654533
0,122913789427168
0,120077593228248
0,122139087707864
0,121862258464827
0,123343943297382
0,119631602115258
0,119807473772132
0,120889293259733
0,122538515991862
0,116935848911256
0,120560025607869
0,117934288313593
0,119916668269267
0,117079484441253
0,116522108769437
0,117275837910028
0,118574015093196
0,116041163391745
0,118297724169817
0,114864966293048
0,115357619305188
0,118957316119467
0,115196722154086
0,114762466368403
0,114243140534828
0,112783477706639
0,113072555965199
0,114544968456514
0,114072962463528
0,111660470471148
0,113107624147138
0,11196764937807
0,114594168951649
0,110019370815768
0,112716551107715
0,110362440725083
0,112828858455828
0,108841037506676
0,109900027681051
0,11086475089871
0,111257097412824
0,108620711804928
0,108368753131611
0,10739590117879
0,109413385981411
0,109225189451933
0,106188137863872
0,106402688167757
0,109751307158295
0,103844661677366
0,107366488012095
0,107131107049076
0,107989326716757
0,106625696601408
0,106157088838499
0,103456586824708
0,106453146476289
0,10193972619227
0,109244797969889
0,102892518764349
0,104346931540341
0,106248863429127
0,105036947591674
0,102296521868178
0,105414502263174
0,10079683089055
0,101748023609357
0,101415351990574
0,10402890338826
0,102725187706768
0,10358043174924
0,100542903648974
0,103497092864969
0,0973974558323282
0,101136483446719
0,0967657870271526
0,101917791741005
0,0971393113584116
0,101214291445926
0,0982384682159839
0,101608571152048
0,0987443629188373
0,10065854557751
0,0994147353994111
0,0990329919985817
0,0957234802239973
0,0981968865991488
0,095094396915082
0,0979353961060832
0,0966390490058144
0,0994942342588439
0,0946411278651796
0,0975332833323552
0,0936617305766285
0,0992229404285474
0,0930525122272679
0,0967438059402749
0,0917910614273739
0,0983561845222364
0,0913855992414243
0,0952211675985838
0,101430310112166
0,0933181983055252
0,0937801456706676
0,0947210463832332
0,0955427462473708
0,0928436375993278
0,0919935797179017
0,0922903859760496
0,0938229473097748
0,0910981679396531
0,0941857330160462
0,0917232780706268
0,093192025395366
0,0920699326274786
0,0928971390203343
0,0923916365265543
0,0906742272230745
0,0908815181754906
0,0920288659323216
0,0890066942030556
0,0916280701563278
0,0974149263894371
0,089029050218095
0,0918400728015904
0,0936919288890766
0,0834951249109671
0,101299440191877
0,0852486963249912
0,092423104097371
0,0896451182154492
0,0906840175663152
0,0885678391644741
0,0892027937140625
0,0879942744631457
0,0885488299534217
0,0920783275641017
0,0870312576529538
0,0920167540115547
0,0890790257584451
0,0890097760708286
0,0862159845192198
0,090577629448665
0,0871756282953767
0,0879510416372625
0,086984505356812
0,0887337400369912
0,087379381821672
0,0851356596156597
0,0890069756442552
0,0861312328290649
0,0868881022362718
0,0870662981608673
0,0860833245659893
0,0878669682237531
0,0881095044191522
0,0830961186403277
0,0838915549824368
0,0965391526270512
0,083864564489708
0,0895410561963021
0,0810634046545391
0,088303907994117
0,0835354756237973
0,0881505856437908
0,0823749693085493
0,0879385234962551
0,0859369031408276
0,0901019821109996
0,0866817955027802
0,0873791679755065
0,0864829563853175
0,0867685853370657
0,0821876393562197
0,0854706292342894
0,0847540991305792
0,0845492898485559
0,088842768327022
0,081789480350902
0,0858759049803488
0,0909054997281118
0,0880894762750999
0,0884673841828158
0,0871505921099242
0,0863733011835047
0,0846735197806582
0,0880614796245795
0,0832140440763924
0,0893751123591966
0,084652957252631
0,088089975808736
0,0846819154014685
0,0888440547216977
0,0818132641938282
0,089349746410999
0,0827990065882585
0,0876800349836631
0,0822079021157087
0,0916932791404276
0,0811314638921511
0,0904048957548789
0,0767890880741567
0,0946311074404818
0,0811883558960887
0,0965159760170009
0,0674605384428369
0,105003817282565
0,0923522581513854
0,0891269497860791
0,0927454874273489
0,084932100765837
0,0864504531042266
0,0859502305070091
0,0865680873562548
0,0898742806876961
0,0854947614342591
0,0872112187004589
0,0858525534857161
0,0864456603229236
0,08989692146797
0,08290799365072
0,0802267270443138
0,100795328925547
0,0889540531989414
0,0969116836140455
0,0844841012850395
0,0834348324953268
0,0980770339643515
0,0856398221880923
0,0935461600269563
0,089842483263927
0,0907136716933304
0,0880833367487032
0,090493897692431
0,0903161438223392
0,0922359123659588
0,0919600675841455
0,089068447253796
0,0933888246004246
0,0868405856678788
0,0936906168956239
0,0872907947505042
0,097752928922019
0,0960710238986215
0,0888619226926249
0,0946456993327701
0,0944038099181738
0,0920458748689949
0,0939761741189778
0,0925179925588301
0,0928465443517917
0,0952829999418566
0,102823821125582
0,0915951293788113
0,100688187288883
0,101670510190519
0,0937462484212385
0,0996068955957781
0,0943334396912895
0,105107993045035
0,0888799417264731
0,0953641810084359
0,112937100580216
0,094723161967628
0,114234045552201
0,092079046436275
0,106195624161624
0,091977565883123
0,110041287842801
0,0893887244234206
0,119563507015918
0,0917776992085862
0,110755682246071
0,0906776680428329
0,112867040086879
0,105950160064836
0,107937231640931
0,106080915323404
0,109098477503462
0,102959727046894
0,118534092750151
0,107266774958969
0,0961698988481006
0,120686707583099
0,116612615816483
0,121676008407427
0,112217047682222
0,0959719545990885
0,138171758742532
0,110966049774083
0,121607964683755
0,108870637703766
0,120632990122715
0,112715234527339
0,111498068354735
0,129686458983585
0,120429220594596
0,119020198050644
0,12691717840604
0,109835598970888
0,134249529630932
0,126499775510877
0,129232623068773
0,121456385521987
0,134579412490903
0,106462125901504
0,166074617292437
0,128944892752534
0,135035969224843
0,141529451969897
0,136250717182443
0,141889712692034
0,140381733469083
0,140632692682597
0,140507788034315
0,148092945987834
0,147024446180941
0,137032987962977
0,152197948248908
0,16914276436731
0,146047455587976
0,160765264069246
0,147045345442206
0,14533197425061
0,166571321705683
0,178118032467014
0,175411312786735
0,167637663746591
0,160796729262719
0,182441278633503
0,169865990174408
0,176217504244601
0,173759733147915
0,175239682881659
0,180580192231032
0,177251053052574
0,192082284112939
0,185217495526903
0,194396855823408
0,194088659867935
0,190145629861249
0,197174622797679
0,21381991887353
0,231495466394041
0,199003921553795
0,241543702473386
0,219941535516162
0,231584559472602
0,226069545194961
0,225304008723425
0,240044719346199
0,236767841396876
0,242477047450132
0,234410247165239
0,261356797853991
0,258171449207271
0,255951607913408
0,277217257454045
0,256907922751974
0,273509797260603
0,23270036900828
0,421638101539266
0,285389919003046
0,306340165631117
0,28840888771782
0,29382182965571
0,358362903863492
0,317641368029217
0,319298303995863
0,32444047781986
0,327922378251202
0,339805928816699
0,347664146296022
0,353689833830686
0,361529096677094
0,36848210156102
0,349959381083444
0,376681380812771
0,42218051960512
0,407698832190878
0,410551812009552
0,389004053234158
0,407187855471809
0,425809354890917
0,415872953419286
0,435958213309952
0,42563566672108
0,421516096362425
0,50154952610115
0,445829404234219
0,468774968552098
0,450638822649472
0,508397484203393
0,453756629507027
0,533775903825226
0,511842078600309
0,510635967852066
0,508383850787249
0,513227892765043
0,526769029676142
0,506545880446515
0,564376086760527
0,55158809036636
0,549339397648247
0,565966453954485
0,564839869137917
0,568544911839475
0,576124235853493
0,598304112378026
0,579726105555951
0,619038835616635
0,581873555983235
0,742766480800016
0,634044716701438
0,612877963415625
0,618732535349154
0,612875736008225
0,672637626711041
0,639121287985285
0,672444180303435
0,671427601154416
0,638357002651
0,659628780809925
0,654766802669096
0,68478755531413
0,665769707333096
0,692438427960113
0,652456574500968
0,692321115266954
0,672831218464799
0,695054322903282
0,738112009919734
0,665571218337053
0,674651849543675
0,669753831975859
0,671627006707774
0,663127243262728
0,664897216527239
0,666473561713394
0,685013208040307
0,648649470589979
0,661380242528837
0,63863675386713
0,646927605277986
0,66549373904273
0,624189485171912
0,628971739172764
0,612321962478862
0,609845762459776
0,590957141268285
0,59833995887302
0,654240623263574
0,57254246298422
0,569086670160429
0,564931587186212
0,556487082266815
0,550028662197013
0,542087420603915
0,53476386178417
0,531879372679546
0,512807715908655
0,522850277339783
0,506810558113659
0,498061233703252
0,487176496101199
0,484610787122962
0,474313438234776
0,4709452936392
0,464711825235522
0,456134342938528
0,450306382286511
0,441350472425765
0,4443335788284
0,428957505899124
0,423322939707201
0,424883750050326
0,413917848082515
0,41452960329376
0,406261947507788
0,400793774413862
0,398908094020476
0,386471584039949
0,383933166824337
0,379267755973717
0,382044584746666
0,372335674898132
0,372736926844461
0,365414840208251
0,365677360425446
0,357218305282659
0,362249167982841
0,347842776672304
0,354990224822444
0,326144362936114
0,382082153182572
0,359354722280852
0,333869292763912
0,345559041545841
0,329252837355214
0,33763082035929
0,312267630770955
0,357941335240819
0,338137476514855
0,322066538756576
0,3165389250565
0,310624023681619
0,320030125017841
0,32189190749403
0,301594689653724
0,318218853121654
0,281460311165942
0,320225647830844
0,332908440064356
0,321034201126268
0,347208248970743
0,3054990234327
0,295213919208568
0,281717980175165
0,327036836001413
0,279695010844883
0,302237453237376
0,276311689802432
0,313050127902111
0,294449599161077
0,28044648651326
0,285536300771498
0,276185267231573
0,28554489532821
0,29561780234388
0,274383687932385
0,273634673821601
0,295760437536271
0,2716075533502
0,293429893786333
0,299589915570458
0,286560264334505
0,260306681852727
0,2678693687252
0,264379291078714
0,250924096925004
0,310429777658786
0,261306911146717
0,272325001564256
0,2615331112882
0,257156252085136
0,256378543252178
0,256834719031969
0,271724316442034
0,242762612618424
0,287993043735815
0,23967839848977
0,266715435115109
0,25164002951249
0,263937385902161
0,275237838137846
0,258062781421122
0,237963519037691
0,254053368460319
0,272883605538438
0,241492616650355
0,257021191516924
0,242037367888153
0,237670592824116
0,258495178644197
0,236406737457257
0,247870906642225
0,250571913144922
0,229553189560871
0,262002811755087
0,252694621698126
0,267720239334587
0,247471248660557
0,231169990468027
0,23849910850081
0,23151785364587
0,244427665192415
0,223707632078717
0,24622251960969
0,243195440798704
0,214526318011558
0,269311627287491
0,232795280230105
0,230101435904152
0,230945158969586
0,227595282818284
0,226253648956206
0,233981765702735
0,245956921977561
0,24029579726765
0,227721665121825
0,249577669048473
0,225582539959829
0,236086647883969
0,223574688129391
0,232554631035757
0,223002550808627
0,239553450838361
0,227347149578649
0,230199306221949
0,230485006411133
0,225726025042693
0,21827459066659
0,25634048207812
0,207134089016294
0,254334100089611
0,219930442841645
0,26196669419448
0,236510515443384
0,226184608579412
0,23147686348862
0,223116648223852
0,227061619902872
0,225802480246459
0,223339151155564
0,254092405924957
0,218177964647082
0,238994242738714
0,217259921640314
0,233879883592469
0,217198170360863
0,239550757451191
0,218581860845569
0,252305023161738
0,257288089631021
0,224752553921553
0,237194984531795
0,219249205823585
0,231047365474573
0,229603308826814
0,228080494152756
0,233909242321055
0,218682930961676
0,23853907245431
0,226191511075119
0,228200072745705
0,228276999455272
0,227714102439531
0,224524773136987
0,227090075952554
0,226526055382352
0,226407589977353
0,223203414397647
0,228795839881408
0,200351175956144
0,267148071036678
0,228527310714777
0,228357573140495
0,225735947136752
0,224402329821636
0,231420421649523
0,22451720101596
0,229404263338355
0,233881887739175
0,223793346718773
0,227412354437144
0,222791842647934
0,230478384402049
0,219469214183343
0,243778889024255
0,216584330535668
0,235114322436666
0,217196878327262
0,225178427040382
0,254817019126639
0,221200767994658
0,238732955941054
0,221067317271401
0,230589417958
0,220425051741715
0,228063429577055
0,225040692358968
0,231418380382254
0,224119650200806
0,228950423540409
0,224432677011202
0,223267539270427
0,228106899106115
0,217544817770927
0,232871379320322
0,226390813487834
0,225238832222031
0,220567704382325
0,226306240694686
0,218295853873632
0,231172328175895
0,235810136832162
0,225989412949637
0,232239016132861
0,220686813813252
0,231806762655041
0,232011770707212
0,221543956674145
0,227719572678256
0,223765407307406
0,223483429708628
0,223753551500725
0,216028708070866
0,243530508649178
0,22477963744314
0,228491280698254
0,219451034408252
0,22413728087107
0,219346422570378
0,224927399374793
0,219911241351816
0,229445677207158
0,222935460784176
0,225710283092067
0,223987998705864
0,223309061557319
0,226059307500913
0,229231053413449
0,230017972096219
0,225366990478916
0,2230416397007
0,222963103390989
0,220067655519735
0,228392002061479
0,222019663494963
0,224468643177084
0,221185730430898
0,226734458951769
0,214520128812805
0,235556174961924
0,217646965931465
0,223647877171583
0,222703178255801
0,219301294607496
0,221863032534951
0,218326569645267
0,223258089497354
0,221817252042039
0,223219550628713
0,218998346486695
0,21892700517549
0,219343858855683
0,222815160959156
0,220334355593559
0,219918888555434
0,21862988723183
0,21962756717626
0,219176044459551
0,216105066228342
0,219566280390763
0,216455218657517
0,219371706009717
0,216347584719003
0,222082595034576
0,22153986053339
0,222660955299347
0,222395150340739
0,217025498363703
0,222900067609578
0,215123707455984
0,219319712056596
0,215104145824643
0,217423966122154
0,216345641093473
0,220811218977239
0,213804095224048
0,217909795047578
0,216473351231415
0,218671020271713
0,217743399444209
0,216903990095993
0,215606536128629
0,216946220755046
0,212536860496299
0,217470477315495
0,216394226260675
0,218337059009421
0,216268933770894
0,214687588809788
0,217751187405222
0,214713413996546
0,214446875253755
0,215188612261196
0,217384111645336
0,215013714791375
0,21655105015679
0,215790565358779
0,214564878906945
0,217839928500103
0,215730084032698
0,2170320749405
0,217193606237897
0,212907636182372
0,214069165190245
0,21671890598008
0,213501632290292
0,214601919890397
0,214196936863679
0,213419720717993
0,211310915530097
0,214391765402498
0,215645917742892
0,214999185773145
0,213791001567462
0,212052112530188
0,213994201388482
0,214937562916253
0,212366357492114
0,211058593641393
0,213698382188535
0,212218299655173
0,21171566173034
0,214749066670863
0,215144474365213
0,212435320671192
0,213432929262468
0,213689700842446
0,213583244147694
0,212797602248019
0,213416895978571
0,21308799634258
0,211599681287722
0,213677824714188
0,211119110339961
0,210870797998134
0,21319685901481
0,212012467241056
0,21410916872936
0,210776878323017
0,211870775283719
0,212072035862341
0,212696214604735
0,213537790693892
0,212143063375179
0,212189039795813
0,211680929420835
0,213800531902522
0,213981800486583
0,212287833110906
0,212337817527175
0,213209804687883
0,21343276357534
0,216031531480359
0,213924845694264
0,213416021677753
0,213912353070376
0,212765219680495
0,212523480211278
0,212492806656211
0,211598800699799
0,212871371977524
0,212280344076057
0,212415638052467
0,212235973083936
0,212412131669672
0,210600968048736
0,213413710526187
0,214004606486015
0,211900227689296
0,210984848803615
0,212536402190144
0,211378874009147
0,210920491319518
0,21214668171215
0,209875292154843
0,212794029900464
0,211605284614268
0,210642048342336
0,211508847809684
0,210001140274914
0,21051674289413
0,208838012443086
0,209915942434157
0,210307013119477
0,208739815201042
0,20982975248772
0,209210237217644
0,211061816157615
0,210655050303123
0,20810631001669
0,208286547875173
0,208284278378716
0,207921443461549
0,208878618359454
0,209641274219824
0,207477592237139
0,207505607010012
0,207608052925573
0,20737050576313
0,207195328032283
0,20767970651649
0,206687554801722
0,205572284339555
0,206684559201046
0,205973750766487
0,205662040399351
0,205744397377316
0,206293155969009
0,206251303691844
0,205413214812752
0,205705205461113
0,207711221979251
0,206838773131514
0,206670742916321
0,207414982540588
0,206212078949628
0,205510836862737
0,204921100040409
0,205260439594538
0,205307566884066
0,202933211572855
0,203644918003072
0,204032385549314
0,202683348071263
0,20460589546463
0,204002866861695
0,202333005893335
0,204649655787347
0,203339389150075
0,201964888176055
0,204122050193759
0,204965785249665
0,204362453302933
0,204234470772163
0,204359957067136
0,205601908403818
0,205558083158067
0,205872633675174
0,206846112092607
0,206181836762689
0,208028357399082
0,208469583087007
0,209615340164753
0,210333734656834
0,210210855224624
0,211760809506287
0,212227999498614
0,21292650034105
0,215246783527943
0,216537809990455
0,217809983615564
0,217657652032309
0,219899472207136
0,221112161271893
0,220486977047384
0,222932603203799
0,224435549265442
0,224569913153127
0,225772654651239
0,225837812248727
0,225749974351716
0,223429346386288
0,224523446606637
0,226964196711495
0,226634729163117
0,225092453609791
0,223775659196646
0,224454401563962
0,22608763016303
0,223475193810812
0,221784643145068
0,223744790095151
0,221923879728696
0,223655727903703
0,223241818296311
0,223093163171052
0,22401668903579
0,223195062400766
0,2234729389375
0,223160031424018
0,222722632866998
0,223211053184037
0,223530454506467
0,224766165378973
0,225193251087036
0,223710965924143
0,223933003747058
0,226569203361305
0,226235758735379
0,227725346343107
0,228077031078156
0,226683288911057
0,229534294389048
0,232127417682887
0,231927010373382
0,233983702379277
0,235496519169794
0,235425803376412
0,235548589262581
0,236127997551493
0,237408156553623
0,238936905904049
0,238405827270661
0,237485459952642
0,239049989673064
0,238004412247122
0,236660103405741
0,234988330076545
0,236081532882838
0,236763362394636
0,235681416439322
0,236809570332608
0,236868286255489
0,235322773469965
0,234780541499026
0,236110431416957
0,236013826113295
0,237636412855256
0,24002777045693
0,24120524330917
0,24187687539116
0,244469816276746
0,247572403537773
0,246168489865534
0,246336730273335
0,24825518246342
0,248270878005483
0,24935803044378
0,250171263690785
0,251119920758526
0,254170076205455
0,254558735585043
0,256418111865757
0,258738216611022
0,257557045802891
0,260403933139759
0,262198029897733
0,263776061784739
0,265779980382244
0,267374625251859
0,268409873554276
0,270049410243658
0,272340344929716
0,272117371153014
0,273763671015925
0,275870612696137
0,277475530166872
0,278173625885568
0,282115647261684
0,28153755639667
0,276659952900561
0,280256686033115
0,280246071014308
0,276494101067096
0,271806492639729
0,27203261925165
0,273689887001759
0,270468384423662
0,267740723100784
0,267211125854633
0,267825106944431
0,267717666115863
0,264729800177525
0,265845407954877
0,265919460992095
0,264927262506122
0,266985693314349
0,267566467212602
0,269012034396262
0,26828326916125
0,268145504445822
0,270879618563043
0,270368383494691
0,271253044050402
0,26898665197924
0,272622987972268
0,273753918952735
0,271672171851363
0,27273471978329
0,275885973765874
0,276686609466077
0,276013117463791
0,274268075689491
0,275040167091199
0,276755427507462
0,278536619921719
0,27773442967105
0,276781694991554
0,276375487821988
0,277066570711724
0,277708625634558
0,275665074133583
0,273879957183543
0,274224325506746
0,276204768155056
0,275848174313585
0,275828381050354
0,275983345400729
0,272101094469873
0,271023488963567
0,270038546104046
0,270448195431989
0,270258605784421
0,27027238298493
0,268252299759976
0,267666020374578
0,267277716776175
0,2656894651068
0,264897724138616
0,262976292924547
0,261484624572364
0,259558320343084
0,255927909632989
0,257568025895795
0,253540939572646
0,248825624890381
0,24989655423057
0,247613467035031
0,248431663225162
0,246982466769962
0,245516187616282
0,247923294695512
0,246217222017825
0,245455146086635
0,244993970161995
0,247886180838893
0,251689518063314
0,250507250312118
0,247678577659588
0,248241674736351
0,249896917987885
0,252937091144764
0,251811304541399
0,252325806191221
0,25205131382906
0,251503656718104
0,251881111937386
0,253016548854377
0,252246365035337
0,252427964771552
0,25224097481706
0,253740033880429
0,254048664107472
0,252340498798169
0,255154450501603
0,253732875252872
0,254147915499613
0,255135660821854
0,249532487094555
0,250484429791483
0,250094633199879
0,253651346294667
0,252948135784249
0,253649029046216
0,253597426606611
0,253326968768764
0,252150823592616
0,252050119671633
0,256269142243027
0,256864129081986
0,258021655534102
0,255282571761621
0,253675052260278
0,259884467594462
0,259628135045457
0,260979611204969
0,261715489928448
0,260949967382375
0,258522268319802
0,26010628195967
0,261826207795365
0,266720934549834
0,266307829309006
0,266123834976567
0,270618251516472
0,272806404787315
0,267922438421915
0,268045215198458
0,269823298774001
0,270921866591707
0,270475205615733
0,274952308551956
0,278763149493326
0,281152123528284
0,280755054242892
0,282185501221852
0,284678397528355
0,286324943947051
0,28500712850108
0,286177273667586
0,291076818398801
0,291323040170046
0,290128363157254
0,292922280756949
0,292456341614414
0,292087312911327
0,295634802527171
0,297576024245263
0,299469744595297
0,297238910507604
0,296390256415419
0,303838363685923
0,305182265933926
0,30683366573154
0,307043940497506
0,308220766284096
0,311807442753868
0,315032116758212
0,315364274147877
0,313424913226131
0,320202989001708
0,324009430341693
0,321734661758687
0,322616786762176
0,328474073109512
0,328975666984217
0,332898784923724
0,339990134212753
0,337319708137708
0,337345695680812
0,338579628365726
0,343698271371714
0,343572793844077
0,346812994834262
0,347158234791258
0,350317578296383
0,356005070587791
0,356572338136987
0,354640181624474
0,357058918656325
0,360101933475645
0,366719694460375
0,365135623972891
0,366003926280092
0,371607087407347
0,371348882926173
0,378392559896424
0,383701927556123
0,386930318579204
0,38492931475098
0,385642525421138
0,390806027349465
0,393176542649945
0,402667704469436
0,401062797241582
0,398554074687723
0,406407806621232
0,408692603009262
0,410089412993325
0,413896473851106
0,416647436922438
0,419007057932216
0,422086540164865
0,426252125465242
0,422327724169518
0,428026904109143
0,431515192346967
0,437205519579006
0,439840715879008
0,443922116092929
0,447474449412667
0,443530311619405
0,446775791183188
0,454268515738313
0,467747812913537
0,466462847152881
0,456992581641641
0,459864715263146
0,460153958179053
0,470625728088766
0,473859226422797
0,477174156785901
0,480913538878096
0,479583511185201
0,484190995477875
0,495280068634342
0,495446345810422
0,490328045342454
0,503444805076829
0,506956732669818
0,506611210836419
0,507110710152023
0,513201195035808
0,510691503483984
0,519778729518707
0,524671229984592
0,537671157241618
0,530397062317295
0,52900486810337
0,544358585744037
0,555746685115796
0,536483867352194
0,541751360619294
0,546549852055432
0,553675535151678
0,5635978659386
0,562996223983701
0,563113545696656
0,570489162628235
0,570786508263436
0,571387389350786
0,576959582754488
0,573653402839387
0,576666117929799
0,59858626961379
0,60449800838704
0,598141072180546
0,605162759079445
0,620932300645414
0,598407445777449
0,614265939000969
0,61834073126709
0,614511397572787
0,614985597691328
0,624413495143839
0,629391492742186
0,638056063078786
0,637935498352743
0,646327529018426
0,640309175554518
0,654044604360227
0,647896858039998
0,65241315423812
0,653893585752344
0,677090390349887
0,667150556171408
0,658844863878895
0,662525288018298
0,687825599991016
0,693955873513281
0,691298808483102
0,690455962752532
0,718919024888824
0,689614309337964
0,683953813627709
0,712362021494322
0,719704356932319
0,733902370889206
0,705163733657221
0,710196985214817
0,727235021269511
0,706108082486092
0,721712800445899
0,714187540369718
0,731627036663062
0,710944968098518
0,741010707331142
0,776002168424058
0,763143187998889
0,764272947038298
0,762421969155527
0,758495476064627
0,780613705296186
0,762426876031824
0,795457465394951
0,804766812941245
0,806706020718163
0,789183672528292
0,796761395746968
0,749239970663752
0,786140209577484
0,806406827127879
0,812283655007949
0,829721500114651
0,811559311851068
0,804640120607253
0,820722927291624
0,81922697881641
0,833667202238946
0,796029340407721
0,847699353878546
0,814397662093358
0,839826768184781
0,826302956696039
0,858576948473156
0,867158460566361
0,888970849767311
0,87522742629525
0,85513640369838
0,881173390664452
0,915624505758546
0,902297486233776
0,960652308987557
0,896323394039659
0,89215834251419
0,884705789213291
0,913798633221219
0,889832057169128
0,935132698359479
0,893380618818591
0,958269437706984
0,901828409372598
1,00447271745675
0,928750652621077
0,883188601082162
0,97664941161405
0,953265380602522
0,935772662395911
0,947538576886902
0,922289321655047
0,981043129916021
0,983609505411077
0,994868634041705
1,00731377557381
1,03854970085564
0,947092092304606
0,941621365326005
0,955852584178238
1,03608590664541
0,989855859016334
1,0475990992318
0,919045738759251
0,982499703247756
1,05319297950552
1,14448704840799
0,972423015905662
1,00702430848916
1,02053456449354
1,11204968819799
1,00882944511896
1,02900301019692
1,07153944860791
1,16720690775725
1,03273414745396
1,09801437340125
0,927192395409875
0,981857377987564
1,03952895488346
1,13575863945742
1,07823756305581
1,14951450833125
0,942826909796605
1,07642940716326
1,01025895958899
1,01217818572806
1,10063218887458
1,21414045182402
1,22994255991364
1,13223574471164
0,907085775138449
1,18420416785789
1,02631211350757
1,31587013764086
1,1962206767501
1,18282055514807
1,0224377993365
1,07564428235217
0,966960829902979
1,12393583735496
1,06901707727084
1,15438661431407
1,17408996215142
1,22961058307502
0,959164747535177
1,10764645271691
1,19656894639882
1,59247813741969
1,32004506931819
1,19667085480794
1,0940425793752
1,5268321451605
2,1106170214483
2,27570481632094
0,976267222118403
1,31550939665729
1,15860338515522
1,6722458815746
1,23707269541258
1,05338126042701
1,28685816732043
1,40780582752774
1,14983071993261
1,41043147559505
1,67939683909613
5
1,52260837719029
1,27988850853195
1,3463456971574
1,47046266205673
1,07676234321808
5
1,22524127820868
1,88546742858081
2,806740937297
5
1,08662879213765
1,98828282567474
1,31887509919755
0,784235553614137
5
1,30737077415513
1,81024273957711
1,32697582527233
1,17484148209784
0,844973837876435
1,27963666052595
5
1,89371443213779
2,96861636812707
1,1182696665655
0,942089012151676
5
1,1651116580753
1,561688197282
0,854533469965352
