3596
4000,36533379555
650,420452594757
1
2
2
0,0659742111654977
0,0480524788710704
0,0642644186915808
0,0489336749702614
0,0609802337802632
0,0494124926517607
0,060509687189467
0,0453614183961841
0,0626199006753293
0,0473249348391363
0,0658653151475413
0,0536872475160463
0,0619191234668878
0,0436013807673859
0,0509339104066433
0,0493097126504134
0,0585842052246398
0,0399991197702765
0,0627329599152259
0,0534466961917447
0,0652685459818818
0,043950737116754
0,05916554584751
0,045952303571446
0,062829042511146
0,0463192364777562
0,0630732549813859
0,0491046491194575
0,0634880962018417
0,048086514807061
0,0595297573021986
0,0462962354250329
0,0720204859769866
0,044416482277625
0,0664264374558795
0,0540055481325423
0,0604038154884722
0,052147455504549
0,0596338382680188
0,039529507680298
0,0649036254238109
0,0497661940751127
0,0686747160253737
0,0464418266645656
0,0678066603089179
0,0430476660819768
0,0592444381338144
0,0458486657736443
0,0608609251410078
0,0416294786830539
0,063119597043927
0,0445458161063617
0,0659787118783712
0,0591959549467639
0,0615961528353781
0,0516041436092547
0,0552584198803583
0,0524410705030576
0,0570669393409736
0,0369485177448437
0,0758452215971596
0,0589975735824836
0,0638890013987626
0,048377447548472
0,0561850140515421
0,0525272902346907
0,0609134834760861
0,0393278700099881
0,0533715763657317
0,0577517762733467
0,0555774962611569
0,0575623330730367
0,0657479323956972
0,0438315314815892
0,0662341338401849
0,0540328090372951
0,06202874387273
0,0491210340308697
0,0523277562760667
0,0501651365897059
0,0704784246146988
0,0546182504075769
0,0593125315839515
0,0443543166853616
0,0685824352032941
0,0600000853255514
0,0514607456822752
0,0501183768773275
0,0730922313561848
0,0535391709864532
0,0639628780988999
0,0467435855027179
0,0616207742030839
0,0520582507889591
0,0513919601817268
0,0433250647006749
0,0536966980682809
0,05465789615068
0,0596327222640513
0,0442424059201852
0,057969276623954
0,0352785074807909
0,0902891369130621
0,0248277619039538
0,0965038935712293
0,0544001053021237
0,0694020279331997
0,0810340443260668
0,0762657962380174
0,0533759824474899
0,0545208119103042
0,049992112181541
0,0581410810711936
0,0597710188482594
0,0444890656437454
0,0609384093687406
0,0854414614200708
0,0546181280451443
0,0620455854700011
0,0516783695852097
0,0409922824042122
0,0600919675978008
0,0798000137840884
0,0408657232912557
0,0758562796602133
0,0501178250521571
0,0391137449869708
0,0617024730163133
0,0788822822240531
0,0501268750082671
0,0596090818834033
0,0563948424651051
0,0495931746273842
0,0376289883266027
0,0894151381657417
0,0418252185513865
0,0648864152282835
0,0208572807683479
0,0689869951468868
0,0815240239910621
0,0692275803073963
0,0507063224894919
0,042812092086276
0,0373183207111099
0,0896180331483525
0,0550522460454358
0,0525739542873224
0,0566424549080046
0,0683632881724203
0,0508679548101167
0,0557560888084781
0,0398147555030435
0,0694951870604608
0,0587775130783301
0,0126876781423311
0,0460092623130533
0,0975129782664832
0,0589103320670496
0,109424384028558
0,034670769263689
0,0784477074417419
0,0395376839068209
0,065674097790017
0,0370104732745756
0,0680512175693136
0,0305200191543578
0,067072483694447
0,0636476584763304
0,0624989636255327
0,0446099937797004
0,076885733256215
0,0478685369966456
0,0405727700040657
0,102815544380044
0,0678013160633407
0,0347269718520329
0,0835158961954317
0,0614978509228797
0,0504961995552721
0,0494328964177257
0,0870655624761981
0,0435167179790343
0,0660546948105606
0,0462296555165475
0,0643088641255084
0,0613757190278951
0,0586848549966439
0,0467658523441393
0,067642195309568
0,0267669708442082
0,0651199690918426
0,0793251953418007
0,0904071371540518
0,053071132447337
0,0683950530038381
0,0179435042304788
0,0972206502487137
0,0649175673064771
0,0678077350218086
0,0508992650655514
0,0564151559406073
0,0499677988522545
0,0549639387486233
0,0457566188604574
0,0637018091952074
0,016888034887732
0,106029925940588
0,0563035943553548
0,0697060268079031
0,0425215233243355
0,0590922969717983
0,0247389453087471
0,104082254603365
0,0722965696819231
0,0675631336428893
0,0542573207830904
0,0603236386519404
0,0559092720069989
0,0809940141393719
0,0491328640549645
0,0665937572462469
0,0469141480701469
0,0647850673023264
0,0482448424993653
0,0666842453182494
0,0546013741812104
0,0614973728223863
0,0500291630587029
0,0657472868146499
0,0524506774242712
0,0713161088821106
0,0523086967308
0,0625145348673104
0,0542877069848279
0,0580820207004821
0,0597239444220554
0,0848419735633701
0,0575233991182397
0,0687282843289062
0,0488399417343208
0,0667870642630368
0,0515604186748633
0,0746970785554601
0,0503052709193251
0,0660656303403356
0,0280115390464545
0,109229016824366
0,0595266011028242
0,0805776466465713
0,0312896590284227
0,0844557624877196
0,063220028699288
0,0714437027057311
0,0473144788707254
0,0738502905497026
0,0411882981610643
0,0529980173607708
0,0821751290115615
0,0776332968921407
0,0478542364714556
0,0839611934582686
0,0666565440312672
0,0645978724190426
0,05426139939188
0,0494580627219845
0,122312066336608
0,0808468497254083
0,0280117127086702
0,131255078731445
0,0581088531697502
0,0826345830581151
0,0492555002530557
0,025885159749233
0,124631761813621
0,124299306577657
0,0607743303472388
0,0653995495962653
0,0767636493028429
0,0720247629702615
0,0670243420154258
0,0637851628213298
0,0758365024893796
0,0859369597480701
0,044702305620694
0,120205701683936
0,0463071638996825
0,105817081628921
0,0785318466547906
0,0871630869643154
0,0684584186948171
0,083689758893936
0,0510914162256456
0,0967921134861975
0,0666255348630233
0,0907305476056845
0,0712774407023579
0,0733508673602747
0,0875581841545938
0,0915293385711032
0,06551590121993
0,0860892393955935
0,0790283279903315
0,0851131988140274
0,0811069873432992
0,0817482281306738
0,0828188086817736
0,0802527270037534
0,0604799274407216
0,148906760595381
0,0822505341657765
0,0923332023335639
0,11106830269376
0,101952597383868
0,0882631756915483
0,0943679312902588
0,0837272401287159
0,103712475367535
0,0896553068218662
0,0878441326914314
0,109144230523603
0,107378771932645
0,0975056703383081
0,10638542416082
0,0937529899338661
0,108710900236047
0,103744227515329
0,119473933664102
0,103487619635159
0,121502189574034
0,092145761977415
0,126319529979988
0,139932587697852
0,0956924203996705
0,142032258403576
0,162910385192612
0,124947211546697
0,139532729822198
0,123602911190116
0,144411974550573
0,123499888351719
0,152451924950132
0,139170812456792
0,162008505624701
0,154593150892493
0,168001422510496
0,147558388847391
0,164989760124947
0,166930065884953
0,222874510057744
0,174806988645166
0,188207819811683
0,145460925131974
0,213676425554116
0,201045699138167
0,199296595151689
0,216346069364035
0,199764588918718
0,202127884918196
0,211156748647737
0,213126025395485
0,215492259381479
0,211246293978711
0,217339372979459
0,220886368010136
0,251853040557448
0,233141997486743
0,241009661580139
0,233710086549531
0,286819550692987
0,255238109968638
0,26931657925363
0,271803816743999
0,258045834730801
0,289265322459138
0,287011948967189
0,287374218104837
0,312654581528708
0,277193425384346
0,330750247038306
0,273401129620393
0,318187881288105
0,287308613761291
0,32178275868954
0,30618600734911
0,324710635771151
0,310930268619739
0,322230519839447
0,309944413949567
0,348915289852009
0,316964025863648
0,345213716800375
0,325709092949403
0,371512353644543
0,343156425681513
0,386059050039083
0,330528718521801
0,393115477546938
0,363166526344573
0,420728906140579
0,357921656966894
0,385378347198577
0,359498828977629
0,385660587826562
0,375422640467847
0,409932645876382
0,39026008029364
0,396510599694717
0,391174393236988
0,43197150362288
0,394637350133719
0,438600539945736
0,39222166697045
0,438606152598145
0,403714726293608
0,458530679283187
0,443155947373188
0,453222601510585
0,412641510945702
0,473772569120341
0,438302927821107
0,45469252444886
0,463739777356417
0,45213843151017
0,451167887241383
0,4636984350205
0,441747967637289
0,502745882085
0,459730701888913
0,481539687006987
0,471042124043184
0,515627503825181
0,468778930761202
0,485287580339977
0,481872944204745
0,528330049893826
0,486420179700747
0,518956193871349
0,488269966250443
0,530531553265649
0,472992412129195
0,563685543312079
0,522873221924092
0,547577214468627
0,521876776105129
0,522302547679697
0,490153646644192
0,567943373386779
0,513340281270708
0,56671353142897
0,536084270121336
0,568501060462983
0,528698044197176
0,584242855450227
0,524339640243871
0,576158905421516
0,573779171442844
0,604470771562201
0,547696887373211
0,573072309392926
0,569375064845865
0,594715933802557
0,565648970993281
0,669507767475485
0,605948635049602
0,651127862259485
0,600208209486197
0,618038581746926
0,609217129552938
0,655717688585033
0,595037779606054
0,650047857073
0,594046505235913
0,641069507351005
0,610656392278244
0,68209366305938
0,609407904975433
0,664293394808383
0,608650011687217
0,690902379300906
0,631886910457259
0,69771900979288
0,623156830503733
0,726270730666692
0,666941956824969
0,714718129494812
0,674763374117566
0,710054466487944
0,649298722786771
0,732272558620208
0,68319868247484
0,735058395874713
0,706717542478903
0,739342480391309
0,672953551577999
0,742965685402029
0,676575152858913
0,757760159011081
0,726971809029664
0,767178556497107
0,72503771809331
0,796135782587291
0,698786687415416
0,787653272126204
0,759849433917086
0,754809758382187
0,736836017099051
0,875002706682104
0,764327777908011
0,755920646410003
0,783152799833867
0,860417584600156
0,770880377248829
0,839493852588027
0,768285278077261
0,815504655249415
0,760393567248812
0,850097645205669
0,751341122519878
0,874003966063753
0,803714112740237
0,845544045128632
0,785125939477701
0,863565291676347
0,823406310729571
0,879780858855259
0,861138134633097
0,971442085554876
0,804537273256241
0,945344673931018
0,83312550103317
0,912533856813809
0,834669401362179
0,940546055257269
0,834730369166029
0,944708372157187
0,823989446612188
0,937433824342691
0,832027924897718
0,913302551086597
0,89162087988518
0,981984147352177
0,883515606282386
0,963972104514612
0,917675389400029
0,976143210743773
0,944428997403893
0,964879051985157
0,885075229564816
0,95734296004332
0,952020355469823
1,02962140897374
0,945116084960221
1,04975500303933
0,971446266623575
0,988250992898563
0,92633796624523
1,06419202693115
0,919064421405232
1,00251984655023
0,966690060624654
1,02827598714184
0,979956224234173
1,11763581971072
1,01695993534919
1,1052158012712
0,96659542851099
1,04400791836781
1,00263720552207
1,07289926659746
0,977676006860911
1,10860037895136
1,00302026175464
1,18012299169352
0,987191288138196
1,17617368697907
1,07268375143865
1,18141360500155
1,11617308731829
1,12881111732811
1,04883692647936
1,11551901469112
0,977110671105293
1,15518466135846
1,11203194068176
1,21106367253771
1,11088716277336
1,20368328231848
1,06624843090259
1,16125352453532
1,07957486249976
1,15858425791082
1,06583469835874
1,26121930716879
1,1219227239109
1,22438404819882
1,17728796852017
1,22826922408049
1,12148161905349
1,3331808275063
1,10065617956989
1,14981333611256
1,12993529731958
1,16454700493633
1,20507581739096
1,25533222151734
1,12689359231853
1,44364509495177
1,19909512913911
1,22127764178212
1,2037887442026
1,22608487750331
1,30510753882231
1,28382243212492
1,27481860878649
1,39687916708404
1,1987365957366
1,38056543768074
1,18732420400669
1,44351607639068
1,18962642156413
1,35049450816268
1,29379847237343
1,45049266746675
1,21349854724991
1,40010252589381
1,24269201221545
1,50797363219971
1,19956064668683
1,3797856260852
1,21974547041802
1,42840527159521
1,31285800462546
1,41379343183906
1,22038576603562
1,27217117473106
1,25439907273884
1,45450851737096
1,3291933592701
1,49671121568311
1,31067148432857
1,30730001346773
1,23679071704083
1,51574481697342
1,29653487041308
1,35949400381983
1,37347650649638
1,47312209458975
1,24021996962244
1,49333509033144
1,23494994859412
1,50504671181108
1,32781971893077
1,51794093788959
1,40361118961078
1,79876712670288
1,34301396531812
1,43821220882361
1,36422492008759
1,48607895978158
1,41872151236547
1,55212577882096
1,39672511641397
1,40602041681781
1,25674944548957
1,5007456156014
1,40478573730037
1,64204258192009
1,40775066468447
1,64627055604308
1,41054507686247
1,61138345890284
1,39679176049142
1,66997993744526
1,29484558419235
1,45763062759916
1,42603743163928
1,56846281984457
1,48221445474061
1,51170653593305
1,47634250839697
1,77167430421793
1,41020095068334
1,49728240017789
1,40489105315551
1,5972235247993
1,34111892579267
1,53408146023875
1,48500124212421
1,55052347012937
1,34517510917116
1,43693988390518
1,46295872172348
1,61355890793879
1,50937637387641
1,56818511100208
1,48612043411539
1,52778384155725
1,49349300824656
1,50358920848392
1,44153011810582
1,55437433072454
1,55743883576912
1,46778981158588
1,43457387572383
1,6524051635405
1,52952222043359
1,58292735725037
1,51143940747192
1,53682767936618
1,52863543232501
1,59090494130269
1,46965406019783
1,60113516585984
1,40070136723113
1,54871495585309
1,4350217027472
1,75750476859557
1,46132685803426
1,40844697495104
1,50466331584646
1,51653304468496
1,56220537763978
1,46569933557267
1,57837896019391
1,52201622245897
1,45997271512475
1,5262896892392
1,40187213560391
1,48627896971477
1,44926098080098
1,47440322226525
1,55057375336037
1,75708943165859
1,41997791442443
1,5879501511329
1,41499697044416
1,52004930614711
1,39957207404385
1,54990970841918
1,425058536636
1,52489772862547
1,33975043691148
1,57661750422006
1,42064890460288
1,44778172147482
1,49257133070563
1,4624044806051
1,4869458329303
1,57835241585099
1,42715866179942
1,56354511836175
1,48631689480177
1,54457446697945
1,45616072407909
1,75836622438725
1,49493106558599
1,50850751371054
1,38367979459962
1,46414027859384
1,46350847294537
1,60157767429382
1,50322260114466
1,48450162170103
1,44588184314642
1,54193368393482
1,39957241347631
1,62911675071092
1,38164499662777
1,45278820081936
1,52587099807795
1,57457169433883
1,43690453302333
1,36511427450446
1,47186106246747
1,69996191445244
1,48786713063073
1,50353842217653
1,41083324586771
1,45046650716837
1,36443925546022
1,50262214027653
1,458031010241
1,56139662365795
1,41356791545197
1,55719657242419
1,46557902498416
1,54844320007943
1,51534336401472
1,49534310331227
1,40478355640141
1,47760928070342
1,319531300177
1,60409176237
1,42423295667422
1,48733056264151
1,38697221823617
1,53316048220782
1,5458973091469
1,50598323856345
1,40792593488869
1,55210144622218
1,49085536692932
1,55158724813403
1,38117258052918
1,47819500986666
1,37483823610787
1,47860496405278
1,43156774005208
1,4649737592537
1,44691287053002
1,42823760244294
1,4500126205671
1,60983142404923
1,46693941404766
1,50176100321298
1,41876976688061
1,51316549997017
1,41522878857378
1,41903022292961
1,37125222652093
1,54008851197552
1,45591467809904
1,44879310832539
1,42779450676025
1,42856526882219
1,41373304911968
1,51342957843071
1,38226215725217
1,42331578268091
1,38879286011923
1,4392622831484
1,39119633312437
1,50458628178688
1,44467443863933
1,48347574811901
1,39543661193551
1,50897970091521
1,37571202997375
1,40811885459541
1,39925576150505
1,58210843933009
1,37682322280464
1,34829668275438
1,43075103759838
1,40007031745532
1,36991415725278
1,45005665387536
1,31708434745714
1,36878966516174
1,37290786683247
1,37857885065646
1,24488779574514
1,40832137251271
1,32814823787265
1,35210904012113
1,36183001550736
1,40508775864241
1,34384706169783
1,40730129622905
1,36493157711041
1,34177690822727
1,29092267987055
1,30270765925661
1,28491308234179
1,31679032198022
1,28709930829485
1,33718422967408
1,28994530900202
1,41724968664809
1,27256056872416
1,27927651270639
1,22699841088888
1,33662002965043
1,21070281847177
1,29966471000188
1,28060574579664
1,25909721081814
1,26425617552784
1,27291516612491
1,21800112504254
1,26634374345119
1,20762005938382
1,19373958429492
1,17259744599867
1,2238426967955
1,18902590479755
1,24472056462552
1,20176505021624
1,23531470607429
1,18455151171992
1,21756384969741
1,15765234572161
1,15115319708879
1,12127617086522
1,17600456157958
1,14861253442032
1,15843215613476
1,10914292793269
1,15125754540848
1,10945379614515
1,15033445149053
1,09731171477711
1,1280188111024
1,08514619870099
1,091579512816
1,07555474526615
1,11441454176541
1,07523724831112
1,0917464049371
1,07441342916138
1,06250761782126
1,03980796987873
1,09016906517298
1,00525973124855
1,04649908555654
1,03809595644139
1,05398301825966
1,01663456450444
1,0219434421947
0,996031435614323
1,01630517510705
0,998785500499184
0,986630333689219
0,983864196453575
0,980728390439621
0,942301987589575
1,00642759623319
0,973736656813575
0,975460862689419
0,93258271545489
0,951322197077152
0,933798305113064
0,958042302437442
0,928069590623921
0,928158598034643
0,91418663383976
0,925930308341387
0,890059594121424
0,923258188083721
0,866667411013144
0,880645945660295
0,88794480842342
0,862509642464741
0,849791801480539
0,865674824114094
0,8594725115316
0,866572093978756
0,845814597332782
0,859759194986738
0,844567438692142
0,865691407377149
0,821615418964799
0,832467592109913
0,810967784050502
0,815632525940079
0,808310577659442
0,807463627753287
0,78698852863601
0,805048828156771
0,790085247799763
0,781880033508944
0,775545858574019
0,788169024469467
0,753963573885712
0,795681765583834
0,744084172050639
0,747871622600202
0,74050725513542
0,735087818565009
0,726438256458325
0,736275954649558
0,712882519089831
0,72993535907156
0,695282446952826
0,704223152460419
0,702420281777549
0,712081778943146
0,707218858483496
0,71602247163297
0,693404407299162
0,694292571336143
0,667999703648332
0,675692991504065
0,673805658805223
0,678795349734371
0,666640171624592
0,659696861265285
0,648074137238179
0,645952812699595
0,634639346530819
0,644160917824437
0,622789849022489
0,635629959810825
0,627380709947559
0,619464216450971
0,613544476941117
0,619472442727134
0,606413530022613
0,611063142038712
0,578210873873768
0,609004452010059
0,579217431695909
0,587251861882762
0,579115803254226
0,587594200876801
0,57743321879527
0,575645053097378
0,560585421924397
0,573021904611841
0,562717593017631
0,560959613872051
0,547039502288299
0,557872052973348
0,538743798007306
0,54966410168235
0,539914817721289
0,536512998732775
0,516160005908702
0,534088608602674
0,528034319560027
0,527673136336824
0,509600959223729
0,520556784286474
0,510243447689362
0,499381994613097
0,491214165624654
0,500057624821711
0,481631615233655
0,492887479493709
0,481409736397591
0,490290224667351
0,480577574708816
0,488926257994469
0,472744252824997
0,474114887447112
0,465676763755346
0,464076962111938
0,468591861621294
0,472059837018642
0,453976193929521
0,455755292822573
0,445952515584342
0,458721832926818
0,440227891756224
0,44059016901448
0,435202795655411
0,443392009860174
0,433978001344241
0,432801916988
0,42587257799137
0,430114505954265
0,407347537648406
0,414234313740218
0,408363553689816
0,411072192067885
0,394481378385105
0,397440389155558
0,393231905261246
0,398470544927401
0,391234796218437
0,399764944060626
0,393948594247081
0,391727442522153
0,380111038690817
0,388267109235464
0,375391105093396
0,379315687598723
0,372207050023765
0,376841520099582
0,371465817010989
0,36983865525074
0,368016683460781
0,368354410572621
0,35649195284705
0,360212012588031
0,348856847981852
0,355807814602343
0,345125727918949
0,352907495013885
0,344811202119941
0,348535990533513
0,33441887540701
0,344111392150971
0,338845318881391
0,335345939063061
0,335449334136014
0,332482414823279
0,3232315927146
0,331132082581769
0,318601584373471
0,322494275372036
0,318736756595137
0,322132782915653
0,313439969918481
0,310514354956795
0,308104352488081
0,307225608480905
0,304555961372238
0,31189909712603
0,30058814699832
0,302046939011956
0,298025223955279
0,304344885877279
0,295690717509529
0,291846352614254
0,286906176251903
0,291479757545355
0,286376345692117
0,285797766821669
0,278824289020592
0,284953405978535
0,275087327368968
0,282023595454405
0,273762959528251
0,278718883840637
0,268679879081424
0,270475685949997
0,26158059489923
0,268785452597159
0,264824271963593
0,260159000176223
0,260114359620626
0,269040146193692
0,25650335380738
0,26651360474482
0,259649910265916
0,254623363425099
0,253798239049471
0,257502746903967
0,250961159257913
0,250358297481563
0,248083621826548
0,25498774203965
0,242469133003384
0,246604885342699
0,238831823617013
0,243241979684532
0,234651107124714
0,235095101468852
0,233759014730215
0,239156202516082
0,23371798630093
0,235178017284078
0,224993274847628
0,22473788731576
0,219954760683454
0,233120203704798
0,224291984468881
0,219946478803642
0,212239133309213
0,219391155974329
0,215855619309154
0,219453121129168
0,215854521818307
0,217810173859454
0,206281815575565
0,214007265600711
0,207512643724352
0,209264528722535
0,203871049880447
0,199975972290705
0,197113933780578
0,208248508363313
0,20151385835384
0,208286789485713
0,200986645142431
0,200787543520447
0,196450053122086
0,201027137288326
0,194509070429977
0,198923125223285
0,189415582482351
0,194966483183641
0,188510528302143
0,192622682569232
0,190272598277295
0,194386528730744
0,186440233632697
0,192057397416031
0,18607424765518
0,184704705530983
0,185242634042203
0,188354558726878
0,181830844949683
0,183386978129047
0,177184093565849
0,18756750926232
0,178686324221652
0,18344609168794
0,174183324404183
0,176795547172461
0,175747077648274
0,177180189494439
0,167158447778394
0,17415590529892
0,168620366430056
0,173049323333241
0,169435806289276
0,17087615314302
0,166414541589989
0,167953118433509
0,163092991354505
0,167875638829925
0,163173597864209
0,166589074956229
0,16150531005346
0,164272980937069
0,161663193383491
0,161996384268272
0,160566974641238
0,160716941112097
0,152074826531029
0,159048950869629
0,150542137788413
0,155304353030235
0,15144562875961
0,15238524320918
0,149749214526106
0,151682201893176
0,148143519662831
0,156420486768507
0,149639565086946
0,150027512085518
0,148040482102686
0,147852444040674
0,14186639235867
0,146570485033479
0,140298168944463
0,142729701259196
0,136913640110479
0,141850908694413
0,141475151524461
0,145116594102135
0,138625196544756
0,143192572242944
0,140023232538687
0,134415008225878
0,130114988377658
0,135401321096075
0,138586037708462
0,138718322184949
0,129950818964563
0,135106493590246
0,131018558534741
0,134246906449868
0,130102144078227
0,135420035429953
0,128963601595279
0,132636131875911
0,128590890772523
0,134772261271152
0,128368203806053
0,127422094115785
0,125591943924418
0,127796463211614
0,12316652900953
0,127711769001612
0,126761019084532
0,128011295286366
0,121622966103058
0,124840066707863
0,120654838536815
0,123957654444335
0,116309932128575
0,122251849366851
0,123057210499544
0,120735176485003
0,119323241163314
0,121892586339728
0,114616868518335
0,118586232488727
0,116343521513236
0,119066524306431
0,112342353213991
0,113088730060278
0,113278616368662
0,116250997111896
0,110726146557135
0,113511477116188
0,11192571477977
0,116068737679488
0,10904393752323
0,115713225493146
0,109972414839774
0,108680098908278
0,107574331729336
0,113296496593175
0,111320569936471
0,110163523744883
0,105495699292455
0,112991175847656
0,111048303410178
0,108121782987458
0,1055690967679
0,11042242567788
0,105206032297711
0,107712338873113
0,102307906694543
0,106253756195407
0,103338537523183
0,105895362055293
0,101288330637831
0,103116748588386
0,101256093566185
0,103072858727074
0,0992644090549349
0,10325317294042
0,101232184377193
0,105033574754837
0,102953930510921
0,103359575106642
0,104024017268673
0,104450563499279
0,0973998345857507
0,0999956411862507
0,0971614966787549
0,102361799832657
0,100286433738659
0,101706037024921
0,0949647189130943
0,100554673906612
0,0946182396355216
0,0984391499748472
0,0937187344093034
0,0977849318533421
0,0924809098116579
0,0966050087240209
0,0923277453929214
0,0985556892537218
0,0951166699269399
0,0953870499530319
0,0909397347034477
0,0965275986151989
0,0920395449751416
0,0925912558165962
0,0919178304781824
0,0935161836835776
0,0940644948711468
0,0943688750918043
0,0877657513829815
0,0945717778417776
0,0904302005364467
0,0932952370583107
0,0909091659176269
0,094164761862086
0,0902159733244082
0,0920466069824945
0,0892386221104121
0,0887341158606001
0,0872085465572867
0,0905604434845079
0,0888445590663756
0,0910632312360449
0,0864901892497958
0,0901795205184984
0,0838601020151084
0,0896227828624448
0,086213215884277
0,0887733699089421
0,0812757191171655
0,0867695344041357
0,0824196911862013
0,0855770845301451
0,0845051309692791
0,0882473391739341
0,086229235005043
0,0887597461616367
0,0879076527267313
0,0896702789303859
0,0823786358951445
0,0860267353869393
0,082436154724377
0,0883660668375686
0,0842893624322198
0,0839052785292168
0,0847723531160079
0,083413834191352
0,0812323397390278
0,0845050235904066
0,0799064068637173
0,0839217235760924
0,0829151741309089
0,0847152969423725
0,0843821960576559
0,0865761384743619
0,0801831792498305
0,0814285507552516
0,0791151956503222
0,0808516528475701
0,0814434443773169
0,0848079091041482
0,0821004100589687
0,0847531355959496
0,0813613025081076
0,081950715275248
0,079205759382936
0,0800062997058367
0,0759453647137666
0,0805274729388709
0,0797120259479243
0,0830080856301196
0,0790572204345357
0,0806749887724577
0,0792581409412117
0,0794862931427884
0,078957417332272
0,0790063569336242
0,0787148306182992
0,0793083427639685
0,0774391552443631
0,0774433922825183
0,074470891037271
0,0817220165948098
0,0762347670457229
0,0820031492126049
0,0803790901319103
0,0766620254187374
0,0805011417286307
0,0768617236635983
0,0744186955948344
0,0765766546363934
0,0732905131564463
0,076894809900757
0,0756443804763727
0,076700522248289
0,0750779460258407
0,0789868049119352
0,0750666533696929
0,0765995638133369
0,0741043546156469
0,0746974788896033
0,0729197487941656
0,0753380285982101
0,0737280104857243
0,0812388077773646
0,07346769290505
0,0793658546041979
0,0738707300276557
0,0765308392490319
0,0741013546181132
0,0779530803657298
0,0770796850654362
0,0780017443236973
0,0751433209835165
0,0764041669149449
0,0758536572077138
0,076747385846577
0,0700960498411253
0,0742585941857006
0,0741729056580784
0,0743751135559365
0,0725401065598841
0,077216475013235
0,0721760106607303
0,0772228690891825
0,0708558665394792
0,0723045284882488
0,0730791170721566
0,0781574956826294
0,0738341719627847
0,073104998623809
0,07134948081564
0,074916819074741
0,073152322197007
0,0731497298213531
0,0687566664962442
0,072802426866527
0,0710161485391724
0,0749253545078753
0,0731282419680611
0,0738303360752698
0,0715616221868511
0,0719483927534402
0,0727308690335566
0,0728984119622483
0,0688545026372752
0,0752384885961201
0,0729554868121085
0,0741870449495764
0,0703171643844469
0,0725579266833502
0,0712274239296267
0,0717155398317268
0,0719059894948772
0,0742165724633268
0,0717021972170822
0,0726294904870256
0,0696583805758354
0,070431408050696
0,0694452369361008
0,0719680189194142
0,069981129205746
0,0733840411789783
0,0722373260447287
0,0742182030745746
0,0686952291214354
0,0711362214183099
0,0711764968289411
0,0741587348073073
0,0696934653992199
0,0726418060627304
0,0701405232407849
0,073796497245987
0,0716605141679165
0,0731049553662935
0,0699300669755711
0,0723059188063722
0,0738208442961148
0,0720945637762191
0,0675836797437027
0,0709565724253604
0,0719506308387371
0,0724697476412644
0,0716118785559683
0,0715401366004818
0,0684367843981311
0,0707523408513688
0,0696081069753337
0,0720705011453733
0,0713320908789537
0,0716900933413855
0,0723324162693143
0,0723615052074556
0,0708084972292401
0,0715972577692599
0,071381614101126
0,0710248510897342
0,069637641927939
0,0724550643493089
0,0684463236796488
0,0715839947839387
0,0732308411423826
0,0715413914448862
0,0701765994392171
0,0742141259693952
0,0708226010444138
0,0709139336874121
0,0691501407451433
0,0738235037240628
0,0697773654999582
0,0730836893412462
0,0708919121179461
0,0723627449622347
0,0723475010692415
0,0711237075990457
0,072111789890543
0,075254706556616
0,0724833097036309
0,0733699462283106
0,070406039155091
0,074173406188082
0,0716726080469483
0,0720550714369099
0,0727278674312961
0,0735300948025347
0,0706785845479989
0,0733535099794131
0,069535448262971
0,0747010627975575
0,0734005942826351
0,0729580114474084
0,073221619215348
0,0760833452871182
0,0745375404032853
0,0718706854824803
0,0691146318128173
0,0724596496172786
0,072189137444292
0,0749180500879571
0,0705199646528118
0,0742606002008022
0,0724122689673811
0,0737564247434831
0,0724059660022608
0,0759993407195132
0,0708874268099612
0,0734296034805388
0,0748490159184622
0,0729587031112107
0,072334503587621
0,075845906179456
0,0719947811842263
0,0776117789941612
0,0699041944638981
0,0719409613936559
0,0728630326686753
0,0744367464512594
0,0699688408365388
0,0749349863977637
0,0729463680691132
0,0753955283089859
0,0735919491809141
0,0751984151589557
0,0720120657874446
0,073409135979136
0,073444842192648
0,0729334149255206
0,0685244884372304
0,0766280286469255
0,074611595711821
0,0704986608060306
0,072738388116369
0,0752840399412713
0,0756493979460047
0,0752487442928328
0,0735647544269761
0,0750784436290758
0,0732483850417623
0,0766411793391686
0,0743203656498657
0,0760067654771897
0,0723757640173229
0,075337026753137
0,0732242661456232
0,0757268907753886
0,0765612259653549
0,0759228583427701
0,0730607553744905
0,0753604232605181
0,074366349522038
0,0769835134228325
0,0769269846607289
0,0794614591350971
0,0758535940177218
0,0766349741957325
0,0781912535643078
0,075992068832522
0,0748664667516184
0,0789895024794154
0,0739469347829755
0,0736721569593266
0,0737915946092163
0,0776980635283205
0,0781134355831843
0,076655940463717
0,0766718519621172
0,0789442425444021
0,075671233779533
0,0794741688985153
0,0758951511220323
0,078558652103287
0,0758521230053135
0,0782380312909492
0,0759765443625328
0,0782359444978444
0,0756251323175504
0,0790633237983153
0,0773300513078125
0,079616503838951
0,0778392730320368
0,0760669511113338
0,0755519272371892
0,0787183867972365
0,0798099104528863
0,0804484385259776
0,0757915289652727
0,0782768009124171
0,0776029172693637
0,0809474223128787
0,0787647953193818
0,0814335187176541
0,0768300961639198
0,0771111432877399
0,0789882005097165
0,0814447674719506
0,0770635300855573
0,0777914824681555
0,0784877887515928
0,0830777567205409
0,0799347348616329
0,0800241080512314
0,0793616316105712
0,0806071310013294
0,0785807773487092
0,0797573350706199
0,0791116614792667
0,0822059986889841
0,0801591915985263
0,0800994158898158
0,0793169294354194
0,080783124325314
0,0800979119120617
0,0833945163185814
0,080666043965508
0,0808970180801289
0,080797033609129
0,0838385793036892
0,0801293343305453
0,0799754513898306
0,0799445642646574
0,0831325694002394
0,0811371689718368
0,0828174335036304
0,0807655797414718
0,0821239091627673
0,0802169936530541
0,0842969906948719
0,0838739458487116
0,0833900753806085
0,0807023210760589
0,0847247698482543
0,0817166733417954
0,0864259479569528
0,0817798807995374
0,0853837914189595
0,0799221185674683
0,0842562638621546
0,0834651342727256
0,0836693192352752
0,0829507374431693
0,0858241829781964
0,0806450893006355
0,0842428013197685
0,083556248460972
0,085851459425546
0,0800030536111087
0,0842959292253342
0,0826277429571467
0,0847582818134384
0,0847966508962459
0,0869044751898269
0,0842479684964276
0,0866857259583786
0,0845423987078614
0,0870645586424077
0,0820835567374901
0,0860508961598495
0,0845774686854266
0,0866336862473129
0,0847136244476784
0,0883940970653335
0,0859858535827812
0,0875029552791969
0,0862900085409334
0,0894042138844293
0,0839005007897346
0,0892587333329329
0,0892016498802505
0,0896861819613437
0,0885345288421411
0,0923661170628775
0,0866327930042637
0,0929812604975745
0,0869318509337264
0,0927105792654065
0,0915148116202869
0,0950362813928181
0,0920445427158777
0,0959625147589186
0,0978289259380617
0,107981411729695
0,0985796810790186
0,0995137713141962
0,0884062772230639
0,102230398008733
0,0969200545651961
0,105549956864727
0,0975023353151626
0,106572762710686
0,0975815803415231
0,109161450567002
0,10157627708919
0,105203971352533
0,0999078376205841
0,108469328995094
0,100083966275457
0,103259849839472
0,0908540253621459
0,110445294583847
0,0962730541973871
0,104753256757193
0,0909658049291551
0,10189171734341
0,0884940824178283
0,108595710159205
0,0936585537568084
0,108866877015219
0,0972968861015289
0,108828489379206
0,0922081948665444
0,110357398639678
0,0920169060232678
0,107515972756374
0,0860417650434487
0,10618789426318
0,0903529152176595
0,109042765623949
0,102155000673239
0,11652464506679
0,103344568858808
0,105913922969063
0,0956647598225748
0,101299371865369
0,103979112395491
0,112377740740954
0,109927973850966
0,0942350591480749
0,107619457807525
0,0980083408897378
0,128908484517113
0,0838987104805239
0,118407266320255
0,0872670459690892
0,138339472630534
0,0783813890884051
0,127185241547107
0,0778383186177873
0,130433913985406
0,0791865238474192
0,125173875521517
0,0880467956113378
0,113990314647441
0,0955762759198672
0,1080513668788
0,0986502105805675
0,106064531124011
0,10291399290788
0,101955956746758
0,102044596062542
0,105091328707565
0,101516115538201
0,106578716636404
0,0979223045731563
0,108678876412099
0,098853691413618
0,107685820948833
0,0982966752416886
0,10600778099723
0,0990682116085297
0,105409338496123
0,0998437504760809
0,107427167675717
0,100937221962719
0,104860562907095
0,102786233007994
0,105847520136138
0,100178502539996
0,107807143284885
0,0997585864774015
0,105505024011461
0,100943278369105
0,106335578201207
0,103436353991745
0,106623906304051
0,101025259794301
0,107710066087327
0,104567499313193
0,105880078139152
0,102894697566634
0,109442093037817
0,107127865314698
0,110203689470969
0,103993115657513
0,109435695349958
0,105785421480497
0,111084840767823
0,103852732847011
0,108839717109575
0,108084827786893
0,110883003561405
0,106466619927688
0,113011361597244
0,108489948829621
0,111186821623291
0,107764874874776
0,112024992423456
0,106765737868794
0,110758362945692
0,108629210209935
0,114308821578945
0,110143204957756
0,113720372409587
0,1088379462353
0,1130333524245
0,112360934604038
0,113850814309671
0,109947481432218
0,111647636086166
0,110778187861543
0,114303721292689
0,11232282482786
0,116730226107814
0,113162772831905
0,114602336196483
0,112414044521563
0,115865050638379
0,113970340330997
0,116083422568043
0,11454517515791
0,117545449771354
0,114023720154214
0,117254683510649
0,114734961797674
0,117780330103884
0,116391544781982
0,118159972654233
0,113681681984032
0,119653462553345
0,116129630729361
0,118914917613425
0,113893642136607
0,119274051654713
0,116746008568156
0,117403051246277
0,121000796906381
0,120817146226493
0,118934940715937
0,120565136454457
0,11962297726122
0,12120343996369
0,120848856571355
0,12310109546495
0,119501852242492
0,122555021607374
0,120176032777475
0,123052604426438
0,122402708917839
0,122120439848374
0,120538306378535
0,124800582748705
0,12204107262616
0,12583143787339
0,12436555588153
0,124071231826438
0,122879648316373
0,126796511423551
0,126160764137051
0,126818518074183
0,124371890147048
0,127912704730124
0,125117316455956
0,129048936148453
0,125479565144759
0,127503945515829
0,127731938108002
0,127838323064731
0,123287033828885
0,127120302033365
0,126877108584678
0,128666716659411
0,128317309900446
0,130133467317077
0,12895416481192
0,131072848474965
0,125989890781445
0,128969702236187
0,127051264960924
0,127965342506566
0,130853763783128
0,13314799030356
0,130550242438568
0,130315258123592
0,130628490786105
0,132445257417173
0,131582705293655
0,131364221816733
0,13187398756047
0,132007936074988
0,131299678542566
0,133565968310208
0,130225102662542
0,133765953325789
0,129827492903378
0,135772326342754
0,134270888720466
0,133912875688839
0,134553503683318
0,134001560120086
0,132679441988513
0,133756774138504
0,13267923323586
0,135266501482053
0,13078435208277
0,137460852759752
0,133283893173535
0,133749098588123
0,135566179796567
0,13957027026226
0,135476395289167
0,137056587173271
0,136057547981473
0,136766014891977
0,135149643293867
0,137383125911547
0,136271229236012
0,139381309463822
0,137262924129723
0,137170782182678
0,13715649712712
0,140785247980547
0,136827523999124
0,138622546317506
0,138570691951354
0,1395514384466
0,136660033464474
0,139204530418691
0,136636275611629
0,139307560073089
0,136123100151521
0,142086985727319
0,139823750797403
0,138342779811549
0,136826009792576
0,138703901957418
0,138713484664719
0,139547997161568
0,136810828162323
0,139942816616826
0,139046083662809
0,138108805028595
0,14001551692602
0,139947266034249
0,139410082636166
0,139502146344533
0,135204751017802
0,139140052948321
0,137850170036907
0,13977933277456
0,140582899574165
0,140728719703336
0,137197313944482
0,140484938619451
0,134723313847604
0,13916827231215
0,139785805040862
0,138786116017683
0,136725006544383
0,140890390933076
0,140552504961448
0,139148900670139
0,137570667238681
0,138786165511639
0,136571228845191
0,138337118020933
0,138510855115176
0,139410850289226
0,137147564283711
0,141022392592453
0,140030974050269
0,138657658463652
0,135854253631308
0,137615326213127
0,138087464565425
0,139107565035617
0,137934782806887
0,138791790561027
0,137923811533857
0,139254023256055
0,135852991841347
0,139495170106635
0,135281249885643
0,13892524917596
0,137210144049891
0,138348341657009
0,136435013313241
0,137386154031735
0,136066729435518
0,137264946251326
0,135595423551819
0,136843681539124
0,135411717437125
0,13605375295233
0,13355039191277
0,135578586158665
0,133336251949386
0,13386123862004
0,134478565394629
0,135584647153391
0,131625284433469
0,136484942372751
0,134674176861655
0,132862868044619
0,131841797745613
0,13457124577923
0,132158389614381
0,13350458360656
0,132420618613279
0,133320152368164
0,131615551463772
0,131191096067617
0,130274131669553
0,131985426212892
0,13063642975237
0,130642203758319
0,132517615890621
0,133013614143208
0,129127009661194
0,130144369168157
0,12867492790893
0,132878943444654
0,130861652724967
0,130582437054357
0,126158473132748
0,130291119715387
0,127105205546508
0,127125097870736
0,12755423755631
0,129000803169648
0,125396678184732
0,131002173070463
0,125145486903706
0,128988894148248
0,127099253396397
0,1258806718395
0,124515274620809
0,126621016472044
0,124844237200312
0,125581217721697
0,123893170308812
0,125792531529191
0,123352090364833
0,126132702808871
0,125449341907427
0,126332531113143
0,12603921803421
0,126116251071035
0,120388683915918
0,124365419365439
0,121189194013183
0,122385057889585
0,120966963469898
0,1219686392116
0,120639521881843
0,124511150377836
0,119619319210236
0,123457909042845
0,118382546493096
0,118520111961444
0,123380702462376
0,118856279479971
0,117489297308745
0,118156354256149
0,115661784775855
0,117005386562949
0,118806699575475
0,117794317026566
0,11647874540284
0,116809258306436
0,116167253924235
0,118416725791413
0,114309823132182
0,113322024025158
0,11564304415344
0,115158316948878
0,113860896410453
0,115302598878871
0,114672365371896
0,113438400989362
0,113517099575379
0,112019650377766
0,113322535521387
0,113742292019662
0,112544917335917
0,110482730355651
0,113778584194959
0,111280110044484
0,11197784791355
0,111207543541581
0,109434921986638
0,11071444205636
0,112545298637875
0,109980445625735
0,105368037797906
0,111346840734609
0,105996871568263
0,110180665560254
0,107033039848242
0,107845646991799
0,107369294057299
0,107995622549648
0,106155212766268
0,107422393484104
0,108673981113254
0,105551105564666
0,10437826730056
0,106051143614721
0,102595449233637
0,105255245313367
0,103535306528387
0,104461870497336
0,10274454291085
0,10794651331099
0,103212117775905
0,107766119338719
0,100307247087079
0,104680676110375
0,102091928955483
0,103941904484789
0,0992774749469635
0,102463219498444
0,0983769811845416
0,104383684014356
0,102414165712499
0,101006989967314
0,0971728911444607
0,102748458078989
0,0990243722593938
0,101392178595224
0,0976275672347878
0,102270709909841
0,0977639900611783
0,101400153278387
0,0936798419110699
0,102877335412072
0,0936914525662038
0,102233465242493
0,0927581296644969
0,101829752377695
0,102602256375425
0,0976740618580553
0,0993558978194074
0,0985585546377407
0,0964744922544936
0,0966059179938929
0,0953914618799969
0,0932899819550062
0,0944684512181125
0,0931772355154272
0,0960275012681003
0,095865341329628
0,096207415145351
0,0959484149289871
0,0938275294617306
0,0945704152106162
0,0933512767004465
0,0927632289193503
0,0944900676014037
0,0909629965808237
0,0946591981801515
0,0985302459103151
0,0929085867119626
0,0978855402752389
0,0965557209244961
0,0867506745552764
0,107441961633935
0,0896981491037437
0,0940183033953086
0,0902019360809688
0,0953524729403752
0,0900434436337278
0,0935576702538998
0,0890196449634663
0,0927590928710001
0,0962645517091748
0,0907769218312252
0,0960406691555288
0,0922854486213322
0,0914383818770166
0,0892785947425188
0,0934542369356183
0,0901756001017614
0,0906426018328538
0,0891846831803464
0,0916380138296754
0,0911994532265423
0,0892054558717948
0,092803167438992
0,088142122625799
0,0911495383127149
0,0904073723212302
0,0891741804739438
0,0880759983643809
0,0939738253646892
0,0847290595603713
0,0891271767288881
0,0989508354453843
0,0865599815147057
0,0922654187242858
0,0833883772643284
0,0918802601843705
0,0863243614035424
0,0906102527676376
0,0864258674999391
0,0917094697005929
0,0871518666088191
0,0923806377585681
0,0876355967114635
0,0913859194032578
0,0877038189614647
0,0914840614981349
0,0844317110709517
0,0914076453534973
0,0865211575984136
0,0869602273496177
0,0897710159880627
0,0861616651811929
0,0899148972824365
0,0936934764134479
0,0955645631874312
0,0894078272895567
0,0937416384160493
0,0885828331718034
0,0884789459677
0,0886636177573109
0,085692858352758
0,0908863070672633
0,0865814006635307
0,0914890940908999
0,0907568108203593
0,0909907082405603
0,0857021414899383
0,0918865408658433
0,0848774632282372
0,0896188504283645
0,0837249107158426
0,093634453458308
0,0837082561087736
0,0919258667989534
0,0810329533790373
0,0975244486157749
0,083527510329423
0,100536903854221
0,070095041369123
0,113946133146769
0,0919046758105197
0,0949404666618808
0,0909229831917404
0,0920030715264708
0,0911599219669579
0,0897962933414534
0,087525958430779
0,0932765402852914
0,0905852043731736
0,09234112133049
0,0883577147651083
0,0899813525339125
0,0917219298857148
0,0850822546559086
0,087992732828278
0,106730313521337
0,0885576217595406
0,1003311068713
0,0856000449728432
0,0940297325322555
0,102268009202236
0,0894453340174775
0,0966849879507994
0,0927552483579742
0,0942390812934173
0,0917553648184931
0,0954158420552489
0,0923657271071718
0,0956655685356801
0,0924356984997225
0,0903985023539795
0,0942053805364676
0,0921069159081949
0,0992736472262509
0,089484114848116
0,1020377225689
0,101309354379979
0,0917062877488005
0,0981813708837659
0,0964673807650773
0,0972003059017837
0,0941224448806522
0,098689227793817
0,0926806041978732
0,0983464520839748
0,109469174320553
0,0969661688955709
0,10620673228726
0,10277842299823
0,0972948779497802
0,103224646745758
0,097319950203428
0,112615546788731
0,0869850884560998
0,108179291719388
0,114025788203188
0,102974865842888
0,119478125400005
0,094406321688732
0,111556834903755
0,0957466837754756
0,112380555515855
0,0915868232145851
0,128300839544777
0,0929524660929625
0,120765195459177
0,0915019533760259
0,122502868905735
0,10769936776984
0,112826184770306
0,107994516972722
0,114639314253354
0,104405745710273
0,127454166580154
0,109655738065845
0,104501812682593
0,120636717807211
0,124615250580973
0,132829551835738
0,116234811570977
0,101763316780762
0,145764457471672
0,113621929098309
0,130112249439273
0,111152945426597
0,129608272497516
0,114389895754479
0,119177732513292
0,136000255164819
0,124903721498862
0,124426852806218
0,132157522809193
0,112410814753094
0,145500054573749
0,130817300844631
0,135520685826614
0,127765185007219
0,142416880920553
0,109295222075953
0,185750276836254
0,125649931002634
0,147477345310456
0,143498711901257
0,148098617660648
0,145255504393516
0,146891482582038
0,139448421655761
0,149027877264222
0,158431961306723
0,154782492642443
0,136916800332323
0,160836186136003
0,172873773314309
0,151524476395226
0,167828448093168
0,150661329705081
0,153225258481454
0,173705100755724
0,190500528265747
0,185453740161852
0,171498494968126
0,16451554801076
0,193272833476267
0,174386851028583
0,184544033824171
0,179167472626525
0,185436328265484
0,188185907818859
0,180999204489781
0,204255887775657
0,191158969073528
0,202924375065153
0,19557403651659
0,19984140209301
0,204607585351495
0,22704758776435
0,244690125267112
0,206032228861198
0,250423880645599
0,231372695855853
0,240709437329468
0,232170760307374
0,235608490349927
0,248740574407821
0,241539450057327
0,253771547369893
0,243144880255352
0,276389256195594
0,267649580876605
0,26836236459155
0,288615363576203
0,2727526910615
0,285478589400064
0,233283743513057
0,460276784298075
0,287277453892173
0,327571743768301
0,293309894887189
0,310923213070792
0,374113111784536
0,326656169479953
0,330808949986525
0,340001025132563
0,337955913420301
0,350935196069328
0,365200134687376
0,36358456728861
0,36859433378821
0,382890781456334
0,363717145644772
0,395092742786215
0,423592488623291
0,434458934419944
0,424095337308674
0,408031612880738
0,428354078198518
0,438481781849438
0,427112744881842
0,452299899178389
0,438137580017509
0,44262696366832
0,516786615427642
0,468618147225816
0,488099878158531
0,465238248705531
0,532438524799154
0,464292931578461
0,552694233750937
0,506955216062581
0,534843772694794
0,521390994192382
0,536185943809594
0,545834563491148
0,529552279237218
0,580608604209778
0,572695250127935
0,568933239265604
0,585710513148676
0,589996727635034
0,593651506984509
0,595788037404911
0,612229359765014
0,591528798105108
0,661284749841675
0,607762248356141
0,783021670340328
0,648763968990615
0,643022712477536
0,639387938419162
0,634695167552034
0,676835724104912
0,65820747685123
0,690078599199817
0,693791413798783
0,668187870740062
0,690511463824799
0,674146711248803
0,696913520001525
0,679042046542402
0,700262487332312
0,664748786060856
0,740056684549722
0,685123310164689
0,714782048267527
0,782932539729166
0,699944052724535
0,709167091950129
0,688800956790345
0,686060739230543
0,693343685528513
0,683647827749191
0,68604405473627
0,705468637006383
0,672129858385492
0,692572651394715
0,655378176056619
0,675469697240701
0,688124422011062
0,63893999693323
0,649210619046266
0,623948134441583
0,642813281300874
0,591730314257553
0,624555323020529
0,676772695500625
0,599616548557215
0,597776595525931
0,591214625965921
0,577926593681578
0,566205636446223
0,559428650326021
0,552914122301647
0,554415468903341
0,531981838765783
0,536860471918912
0,518165114727635
0,51077856418542
0,501302358953053
0,502716114003137
0,493272801088903
0,488552570090352
0,484418033096236
0,47304113708101
0,471864052399364
0,459592724472502
0,45818718318678
0,446924781172258
0,436851069819746
0,441713796524658
0,42994634868465
0,427738395252226
0,41968293468233
0,419871830047628
0,414554002945034
0,399850546238845
0,398691207122748
0,394595998196965
0,390240972350877
0,387757932666623
0,38421656519049
0,380633774356746
0,380755117409965
0,369229342855194
0,37370316335853
0,360831721069014
0,371466999843462
0,330258414681259
0,410602806580872
0,363952068889889
0,349103478419761
0,349004999838129
0,341012718208539
0,353076726758555
0,314949014691566
0,369865030527933
0,349523701006518
0,334897018281362
0,331534578918417
0,320055894285836
0,326554270250327
0,333870881129374
0,312270885276179
0,338621621277603
0,28744752105842
0,335850600071674
0,334119792084026
0,328574405649642
0,364826833767894
0,320003218669357
0,299406016904913
0,297703225214962
0,339136644922324
0,287095159100236
0,311355554691398
0,274781943919859
0,322249838207833
0,299701653157918
0,286620696673231
0,29176738528296
0,281876460852232
0,295623244312872
0,309117172021893
0,281273840415184
0,289643084480078
0,314721465891032
0,276333543627866
0,305418783081129
0,310449461603512
0,29924748676745
0,26866394937886
0,279859042727599
0,274268325586069
0,251039033689319
0,325932567873645
0,266359931268626
0,283065444599814
0,264608448223876
0,266572414677119
0,262626920716816
0,27278720378506
0,272179947094285
0,247909786879843
0,310598374124183
0,245461367738229
0,280474953348785
0,248522155466092
0,276173607494273
0,279097700453069
0,269908795036109
0,247424786509068
0,267919650285116
0,281117828710093
0,248156842919514
0,273731342229918
0,249460510108983
0,24664102124649
0,270285556515396
0,24582738767799
0,263710614028276
0,259243261859153
0,242753823618118
0,26859983250845
0,269140227143903
0,27963319892376
0,254680420915807
0,2408750900166
0,245924097418257
0,238981550534563
0,258242253185077
0,225836521181123
0,26810263568947
0,247537386239359
0,215038214337303
0,280237795796215
0,241067843688822
0,239250268995313
0,24179800858305
0,237526443283542
0,234012985817333
0,237566240201603
0,263016958118774
0,248328290123463
0,240389991080141
0,259285842819649
0,233733433763027
0,241039268062514
0,228733495358419
0,240871621916038
0,229057429456386
0,244526289760953
0,231732783701654
0,234017264813645
0,237358205276867
0,233220779159004
0,230167108638295
0,266626449191368
0,208259721832615
0,273127681270019
0,214997112005544
0,278414517441315
0,241801916678237
0,236023314554038
0,24171608559318
0,229817562288367
0,237596281519105
0,233856892845573
0,224874888119057
0,267089831708804
0,221700734821139
0,247372553793304
0,225571464166805
0,245860089249927
0,214657789864596
0,26166361621371
0,217497403647357
0,269205470646527
0,264990703704835
0,236620151259882
0,24518432064559
0,226524642577577
0,24242603662012
0,233501673462131
0,235705120956335
0,235381917288872
0,225264709875811
0,251180373673548
0,22968253998031
0,234777620269907
0,234852887019124
0,234847552284598
0,2262206826247
0,232399599332273
0,235012783855316
0,232773888434502
0,228977902678842
0,23972536630327
0,203599564626222
0,288825131709598
0,231135888025819
0,239707969705167
0,231987711610558
0,234194949343148
0,235151312930707
0,224489915239795
0,237040761422006
0,239726126211523
0,231791221059628
0,240883716177973
0,227592509904625
0,237860075472718
0,223212731189356
0,257618080524762
0,219860284998083
0,248249573682164
0,216347258204655
0,237931770125306
0,257648630015265
0,228549755558082
0,250501614512518
0,225400378908601
0,24011955858079
0,227105434321166
0,234223763015136
0,231098809404
0,234669454161271
0,227750088484525
0,234904529945042
0,232187970156355
0,233199514910875
0,233329486753988
0,224171576474871
0,244062315921436
0,232144833689524
0,234754159270046
0,228921612748311
0,235962931689804
0,223988840869442
0,241945649436695
0,243003424249546
0,229822904005225
0,238474532278
0,228321670846377
0,244117661245457
0,241273511886265
0,225238664732217
0,235359357166846
0,224167500839851
0,23012462835171
0,230532298665395
0,22719845640838
0,248606907429473
0,226154269408653
0,233390757545758
0,227589885862204
0,233041873089767
0,229712342295724
0,232854025491404
0,227463276630154
0,23605255213712
0,225467827059805
0,232366375709304
0,229024393179026
0,22908215745925
0,237510543259017
0,238430666325483
0,238591679198126
0,231202383058759
0,231730518454837
0,227875894294454
0,226854742774736
0,233284475689806
0,227528208068281
0,231894711563325
0,229925433395403
0,235383131498944
0,219084349998387
0,246535725002021
0,222368961824226
0,233707998129854
0,226293689011568
0,227860617705866
0,22942594696283
0,22585873039653
0,227648063520642
0,224944260453679
0,228775314060773
0,226192223073135
0,229056875114531
0,224341237424979
0,226891681288481
0,226745549359683
0,224534343159565
0,226523912816939
0,225601446162773
0,225417404621942
0,222593306495932
0,227199455305612
0,222091948839379
0,227865365305984
0,221272612613656
0,23096457595247
0,232325211137775
0,23287763817747
0,230562186037375
0,22399665698206
0,228378500804086
0,220760733424428
0,22932147049567
0,221774109960464
0,225336769459352
0,220576970652158
0,225666259209149
0,221976414952124
0,227670270888639
0,220837366443512
0,222368287468924
0,222548636526933
0,225746635727778
0,219651655666908
0,22475234141844
0,218556267611116
0,225672907718533
0,22115538970477
0,228260488425286
0,22741503869557
0,222936507183408
0,227277983395912
0,222238802930284
0,223813806000032
0,221655488606773
0,223842117588919
0,221864179466818
0,22148170492315
0,222742167365388
0,220382001262049
0,222629567677955
0,222160105795344
0,223100840505276
0,221712793093921
0,22049643186253
0,22118627678869
0,221333965112854
0,219089299426525
0,221247734947419
0,219704260148937
0,220167490721608
0,21952222245111
0,221440033661714
0,219577328262794
0,220408322419728
0,219926841500632
0,218922239786637
0,217965123101139
0,221470232207523
0,219585306136099
0,220141166318737
0,219828894543033
0,221011935351296
0,218428409167496
0,220664311738605
0,220698512080811
0,220476235681996
0,220115798523753
0,21855551836286
0,219825400169685
0,220485955594354
0,219389691716396
0,218545111112481
0,217357705745327
0,218758030371021
0,219132161406085
0,217053558088979
0,220233131201211
0,218958032224046
0,219105160772672
0,218076251900646
0,220051363012889
0,21848938327592
0,218208370744768
0,217614548085594
0,219364397483503
0,217513804715446
0,218548858436357
0,220631942275648
0,220605315256963
0,218787108213054
0,219239124700457
0,222351064039393
0,220393399082551
0,219383466671568
0,218245321752899
0,219015835864514
0,217950062947592
0,219328506703968
0,21892635954655
0,219354919332294
0,218045479067838
0,220918057004119
0,217870994706371
0,219374516533142
0,219712453430746
0,218557519776865
0,217485985239062
0,218586872250926
0,21773507213421
0,216638339272978
0,216644577949957
0,219251850775819
0,2183693744746
0,216970230746443
0,216306313565981
0,217481215378224
0,217534905294422
0,219839649628762
0,219186721044857
0,216316214634026
0,216828487799537
0,217344261245607
0,215653856033532
0,217161647947963
0,216810458517753
0,213597877426902
0,215159236338444
0,215719458394123
0,217467425220633
0,216272704159219
0,217111433997755
0,2161310471718
0,214060903426161
0,215790255174875
0,215181624815501
0,215624529963008
0,214079783973388
0,216713376916105
0,215634735408261
0,213872381272869
0,213684512128126
0,214564967134936
0,213307701426967
0,212553818417503
0,212537040667612
0,212735587476977
0,212926323316608
0,212392220956609
0,212919189232118
0,213752596294917
0,211033032058897
0,212425648145038
0,212461563975376
0,211739147275179
0,211883805622339
0,212815344091194
0,212472957968221
0,211667251009903
0,213155580192365
0,211534323606996
0,211057108730588
0,209586231902307
0,210873119365224
0,212164467501208
0,209897162351406
0,21089607446753
0,210008364174142
0,20993212883788
0,21071690080713
0,211909740214436
0,210569329606273
0,211195320675933
0,211500585023627
0,210141779009021
0,209568680934937
0,210601016652931
0,213525841577156
0,211643879696683
0,213106278954841
0,21248894899936
0,213912643797367
0,214796134557944
0,213405203476621
0,215190220905243
0,21649144163733
0,217254718332771
0,217740579651535
0,220323973018695
0,221898455856266
0,221045702164544
0,222620530885195
0,224463712825389
0,223713966614812
0,226224763637217
0,22720823683911
0,228444297709644
0,229352541151593
0,228991343514846
0,230320586289292
0,232643454499328
0,230396671909458
0,23081365346561
0,230682184097936
0,231182386701382
0,233932213460911
0,232651305541661
0,230014938706795
0,23138014035087
0,230104368615854
0,231327274697596
0,230291531345247
0,229710602791153
0,230833947891345
0,228835533367749
0,229312485205375
0,229281124940135
0,230881518019129
0,229629534456158
0,229149442974082
0,229363830449289
0,229462664233455
0,22997989267542
0,230077529824027
0,230302527755689
0,23117534021617
0,230499006822634
0,23138633869998
0,231210279871836
0,232562272202711
0,233401759281149
0,235781797977204
0,235393403349967
0,233094063870351
0,235719074007934
0,237595416153079
0,237678798889105
0,237627556879572
0,241578245476563
0,243306857195015
0,241606628056709
0,242477290642423
0,243662509837819
0,244877289755808
0,244823029356822
0,24451586979528
0,243959296594302
0,243226196610827
0,241240980411298
0,243755307173429
0,244112371722637
0,243085708905355
0,243343777397993
0,243187154837518
0,241717099115677
0,240346581031271
0,241749059647761
0,241840680040654
0,242567715370965
0,244415533113132
0,24539583205247
0,248050709469789
0,247342796540097
0,250064633586079
0,253253699138344
0,253436395330389
0,2555990923994
0,253357855876937
0,253593856684634
0,255494018335455
0,258771546310363
0,258382101378222
0,259214164108763
0,260339656795749
0,262261847432695
0,265095310568724
0,265495699418741
0,262986618200298
0,266788999507572
0,270681141734582
0,270717639926767
0,273992503687289
0,278313657170529
0,28015784857467
0,279422221230283
0,279335727776079
0,282882207376621
0,283456810746415
0,283928116785399
0,284867007165622
0,285017403592246
0,287510090396477
0,285148024858905
0,284298820050128
0,283900524212243
0,282493597123911
0,281589720163325
0,279884253196842
0,278085325133408
0,278278349684954
0,276653201609434
0,274339009891139
0,272517883930213
0,271460457175567
0,273771904852551
0,272467371589794
0,270998987023088
0,271550959228024
0,271722151312363
0,271436459633916
0,272796386909611
0,274312135907041
0,2743689809934
0,276088350325144
0,276663705371109
0,276899619003016
0,275895417371143
0,278446225537861
0,279287884182525
0,279781505804623
0,279968777236867
0,279855231186906
0,279516612891209
0,282547616130494
0,281878900991784
0,284068255107271
0,283869548902557
0,28338227728563
0,282722922264443
0,284134111774634
0,283952854692973
0,28141883887198
0,282028823367188
0,281727889392823
0,281321197309969
0,281851759043586
0,281734282243387
0,282464436797881
0,281481388215751
0,279887254225749
0,279614503662525
0,27980756408075
0,276436984586593
0,274170174294477
0,277276744452035
0,27735986368441
0,274695654217982
0,275452719172814
0,274644907630322
0,275578023260733
0,272080876207434
0,270534618404068
0,270343894591587
0,266359989502204
0,264201446180722
0,263464462915585
0,260023549905204
0,256987106543742
0,255591025526926
0,254686370187435
0,256334087710176
0,256058671069523
0,252899346221561
0,254067170404336
0,253199798652467
0,253582141510083
0,255839440604776
0,253122509836921
0,253703398254845
0,257729193890979
0,254659155445752
0,258903804669997
0,259462260885405
0,261269181808051
0,261453288803939
0,258269568979978
0,261907367604826
0,262059548535337
0,257437591705744
0,260238495693953
0,261968347477724
0,262235125089498
0,262396949619883
0,263403734117973
0,261670725806747
0,263781647854214
0,261447059158206
0,259289970445258
0,259151878831561
0,259685262064845
0,259266307331183
0,259679039046801
0,257044782549669
0,260412716593096
0,261512181440968
0,262600425127459
0,262291827813223
0,261830512318206
0,263984696334713
0,264408334932259
0,262263644487731
0,261485322231284
0,263350456396079
0,266144155286712
0,265805273151257
0,267520392145774
0,267460258002214
0,265751219035807
0,268380867112218
0,269388742534846
0,268261026806174
0,270518851924833
0,269498830317158
0,271833103757735
0,275078049923633
0,274980372905197
0,27697888336397
0,280198211229286
0,275787041016565
0,278989568405627
0,280843609529552
0,281942763698637
0,28300518328141
0,284195051539217
0,287137629237658
0,289615510750001
0,28923600261139
0,290332833532432
0,293376373082179
0,296073263038003
0,297269366666476
0,297480554219689
0,297613761811082
0,301499968370645
0,30346589517958
0,305061020177264
0,302862529963461
0,30044884287489
0,302659824811648
0,304107741930035
0,310446448694885
0,314519097447557
0,311437079113735
0,313462270461954
0,315538961166662
0,317641392271836
0,317299125755308
0,323870635692709
0,325153360913107
0,324689101084879
0,331074315331513
0,332012703635761
0,329024646657999
0,333231129466868
0,336380338738184
0,336137058899898
0,336767829447765
0,337323362641688
0,34405360241395
0,34638809612207
0,344067718818675
0,347184764860957
0,350558601871776
0,354959506021212
0,359222195840402
0,36154765977576
0,36088903155403
0,366438567106493
0,360550373152102
0,366788094924016
0,375934665235643
0,375453163424987
0,377583010871301
0,378897673771725
0,377004178363867
0,383215882265425
0,383289720325217
0,386872343324139
0,389513655808633
0,395582174148692
0,398013342864033
0,400021332673613
0,407236362391374
0,406343056847657
0,408964498606051
0,414057080200584
0,412116912015536
0,41423637546294
0,420176930095774
0,425190247038133
0,432151244329786
0,425732854994448
0,423159926426568
0,43241455681181
0,439450466515967
0,443906929840511
0,437583475871007
0,437527310944989
0,440418152928704
0,446843826986478
0,450866958090755
0,457198249935148
0,461728512176679
0,459503632036884
0,461759793795463
0,46906494413851
0,475478525937963
0,481849005427135
0,48015872706288
0,482530475873516
0,486817030061341
0,479412221137992
0,486609363707968
0,503509148521901
0,499669088758847
0,502456178069381
0,502358681279861
0,502777339864751
0,508197683047506
0,509789417450749
0,517090921043102
0,525101286869411
0,525327891672261
0,52356536423434
0,536416310313373
0,542640372676479
0,540767388923046
0,544155122790693
0,561786264953475
0,556720517970755
0,542083284083804
0,554528074182774
0,565881619037576
0,566943412588395
0,560835189350552
0,572801560004599
0,565514051586309
0,571208104257897
0,584009736511876
0,577854928009221
0,587188117030291
0,589741007702638
0,591335378844456
0,599857834016983
0,600182204062955
0,606793410280264
0,616280506881175
0,605591328039723
0,621223537786826
0,626960507855168
0,625927033588629
0,625330925161522
0,633059637935095
0,641144430886287
0,633096083314323
0,634744939519279
0,641704140641343
0,664335421859876
0,664779260764982
0,656791715217117
0,663266281828448
0,658260810937428
0,674762174322002
0,683725592360997
0,691442025207496
0,679969604273337
0,688267621147634
0,719933091508205
0,695048565609539
0,695655359993648
0,713377703048232
0,708036085905848
0,714002172498253
0,703284359430239
0,716692050042246
0,70321386382841
0,725388689785512
0,726005041093849
0,726228079848965
0,732805209583895
0,747057189669861
0,76655991416593
0,748790577646389
0,731577548229217
0,753233116160994
0,782540932783285
0,762604273312465
0,765165633706696
0,776539143231562
0,772752509628736
0,812477567412345
0,802588400274319
0,811452452575156
0,797625786850674
0,803668183623973
0,777598234589652
0,825725309615949
0,834364384365684
0,84849910680741
0,834795379252926
0,844289860083907
0,837122428415434
0,843106587540112
0,861057764260049
0,832538442980166
0,823129523222908
0,868957588665387
0,827937618301825
0,842733026236647
0,849409651930707
0,883498328338401
0,862861130183971
0,893949100052945
0,868447157641269
0,872932025535
0,87744399189733
0,879886036869056
0,867322009014267
0,878436218433941
0,9084027911238
0,938998905349142
0,929093914245304
0,954649994425482
0,925484324913582
0,938078365867917
0,894178394395993
0,896110268423767
0,959895661524093
0,928808293839905
0,963136962406206
0,906422127585361
0,900148032273159
0,949105425954013
0,948141285377625
0,958604606458592
0,969819309490293
1,02479401617443
0,970686060128389
0,914154970770962
0,969946801401059
0,979999133144136
0,879340385941267
1,09722088992687
0,950286615542839
0,96825001016306
0,982572332324357
1,19932876451094
1,10549158978944
1,09414262512573
1,01748658220298
1,0324297528307
0,994669516010609
1,0412891676944
1,05903595711795
1,05298470819611
1,02094352397647
1,15872693095982
1,03458918774321
1,0300124765924
1,0585707376022
1,006709524552
1,02785292730363
1,19893543567634
1,29687593084815
1,21264315545635
1,01086098986048
1,06628491178771
1,05844026894715
1,10908376398001
1,09039280145543
1,25892089513301
1,10480838909376
1,21769407391873
1,26015066606142
1,22776238858199
1,07812471369392
1,46367248565544
1,25077529696407
1,02266865844519
1,09832936030743
1,09607887057583
1,09464946715766
1,55165766194452
1,22024368195308
1,26675773497729
1,1437465438727
1,25799447211222
0,973382789205642
1,05601477305993
1,14701881556655
1,49254865602361
1,08820114036159
1,23050526017566
1,29849406964099
1,34101070333089
1,11772756804299
1,32241402564314
1,0595506077874
1,36332114714049
1,10347730561204
1,56713996300336
1,26413904341707
1,70021491544233
1,23645539572448
1,05647081406997
0,907763023417956
1,29016342023149
1,13740436489852
1,21101306097203
1,88581597059537
2,14543467080014
0,970416544819716
0,999955434793238
1,20477288909391
1,18496576758319
1,17699269123765
0,975756397532614
1,32267897147794
1,37713213673518
0,943282717582972
5
5
1,14374132531382
1,21687562866994
1,33922078087726
1,44067624307219
5
1,33240237209699
1,78523354847565
1,82251513180195
2,6737161056051
1,22237090348196
1,15640465499968
0,847928487155043
0,967552458665577
1,23097963743673
1,03525930923663
5
5
1,460579079184
1,48867301957604
5
5
1,00419728252216
0,224166625738017
1,59051246508202
5
