3596
4000,36533379555
650,420452594757
1
2
2
0,0655260415838281
0,0483920234342786
0,0624744734974304
0,0448824281310836
0,0607244911299616
0,050595427445523
0,064268206126327
0,0501151032406278
0,058482735441008
0,0402629307995715
0,0612266866729909
0,0443216965223678
0,0627791281409256
0,0485026699317414
0,0608980576300861
0,0488614244164255
0,0612632157766036
0,0480653621291201
0,0615850957553329
0,0523761006152616
0,0630607387092015
0,0472195140036643
0,0599808551174803
0,049466658301696
0,0635097617468903
0,0554049334015397
0,0607547069882245
0,0508718743546275
0,0572533045221898
0,0486302485882717
0,0584622101696322
0,0480459395145169
0,0652490407132632
0,0512288665918426
0,0655530735908799
0,0510086364899074
0,0572356469279735
0,0510648655919378
0,0621251955072291
0,0455217522521727
0,060440401906324
0,0418374238668626
0,0712493668212057
0,0476497627770136
0,0704334443424757
0,0470579521838296
0,061069915242695
0,046714813269395
0,0617435563500533
0,0516176297572819
0,062823053223196
0,0420841239061225
0,0595419338125425
0,0547705672696937
0,062767410966514
0,0518462376779147
0,0590431761617831
0,0551968345524293
0,0602492183116682
0,0452552591192517
0,0714048875586056
0,0535123636369493
0,0614592478884371
0,0484189779047405
0,0568415598897755
0,0525310351997691
0,0648843187386718
0,0443136539103553
0,0541465880614975
0,0615430981974598
0,0548348463779045
0,0561819112054521
0,0783430041886824
0,0463488458202989
0,0643251715585955
0,058398760455094
0,0671873073491959
0,0432751977852527
0,054950153027473
0,052390473323356
0,0757329892588141
0,0523943483839875
0,06570636555606
0,0455392698169444
0,0718046301035545
0,0628742331189645
0,0532976058237118
0,0492644629307263
0,0778712779474305
0,0494448087235293
0,061518252225326
0,0547911402529283
0,0622977214133607
0,0462264151966019
0,0628601480394929
0,0544804803399359
0,0570233707123858
0,0520076571620101
0,0490646033297683
0,0461864726685019
0,0631679257930583
0,04495839690595
0,091184555065823
0,0297109671486943
0,0844940267851435
0,0558643381275785
0,0662031137682755
0,0783131278974719
0,0659208461323593
0,0438522416712411
0,0634507611438028
0,0496120001985647
0,0567183895338398
0,0575340912411419
0,0544008224744893
0,0573929094288639
0,0928680190785141
0,0549009281204511
0,0624388100861106
0,0463970798139648
0,0375833550516296
0,0613449085956168
0,0873439420641806
0,0471848221623012
0,0741637343348864
0,0485513450256984
0,048415728627226
0,0539334542199225
0,0780744191301938
0,0524224917728113
0,0600127925288255
0,0606671731761581
0,0540639784805905
0,0424819484726241
0,0889567264338193
0,0479791049848837
0,0583168399483481
0,0195520115359083
0,0778046197963276
0,0820003412530311
0,0694658614113854
0,0531339039434305
0,0507613659781946
0,0396843118399569
0,0908806427584326
0,0528847513317631
0,0572059704336594
0,057595250525095
0,069083384339277
0,0532779231677694
0,0546758431252183
0,0396318148802912
0,0673580674237224
0,0608327017562195
0,0133033185186669
0,0471422536167972
0,100413498827281
0,0565414940267959
0,108845954484158
0,0435281058213357
0,0686834332125929
0,0526156544599104
0,0650174400213556
0,0376000501175095
0,0651132743235742
0,0333028187961932
0,0598514945878133
0,0662013589801994
0,0628523693065548
0,0512952613790651
0,0841150835647302
0,0503372676539896
0,0473536147949809
0,101226427907779
0,0693699152153387
0,0382738607277218
0,0819561488241417
0,0554546452064889
0,0441323565565198
0,0566970677678061
0,0811242040251397
0,0448376174063967
0,0644991564488714
0,0433519126492004
0,065316095516777
0,0585572329637121
0,063600624600801
0,0531915831230323
0,0656127678087393
0,032024682561104
0,0642207239685084
0,0731818345914775
0,0970667205507384
0,0544069140628909
0,0653885529035573
0,0229829679162412
0,0944425384446268
0,070604293680299
0,0676554645287258
0,0505701999380391
0,0599934276656211
0,0543832474619283
0,0533570309846891
0,0494689905089573
0,0689636218590897
0,0243950754890036
0,0995021652927581
0,0678862152424975
0,071359537876947
0,0454854494843528
0,0624149823750488
0,0287688560929506
0,101420912918807
0,0794490147217956
0,0626347605627886
0,0535790806420042
0,0595626825869546
0,0592750365798708
0,0843811395084918
0,049671170770554
0,0648423364539714
0,045476564053768
0,0640592053813591
0,0480588897527837
0,0624816301890024
0,0506764687365992
0,0586720812231745
0,0441050826866814
0,0628440199750559
0,0490013399599299
0,0714734322526431
0,0531066862441022
0,0619402031389382
0,0596583079991892
0,053176861577288
0,0588253607515163
0,0843199993473343
0,0555696998165283
0,069575335239914
0,0496337212274083
0,0631389983328861
0,0528827433250042
0,0701282972739472
0,0566399147604282
0,0644634053965995
0,0395244199963793
0,106153277979661
0,0563209079159818
0,0750638772983824
0,0365073109659712
0,0852545689671438
0,0655501005640143
0,0677554708447549
0,0467093055187713
0,073587161727937
0,0390117301701174
0,0523122253329378
0,0829653734186412
0,0766745801520352
0,0448880730331629
0,0799610200020216
0,0617222129447056
0,0690423350169863
0,0401686174777263
0,0458174121496227
0,101359363505396
0,0756657293401787
0,0323553344311386
0,125077014200013
0,0607765730115028
0,0841446648745795
0,0453408102966209
0,0360009676823412
0,121333631213422
0,128088632291339
0,0611432883210931
0,0619809830977513
0,0737225252056832
0,0705308836416816
0,0723018310828777
0,0707808557519788
0,0685712161427307
0,0918699530449118
0,0555415872114777
0,111543425811185
0,0442890371834163
0,103312780588469
0,0802123636544699
0,0809614058291209
0,0614787380810632
0,075931314101338
0,0476614635660185
0,0865460797928241
0,0664772040977651
0,0912901991439351
0,0681423924016805
0,0684958823095923
0,0828373838654817
0,0904199155081512
0,0627682535849432
0,0772842148421474
0,076621743095567
0,0778190241300269
0,0783678009643113
0,0822514983704937
0,0817546274559161
0,0713737922927387
0,0556901990112072
0,139220697721214
0,0778101724030241
0,0922756102610544
0,103919798347076
0,098030523754234
0,083389525687942
0,0958897238850146
0,0771752938518951
0,0944354735754903
0,0750528124098381
0,0865831630019304
0,100259486186964
0,10362077331609
0,0841468965785912
0,0987719548459874
0,0891126626291578
0,102971498839928
0,0928811163503223
0,106189129100524
0,0978745510798482
0,106357117735332
0,0808050791412216
0,119119810752068
0,127704502843721
0,0919240572697245
0,132714302030034
0,150628502356882
0,108611140995948
0,1264974155692
0,108119094999584
0,126840660555863
0,115652907405498
0,133848438485737
0,121553536602485
0,136742643786714
0,142383402165075
0,14273750218369
0,130402349864515
0,144750433293104
0,153051193094965
0,1998690271081
0,154361483665887
0,163897118014259
0,127050463401078
0,205545783820142
0,16602770845384
0,186804912056672
0,188086007267766
0,175318514441122
0,167586138246695
0,187380626153835
0,176084018624144
0,192193326327499
0,185827876889193
0,191724401168034
0,201103676052396
0,20604962398619
0,205594603752763
0,209926222392282
0,198970616342427
0,253182706578752
0,217520731847572
0,223983881796196
0,225552970297327
0,213843160858602
0,241688259151271
0,235087041419968
0,265458607892366
0,270553601652753
0,233139331140277
0,29657757156399
0,237861708698082
0,262042675503712
0,241465190207254
0,273823096129702
0,25838323655269
0,280585472982523
0,265116519863523
0,278716331075316
0,269686843190924
0,295313886622517
0,270410174433739
0,295419142736235
0,265267670295009
0,317756941986735
0,281362497325889
0,31606408598691
0,289601737074797
0,340080965308812
0,331193309022469
0,359590862561614
0,30511831833162
0,330915618295209
0,301661212594548
0,337511517074302
0,312386216358755
0,346055635821508
0,327434351696694
0,343242275619524
0,351515289829556
0,355677833600637
0,34951253353083
0,3816417457447
0,32357852064323
0,370765235807545
0,342464458302789
0,387577252159275
0,366331940621483
0,373516619058194
0,339580064740166
0,412324659634912
0,36736725975244
0,395411312019124
0,394832333946601
0,384871237458634
0,368059596988233
0,404063379797734
0,374409028134896
0,41465153447973
0,385839875166876
0,416735336235065
0,38679451084112
0,426252245013533
0,397967126239724
0,420463379199653
0,402900741914784
0,437114311590846
0,409499008936379
0,443665992471834
0,394877127312269
0,439869682180568
0,399052683362319
0,468301469577065
0,438780067013548
0,453412242686379
0,437479317842568
0,440244621208714
0,428838280438221
0,45760989372837
0,43905406627692
0,467274399234322
0,445121878909015
0,473259448963119
0,446349240740931
0,473745484282519
0,460184170034675
0,490000356538999
0,458686425382038
0,494996053393925
0,458970146302489
0,511377837461315
0,481463587319951
0,513887850216211
0,47382123776693
0,530461075940579
0,488830611964148
0,53399452258494
0,513787223320554
0,514329253844582
0,486312073152951
0,526127282717596
0,497129048416393
0,538028210000393
0,505880776199427
0,543546993503882
0,500257813317398
0,534045941705858
0,487755730209367
0,555941527588186
0,546716209003738
0,54090335159718
0,526049740682289
0,56354202962848
0,538210199652303
0,589654512609495
0,547800442918141
0,582429246485201
0,581163838171637
0,582503200092246
0,55408568273692
0,611415903362851
0,569691236298382
0,609166965383302
0,555991668512462
0,60980430158231
0,561464371102111
0,635460691070893
0,587303455678632
0,610566196142728
0,596137328485376
0,635367115557937
0,596103601863803
0,660049928170664
0,593792469375544
0,638519566906972
0,60739602784054
0,624891323702454
0,619537353954365
0,677163860681051
0,621036978945597
0,671791293782459
0,619093099200567
0,659561241690003
0,645081189189462
0,695551706329041
0,642832690614764
0,700368194200724
0,648751135272796
0,706316587948892
0,672750636427927
0,694152474231761
0,682267605223204
0,693202376629161
0,64103738226707
0,758605999278159
0,684282749648859
0,724367598213828
0,669336314921496
0,72761779989908
0,691224283340051
0,738969773340097
0,690415517562542
0,749870796028347
0,693499600030074
0,733269309274822
0,682601996581428
0,801464502795874
0,735934088008666
0,747657608562259
0,70392188453196
0,768643297527971
0,71585681687222
0,787286534350621
0,730395886700241
0,804995687830333
0,731335766778303
0,786121389063747
0,765705710989936
0,832868137701627
0,744140452099402
0,837163000824808
0,749571233975639
0,814842049712845
0,800545191842886
0,845610657038967
0,786672557352135
0,818151805751331
0,810063383035123
0,86251187055093
0,752747297950292
0,914903600479984
0,794561334861439
0,87741940022582
0,808445016584396
0,867729796881459
0,807349935222044
0,868250883086768
0,799662926407921
0,902961913833274
0,778438085074072
0,847718136674234
0,814599801104677
0,909616051869622
0,899067046259792
0,968310173447887
0,883729282642785
0,906251280212559
0,832857674492379
0,933403443207055
0,830818951732172
0,89867845347233
0,855571636078951
0,93954816427159
0,874139152843376
0,939980308476306
0,879774098431042
0,984432185019208
0,921974103063306
0,910248540720521
0,873294193623056
1,01826018411391
0,850700402519393
0,946484754981033
0,964093695169454
0,920344516611917
0,938878324868913
0,992102938456387
0,917390154384711
1,01525191615641
0,905616060715233
1,05431760476783
0,980219982416112
1,02721412615568
0,918026194065346
0,982368776102894
0,89570265885261
1,06298736710517
0,935921426566812
1,06183628621946
0,954926844129374
1,09083637087406
0,971951650161513
1,04639915185561
1,00100310640951
0,985966542724037
0,960560397846069
1,07494458781717
1,01191902090164
1,10935078798202
0,997748538864775
1,12096895038342
0,968834644165647
1,09952985147737
1,01977335989839
1,17464962347768
1,03627157306695
1,12645026979171
1,02059244510114
1,10297832950809
1,00600244023203
1,09034441801749
1,04043244406151
1,16772955886401
1,07127955565082
1,15781716836941
1,07755860536086
1,19526563126989
1,0582561693716
1,20303543626586
1,07634581051861
1,13892032593343
1,05403037114221
1,08960935842243
1,061008353343
1,19236945791158
1,06115279630767
1,19788744125421
1,07664384425544
1,22235639410304
1,12360557027372
1,2651166353318
1,11206468137691
1,20100343328771
1,12504049527659
1,12193736468903
1,10418784027192
1,30700809343244
1,14702239015353
1,34398103522929
1,12899607932911
1,25347887666531
1,11467285228892
1,27360951825677
1,17811944098413
1,2598428338642
1,0898717320376
1,22083021605585
1,16018626153944
1,22556728731195
1,10947995604145
1,156501849266
1,1212046510458
1,19997722693489
1,1274113736244
1,1746088294676
1,12932031346426
1,23183791079797
1,13017579386365
1,31995427312765
1,10849944978438
1,30504756383848
1,15662552392661
1,31945631098389
1,19558846114001
1,27776135857783
1,17559696236177
1,27709728360163
1,15127423091343
1,23696179518068
1,18726521866199
1,2552337270909
1,17634637031436
1,25978737285114
1,22470306305154
1,19743214989862
1,14586735585298
1,23969395180669
1,11408039993259
1,35559544739846
1,17227245169309
1,22537315874361
1,22119790693586
1,23028059953168
1,18178990263086
1,32313589246057
1,15479550548798
1,25293362036352
1,20684612349659
1,20808486540937
1,18820918273412
1,22071636869054
1,2298311124717
1,23179909174128
1,14813192608582
1,31366048237032
1,23261137578138
1,18057301497832
1,17736662934535
1,31096790883639
1,14584139777661
1,19207496868107
1,23695488583166
1,242093715798
1,21988043649782
1,30467686277768
1,20568742463522
1,33180279730545
1,16557724403573
1,24155348436315
1,21331371372567
1,25105765781965
1,12137337878948
1,33161101580662
1,25318219307865
1,27653453354104
1,22939561870134
1,25039978676527
1,10591233213095
1,21416696375675
1,14676315407413
1,30835735218933
1,14591214156237
1,26328897010244
1,19919855579027
1,23502985646705
1,14035389390284
1,19950699740402
1,14267613606832
1,24062120014858
1,2396237084688
1,24950738702938
1,21552129657446
1,26750467867451
1,18668155264448
1,27424216992633
1,24113284300144
1,17027782633174
1,18010687503651
1,19560910546779
1,1509018575142
1,25338995515877
1,18422002514533
1,26326378202564
1,18364693681848
1,18810694224568
1,21690598258555
1,29302428347921
1,1379360101972
1,25600575008181
1,16484713183534
1,25756580034813
1,15240763684821
1,26739859949376
1,18355297154496
1,29729725889668
1,13782958230431
1,24059565332198
1,19652963793756
1,22817429935044
1,20266615873307
1,28995377478807
1,17576091235445
1,23774416168887
1,19820502178896
1,26969603389385
1,18029020958155
1,32047663662441
1,15407849132059
1,23780686442095
1,17184471360533
1,28645096870606
1,20281564883755
1,23800927677123
1,17319782580133
1,27042978950984
1,24685308334971
1,21272929538319
1,16143821243343
1,20320379806774
1,15669448730185
1,21352063065144
1,18162869022286
1,22002902856877
1,19441423285726
1,19673358369274
1,17996634584982
1,2414823947206
1,18706544860857
1,2652645352082
1,15610353797208
1,26540779319135
1,16071078156532
1,16093608798709
1,15317302589679
1,23135113471662
1,22603832394016
1,2491477065608
1,17663262326426
1,21248294651575
1,18037035026316
1,20644721078394
1,15760263843681
1,24952884846505
1,2013820642842
1,19217677991141
1,13187860101306
1,18055504238042
1,1769646174125
1,25693128245444
1,18881501349111
1,23828118922705
1,15112622821742
1,2258747191589
1,16130595997524
1,21130218809783
1,15404942493867
1,22368236638113
1,12725017455437
1,25033475440835
1,13498897569685
1,20365083436699
1,12655396879265
1,24564188564634
1,12960433929656
1,14460330906635
1,14565769617234
1,2010008111206
1,13547381508451
1,21493108197821
1,09106551478227
1,13208449878824
1,12500572452239
1,15263879781493
1,09431285139564
1,13119496598547
1,09394663811344
1,14828500825758
1,0655867951584
1,16247829562917
1,0600445041871
1,1342563171184
1,07263781411584
1,09908994061699
1,07173492967367
1,11272633579609
1,07347621062917
1,12695426685886
1,06322702649057
1,09359329377423
1,04458491457191
1,07743585831258
1,06732793128961
1,09688003456159
1,02977198918928
1,09811199488985
1,04518929047708
1,09518903283092
1,02504225645868
1,04859158525702
1,03122705522861
1,03718215569571
0,99108450965993
1,03574626830688
1,02159540407461
1,0646239673856
0,992240754211233
1,02291992585942
0,989221171320291
0,995259825314177
0,9888053773028
1,01139535531161
0,989699462176976
1,01551160449978
0,975171904406687
0,947245915523851
0,938931310333211
0,967519262345417
0,96405610226466
0,988395355629525
0,927276078158595
0,941769726612472
0,911882148991306
0,962547493591257
0,926936656713406
0,912460860137656
0,903113456505655
0,896608865876533
0,901819942362499
0,899456742833217
0,895235995651544
0,907077655850051
0,885546349403552
0,885090151659434
0,842403693120067
0,897766783973891
0,848706984934958
0,875059741962699
0,847893583097126
0,874878527362967
0,828170007560723
0,838899361884647
0,815290397691579
0,867392179715268
0,815452930770065
0,833821064090083
0,813759358456009
0,817157901127077
0,798907765152936
0,817460782738593
0,802154427631761
0,805873176254058
0,791652208305588
0,781446960599613
0,776366679154609
0,786588041023039
0,766130168837026
0,786824824416266
0,769427401292283
0,78682740358457
0,725803919004137
0,759217491998372
0,741925198895709
0,740301844411608
0,718328613892777
0,740737357831217
0,706398213903091
0,737599428051245
0,707557370058361
0,734419644923151
0,690929452398995
0,702268403433361
0,683856134621839
0,710736427517501
0,685685248571557
0,689011125056381
0,670762790089339
0,686616224960317
0,662699212322138
0,66751601944977
0,661879613749659
0,6789243447405
0,645084008949003
0,656241757750682
0,646005985616845
0,658060339592491
0,63843629046059
0,644780389396271
0,617966613481757
0,636179760801141
0,623402616980524
0,629842097562454
0,609965729150046
0,612180519794542
0,602143064947975
0,616860761206375
0,583047118982264
0,600143151799312
0,587270369409695
0,595624072797654
0,585872959777068
0,591355481986418
0,572794355997885
0,578049177075689
0,559331766347207
0,56165528090229
0,545128568499114
0,557047756384579
0,549910199382135
0,551234430429277
0,5566474711074
0,543266220644657
0,534445580771465
0,548914981078618
0,526186833567281
0,528637499925675
0,509308438485467
0,521856994996503
0,520719690211861
0,52900301191334
0,510644434602802
0,514737763613583
0,49562964539187
0,50661549489394
0,490340065868857
0,490965055024577
0,468851830962981
0,494013843672514
0,477434415284645
0,489276877101959
0,470201579664563
0,479988884424673
0,475823644477445
0,467440110401052
0,454625412286959
0,467205563399268
0,446959326411641
0,46196569168442
0,443139914156893
0,452049834129727
0,444203980870428
0,449702576749794
0,434774583842562
0,445954357388159
0,419344376271389
0,432292896434169
0,429547515588648
0,427360833223134
0,415591859559511
0,42212717459747
0,409798494374147
0,413718610675525
0,407379953885518
0,407433832169348
0,404984867334224
0,411334254161157
0,390379494808561
0,404477969548268
0,387554509089664
0,394862728512491
0,38647980833857
0,386827982035624
0,375509741719172
0,379276463181278
0,370159308500952
0,380296436866626
0,374132762782099
0,379103792955577
0,36219897895501
0,368657622358809
0,360103401826444
0,362908279199256
0,358384500229495
0,36635575623053
0,34567645232193
0,352488801911951
0,342116025404181
0,350487495019509
0,343506726987398
0,344069713199538
0,327006149542298
0,341272579989115
0,335505702165525
0,338811010299346
0,324309062620162
0,329543901969826
0,31996088781664
0,326931913531855
0,318508563075865
0,319034873343981
0,312737780853181
0,318589942838241
0,306652995583495
0,318263235812694
0,304067018571448
0,313075688489287
0,300507831853941
0,305675061262622
0,29762373785175
0,29958483780298
0,291392811658992
0,300855829043384
0,288665318031497
0,297443900522085
0,284627174423438
0,293645619784728
0,280011449277459
0,287224921191239
0,280323892858012
0,280859187661029
0,27634475878093
0,280125061588921
0,271680773476544
0,277862100818938
0,265112152619796
0,270774307592518
0,267122212226171
0,262675559816157
0,259814494700742
0,266647574274387
0,260229654414851
0,26385025624372
0,255541871634096
0,253623631714283
0,253053611714393
0,255373621053751
0,245246912628856
0,25434323361
0,247858232136414
0,249757177495698
0,239023861685185
0,241569699103549
0,234496475993491
0,24435072108138
0,232049857414298
0,237848930730564
0,232583086734127
0,236152978910984
0,228862800959555
0,226443045804064
0,215748616345775
0,231266935334057
0,228088329140945
0,228157893067548
0,218805719998404
0,223768441880281
0,222558142781611
0,225494928336131
0,216858877595426
0,217974779833769
0,212927332232914
0,217994771482723
0,210465701268033
0,213039989215934
0,209480028603911
0,212099045487246
0,207512002737542
0,213874664236806
0,202495419348044
0,207010123571646
0,202577214410748
0,206031803017517
0,195594429116852
0,200467887179321
0,196371105872192
0,200293608763065
0,19200054596265
0,198428640095968
0,188259014004444
0,19386940330518
0,187714769545875
0,191167991766107
0,181342269390855
0,193327452004464
0,181969778491426
0,192861812487553
0,18396869076582
0,186392687786704
0,175242763402473
0,183750384442281
0,176521730983715
0,180581549660986
0,175193208377743
0,178362771654427
0,174572545223219
0,175680943033379
0,170365399332847
0,180064233741242
0,170664463456572
0,17083655908097
0,165398971594007
0,174158549146447
0,1681692468196
0,171311614164401
0,16839753005517
0,173749898871166
0,161939983379308
0,168178465584031
0,162400248433185
0,169344657898896
0,160788113011149
0,164718917072566
0,161314763953521
0,162130469730776
0,161372739397163
0,163432614708858
0,157278105665169
0,161587935976513
0,153966042874551
0,165221430782959
0,151166881751131
0,15845969134707
0,150309302163816
0,155476066939167
0,146827480083296
0,151618210067649
0,147844570242175
0,154081049290789
0,147602037994523
0,151289637994817
0,143188130640651
0,144562606893637
0,142513085304236
0,144730556709665
0,141423203052814
0,150005125361632
0,139002489349754
0,144956741499583
0,140830179215736
0,147280015413619
0,139302667627625
0,140927825896395
0,141213318696512
0,138223514289855
0,133727119771059
0,138322583744925
0,131400746660922
0,137947583492601
0,132021818714975
0,135770170617866
0,128612823390317
0,134184624392
0,131683038751533
0,136832184341997
0,125608778797504
0,130085228632993
0,132247387829297
0,132637210346529
0,123512472155349
0,129002318188232
0,124373140782357
0,123534470785388
0,118916216734764
0,126020386672544
0,11989223815665
0,127674323332694
0,120612793286735
0,124758467612995
0,121203126424955
0,11942795237853
0,117450211871709
0,120282015850084
0,116280173906419
0,121173999307755
0,115921226518203
0,118429362365677
0,1136242191505
0,119823241776879
0,115284830199151
0,117994384876884
0,11272784199239
0,116566594946067
0,112843675650671
0,118698188180022
0,11129096768739
0,116048171485153
0,109129612978268
0,114250753228735
0,110050955251423
0,114461575404466
0,109642830460912
0,112279847291484
0,111301740145391
0,112826296643077
0,106004781727973
0,111892417036825
0,106097708161348
0,106085218768728
0,106622194964044
0,108660778398827
0,107606132842851
0,108112205106999
0,101493459571567
0,107318385101127
0,100555144184644
0,103480316706588
0,100468403052104
0,103609446368302
0,101095755644352
0,106590970890129
0,102368408060054
0,103010551043787
0,100633041150628
0,105944162539957
0,102151533365045
0,10456353026896
0,0959818475046677
0,0986114651508332
0,0963536785522023
0,101256189235079
0,0982742442474227
0,100023235446801
0,0941184665198592
0,0985857352681632
0,096783338064047
0,0982303114862861
0,0947614015770767
0,101377099044436
0,0938094525238881
0,0985044904155099
0,0918394920634077
0,0959405990903473
0,0931379199834301
0,0984008966592635
0,0925481321439433
0,0892266049676197
0,090415866893184
0,0947055266797382
0,089752951400016
0,0955476140038242
0,0934573752305826
0,0964521814536427
0,0892243375356654
0,0888967514910196
0,0917700421980654
0,0952383247329593
0,0877897078624576
0,0902521664740622
0,0885241909644927
0,0934016282341866
0,0892737173799788
0,091704561738534
0,0851480947872582
0,0907286096314986
0,0858923324246239
0,0940545647900804
0,0871623309365835
0,0912878992127693
0,0864394691351868
0,0896026991781566
0,0825904155278881
0,0927947697301892
0,0885021829889696
0,0859369387752566
0,0834663427982564
0,0879463518133858
0,0816812650617437
0,0846491847740656
0,0828343671299455
0,0855449208319832
0,083319832555964
0,0857966985903169
0,0827821507888268
0,0862154445071462
0,0811233493851445
0,0848743577514392
0,0828849345623596
0,0901565331735019
0,0820341957837737
0,083477454121937
0,080617694359686
0,081910034066649
0,0775370829433239
0,0825599537127565
0,0808142292761441
0,0831064953299532
0,0783707440865766
0,083108297553781
0,0791467485695768
0,0844658097408682
0,0789353609035622
0,078733341327202
0,0750496776640063
0,0823765520598769
0,076206060198931
0,0813083645105068
0,0783235889924576
0,0822100859392379
0,0775783218711132
0,0809135777755097
0,0784366689316814
0,0830140421792068
0,0766696958272417
0,0800255752770317
0,0761489888965813
0,082300947722385
0,0795642292513728
0,0803349130824313
0,0778092103773847
0,0783776143329831
0,076960904873374
0,079038082164253
0,0760098196745211
0,0778795490611051
0,0752902628673942
0,0774175704482183
0,0749562469015809
0,0802957004820065
0,0738263703855483
0,0769123870912211
0,0734431333016658
0,075975861625971
0,0749499289151854
0,0774757914435747
0,0740902291106159
0,0788145308567977
0,074106046194224
0,0752309253217124
0,073309026392057
0,0740930242204476
0,0712873612786249
0,0780485927311266
0,0757589865660207
0,0792624579082923
0,0739288252580974
0,073789841198259
0,0701748470333247
0,0727396271884225
0,0733747106393993
0,0744300803730685
0,0690891430735357
0,075661375799281
0,0746951058543752
0,072891434801323
0,0710627836750311
0,0756230121855806
0,0701736628539312
0,0768272194961216
0,0741716279120541
0,0725173761500501
0,0724058811439992
0,072600354056856
0,0727596942596739
0,0719132323539505
0,0695601171433404
0,0728164366192097
0,0699259469196352
0,0712222161047195
0,0710387662789965
0,073784561881153
0,0653766537594075
0,074062238766967
0,0718832024686368
0,0723387919599528
0,0706508534186218
0,0746315609257101
0,0685162656207705
0,0746377612418523
0,0697638595559753
0,0737761793731442
0,0691439898746771
0,0729654966156046
0,0701936965775248
0,0738065895124579
0,0710657836606594
0,0740378198299329
0,0693931802325836
0,0727228495712119
0,0672498856401898
0,0715606589428115
0,0681539005095101
0,0700311078353022
0,0681254313794755
0,0711087669486958
0,0693945803682378
0,0705203424537056
0,0648512266506
0,0696300106075658
0,0664328968396033
0,068349013411701
0,065368896069305
0,0710801250885322
0,0689712970745039
0,0694261334503848
0,0651981167212042
0,0704038526605524
0,0687107370715466
0,0692012336450565
0,0654185271664384
0,0683111460153363
0,0639179514359064
0,0691998001340974
0,0659888682415876
0,068417527927875
0,0670014734466444
0,0700599158449719
0,0671303608468494
0,0700231289083042
0,0653172665025445
0,0699955743337703
0,0694884586975731
0,0706993533632255
0,0645440676416697
0,0673275312854211
0,0680942721974075
0,0675575990536714
0,0673628440573593
0,0704964116144847
0,0683937458923388
0,0695334878254463
0,0643027942817978
0,0670135484703812
0,0658502623416979
0,0676404125146978
0,0653942774541376
0,0700981173199403
0,0658738429734809
0,0692226729893296
0,0660736070825317
0,0683768007498089
0,064870257744384
0,0698808574171574
0,0675987928418894
0,0700593484693835
0,065053200591292
0,0679084001204169
0,0691459076032717
0,0685799248461469
0,0640670595574917
0,0700109355391846
0,0678827096109272
0,066177112569343
0,0673250572498585
0,0699472003881881
0,0698476441781669
0,0675536119129734
0,0620618654346434
0,0664028718541845
0,0667279094300578
0,068510543888518
0,0642912629639944
0,0680616513611581
0,0660143899113896
0,0667922332913025
0,0670354236667507
0,0684318813662551
0,065233240252189
0,065770179330427
0,065664431965319
0,0672407725239583
0,0647355450661458
0,0699190461368938
0,0676361076226594
0,0674430381626846
0,0675734975765703
0,0684505441769352
0,065761379519691
0,0688157564275902
0,0652442075706423
0,0692244906990207
0,0659607324849407
0,0692877994729357
0,0669822159733229
0,0684792178152467
0,0651408115325442
0,0651788168704452
0,0643517456199304
0,0661707698338459
0,0669125504043578
0,0700649687068473
0,0685905961859308
0,0696548110469688
0,0659302673350743
0,0701265136916455
0,0673355133514486
0,0656310581556354
0,0679814173178155
0,0705625495818496
0,0657106102176656
0,0694880909616489
0,0659349931997861
0,0712950986827133
0,0663600125528278
0,0683956785325801
0,0681784863261632
0,0698796716218953
0,0670307173749179
0,0659705543927187
0,0657211751350997
0,0695199780830134
0,0686412897247664
0,0689947490081951
0,0661784239848635
0,0690596079942443
0,0644456915303649
0,0706218899566002
0,0671515846528367
0,0705779078756053
0,0666944785300987
0,0680281549109762
0,0676213411824066
0,0685617977933118
0,0667178922133672
0,0695197714324293
0,0681592396585678
0,0714025949497385
0,0666058536910764
0,067662392368224
0,0678794691865433
0,0689992913717537
0,0666304185260424
0,0696955152865414
0,0663057944571374
0,0683334080427393
0,0664423331170653
0,0695203741588998
0,0673193529345272
0,0690374408644878
0,0671055231890232
0,0667460856987993
0,0656880463858304
0,0705211859910575
0,0689456584705952
0,0669269776361011
0,0660502198583384
0,0692461844958074
0,0691444861093218
0,0692655489048426
0,0696290389409735
0,0736406057050644
0,0680791547626188
0,0687939393825009
0,0681249474468221
0,0713328663906813
0,0690496639912755
0,0707497817850275
0,0676658512547225
0,0699511840334512
0,0697465064881603
0,069431203411809
0,0681738644057401
0,0712555263873893
0,0681104674509343
0,0707812031854713
0,0691110574749445
0,0723752026123528
0,0702719826766228
0,0716764072873328
0,0705096212281995
0,069101662543688
0,0675536003176971
0,0711949865242427
0,0665971419612956
0,069483002454282
0,0679351172178506
0,0708794163885692
0,0710683021068826
0,0705719078044466
0,0693015032312628
0,071066819310993
0,068366198532157
0,0715677665720901
0,0697864067744501
0,071589847658382
0,0712851184888024
0,0746513556776573
0,0680536239323213
0,0722671579203871
0,0711644728056124
0,0714735932693655
0,0695761031709948
0,0731459734773527
0,0706487476869341
0,0700987461424867
0,0697023191676316
0,0716923396731188
0,0708022179305153
0,0721612534300185
0,0693370476196106
0,0711191389604572
0,0689831361101416
0,073785620526354
0,0728284779797415
0,0731266174434478
0,0706794946368642
0,0749921132637116
0,071862923634136
0,0732530349139612
0,0708049100203595
0,0728708110784054
0,0703792871731631
0,0739814430480048
0,0718122834484037
0,0726939667903277
0,0711440007175206
0,0736307173719783
0,0714810991230364
0,0747189850294894
0,0711968566636119
0,0754405396420254
0,0736026104228324
0,0747981676639451
0,0728012942698221
0,0751084783339814
0,0725729101743904
0,0747161546256548
0,0746590105387329
0,0761316600874622
0,0720317933272494
0,0746185020864776
0,070310845430167
0,0720938264606385
0,0733216406262844
0,0755074419607492
0,0723704108990568
0,0740909561643571
0,0731418268331853
0,0755546099478586
0,074176730151293
0,0759782586574428
0,077370973658526
0,0775016826393681
0,0726349448248534
0,0760205659460659
0,0751972212572716
0,0768889544354935
0,0735167717637552
0,0766167085997257
0,0720282100290364
0,0755190453900688
0,0754985081209816
0,0777377599451662
0,07284276939611
0,0767605058881285
0,0725978654383239
0,0759410830986171
0,0764769651764247
0,0764501795426837
0,0750716730859443
0,0764683378646777
0,0747456857867344
0,0773889739177448
0,0746959088655482
0,080484518462537
0,074774787230764
0,0784335803487861
0,0736122657266754
0,0769267518263287
0,0758572967318381
0,0785893170834693
0,0767372916837449
0,079586451450731
0,0769140456004612
0,0797174750687171
0,0767671793969841
0,0829370444028844
0,0774932299898246
0,0801876560438286
0,075727880810202
0,0827153023561359
0,0811101780612674
0,0839150785485785
0,0787929149690608
0,0850273012799051
0,0784961444724334
0,0855816195994061
0,0813045307997378
0,0890132289132977
0,0811813632205208
0,0905054586859387
0,0825775757007541
0,0910976382407664
0,088484625124021
0,0962601385515933
0,0916554502999822
0,0966422866319545
0,0824294662882855
0,0953253734919985
0,0909112793159399
0,0972965831032889
0,0862965990482718
0,100545223326191
0,0890363325117253
0,099544953170305
0,0921511758380643
0,100902314361549
0,0932732326737993
0,102103482518955
0,0936885346812252
0,097184849423115
0,0815642403181928
0,101356042502786
0,0882210961992963
0,0985422696430005
0,0819062793455356
0,093867636423914
0,0794900583025867
0,0985091324922185
0,084986223332821
0,103896127251107
0,0863533920787674
0,101122883694802
0,0824609954995908
0,103991297623999
0,0822580586941675
0,10085847247846
0,07898903048917
0,0971178956743985
0,0781228028352246
0,103204309327874
0,0833168080511799
0,110275686226071
0,0893789299248914
0,0999504277645252
0,085106376172151
0,0970032467454659
0,0878601779664537
0,108536929761248
0,0975334467893521
0,0902287538166949
0,0914317913958458
0,0937978031993
0,117052879986337
0,0819434411219873
0,102442066601258
0,0800249161877002
0,125268902167151
0,0700895567027633
0,114352845237338
0,0716655823347819
0,119952418518262
0,068727447073095
0,114695934705777
0,0776073401582358
0,107561882629754
0,083228974577467
0,0987442994709905
0,0865248399470922
0,095930060242005
0,0898852185422114
0,0919575469785083
0,0899980983504855
0,0927515779006039
0,088848023835737
0,0946020732916825
0,0896568171643543
0,0965621800777384
0,0863736889447659
0,0974935704484787
0,0867424159588453
0,0922346994526937
0,0872863602571686
0,0937332572754501
0,087626570644427
0,0942733012075637
0,0878037677069269
0,0923313888448415
0,0894998390546589
0,09375683642623
0,087788481080103
0,09329238032827
0,0899901653953347
0,094827591568244
0,0875064100864137
0,0949373786726077
0,0890823082088873
0,0954088476561979
0,0911690435953314
0,0941312791779449
0,0934565104324474
0,0939646835345392
0,0927805186044337
0,0960740457600265
0,0907909886935509
0,0978038347332422
0,0921963674081008
0,0963891387371198
0,0930839817426761
0,096326559433024
0,091789388228592
0,0949610937073011
0,0931532457519953
0,0973727277935841
0,0936322475910074
0,0982955227433623
0,0948070608362814
0,0960679744797506
0,0942512319536637
0,0987102758616031
0,0937619510637659
0,0986672273814178
0,0965257108986638
0,098886891278862
0,0954305719702646
0,0994532968846772
0,0937529415037267
0,099039748585883
0,0957506232887258
0,0985123288391971
0,0947880294330754
0,098503681524368
0,100163676222792
0,0981041733456144
0,0969988125446046
0,102758070629871
0,10063596319384
0,100127444402253
0,09753186375591
0,0987753855453555
0,0994746026190898
0,102609123999468
0,0996589448117678
0,102832232096602
0,0977286708777757
0,1024998798456
0,100501231561335
0,101006993131645
0,101212162749579
0,1042534685443
0,101512741838738
0,102567068751436
0,100064702356408
0,103132264740088
0,100364807407884
0,10712667132934
0,102085109787352
0,103792787653238
0,102499229646762
0,104522703454526
0,102179365919129
0,105864058295983
0,101708027952376
0,105058205453639
0,102373232567415
0,104696194070509
0,103946556949345
0,106565530697962
0,103909744265585
0,104949191158238
0,106591025233443
0,107417516729964
0,10785518395956
0,108069040916262
0,106866887230106
0,108560457935552
0,107623471965289
0,108482137512688
0,108056870931221
0,108418569729703
0,107418916458543
0,110831332949965
0,108625602521464
0,108291657937738
0,107888129587845
0,10917655381676
0,108111786906952
0,110545428902769
0,111103017580616
0,111257408856285
0,107527398469986
0,111457371255055
0,11106671389128
0,111171284760064
0,107771977382946
0,11136679570235
0,110501991612398
0,113688942662617
0,108316968935843
0,111917462596521
0,1109681836758
0,111272850081952
0,111906582818472
0,112537451709915
0,112471187201379
0,112526336231372
0,112145906935514
0,114268270978815
0,112298748456499
0,114382474467793
0,113126459241349
0,116722226542066
0,112766148727615
0,116804077591502
0,114921283402805
0,116360694897837
0,112955438078989
0,11474450314978
0,115975030081183
0,114758464512288
0,116445567659802
0,116402995815005
0,115172197450073
0,114302062948343
0,114301247541197
0,116617005373385
0,115523286428857
0,11707730054559
0,115334709739428
0,116552502622555
0,115043071954102
0,118979197294967
0,118810336318029
0,116983547368316
0,116160170797485
0,117656335057536
0,116040837757295
0,11660729262548
0,118191110984599
0,117474452593739
0,117788072279822
0,119718391405962
0,117113876694623
0,121218750322836
0,116642253883047
0,117626437847587
0,121050244001738
0,121426113028368
0,117189288327186
0,119258326929366
0,117181111426723
0,120611305560564
0,117538823576993
0,119779286712662
0,118660369244699
0,117503365210485
0,118308538772746
0,118512030088078
0,119919202566053
0,118430305928169
0,116152828222186
0,120373568330398
0,1186194551928
0,11837237825482
0,118928347663513
0,119996837960694
0,120692706540495
0,119168022267859
0,117392033787198
0,117138255865052
0,117746293280147
0,120203457255012
0,119417625030855
0,120161441312578
0,118659195997776
0,120238024207681
0,117422416661641
0,118921909503565
0,119260694848412
0,121582872369463
0,116922488029818
0,118383277089973
0,120106204867672
0,119929730543526
0,118222211834435
0,12070096256607
0,116954532226789
0,116726251308377
0,118737362226228
0,119747044059934
0,116226822166219
0,121050282046272
0,122662708093631
0,118814704042043
0,115873307686072
0,119263702832011
0,116462373734428
0,118262520875614
0,118665529002499
0,119082136750296
0,118899258859706
0,119167909823067
0,11584607370724
0,118601363632968
0,117256104301188
0,118278844019172
0,118162111397529
0,118503898637252
0,118393734727522
0,117563687918965
0,115957154410631
0,116240431022125
0,115543774167854
0,117667663301608
0,115531646752359
0,117892491307808
0,113349561185238
0,117172267579157
0,111497943436586
0,116471783050517
0,115834334242115
0,116748243238218
0,112116625969736
0,115709021437043
0,115965514935001
0,114266462466376
0,113878245606693
0,115452247956661
0,11352925740443
0,115198399228009
0,114536923205464
0,11439182792344
0,112708296671289
0,114209691942226
0,112693022456178
0,113566097719074
0,10969457513397
0,114034672008307
0,112809727343483
0,114449751423834
0,113363499351756
0,112528886278402
0,1110594697924
0,112629377702779
0,111745491890274
0,113929509740847
0,107355320494595
0,111042122329245
0,11008763039731
0,110820943422043
0,109885953537676
0,11035645394327
0,110080985029323
0,112466809048907
0,106809395618826
0,1100726408216
0,10926628234871
0,110468216027566
0,108846031505354
0,108164138842161
0,107136381339065
0,108572471591618
0,106434220942187
0,107295544005493
0,10796016035586
0,108907479467266
0,103497242418256
0,106126512491719
0,107321997551551
0,106136485796781
0,102049381966098
0,105644856766526
0,103594392841602
0,106036312401975
0,104571906448266
0,104846800818755
0,102848299998
0,106827514179397
0,103614485813626
0,107545296879333
0,103676483272235
0,102709898485485
0,104993451885166
0,101511469462276
0,10262856604588
0,101662709973903
0,100394034092745
0,100860533894845
0,102887562726064
0,10130167713225
0,10168081061743
0,0993453753543597
0,100627776063511
0,101645825234349
0,0983696631801071
0,100033547763336
0,0991933568645408
0,0974766837375699
0,0992380504265924
0,0984204231094399
0,0971709995477134
0,0983218152822379
0,0980174888653127
0,0962472549189722
0,0982441123199257
0,0975883927103715
0,0968591922682793
0,0936260365151384
0,0992882076935825
0,0999465871170002
0,0957813148949174
0,0960030230680141
0,0959029158668187
0,0974881683201699
0,0975071379071949
0,0952249945484762
0,09221241103203
0,0962170465106517
0,0925646660959051
0,0966309706917714
0,0917142239490347
0,0939145555843684
0,0917400286581484
0,094542688312596
0,0922091045517628
0,0945359897345047
0,0899981213846785
0,0937938414899866
0,0910896466772323
0,0917456300293668
0,0900191306075894
0,092370420155154
0,0915117153269425
0,0909856126995963
0,0897106700773096
0,0909003886030973
0,0892195951801878
0,0922756083078032
0,088606965703251
0,090135909506053
0,0877407393356767
0,0910778814879893
0,0879594244361618
0,090852153043347
0,087398580263798
0,0892324986800764
0,0868288286301483
0,0901120682378458
0,0857186408180077
0,0862007132149617
0,0837151915179906
0,0888338136595284
0,0853042005584378
0,0879275384299932
0,0856179512881984
0,0859166861026418
0,0820331975859883
0,0885680588069046
0,0824061411797585
0,0897217041128935
0,0793349804179181
0,0893401114967217
0,0902476787437927
0,0877066443299353
0,08355013341195
0,0839993583237825
0,0843581085231288
0,085519511204722
0,0856164284805817
0,0844425472427813
0,0819369839992757
0,0836090053741222
0,0820213258436887
0,0847171429463223
0,0836203021000557
0,0824057706253118
0,084708971174966
0,0828030355819354
0,0823330448762043
0,0830266854118726
0,0841395380640932
0,0813725176433707
0,0824294289223896
0,0873623370099784
0,078835423870923
0,0851663620404579
0,084243059162405
0,0753133446593499
0,0957944327027328
0,0778884970365399
0,0849936688413672
0,0767770504393904
0,0824061246493572
0,0773083301503782
0,0823750741727733
0,0773886528798478
0,0824493442996814
0,0818086422679686
0,080887868410864
0,0844654050300623
0,0795670634504294
0,0807887518641182
0,079148222956725
0,0808927661204538
0,0775880787014018
0,0789573485597216
0,0783608763551908
0,0796953470802779
0,0805379218443143
0,076145644234876
0,0825607516330689
0,0738857309227362
0,0792913237529428
0,0785354677584134
0,077811517382084
0,0778592630468611
0,081967428493596
0,0724310754807478
0,0786963307983776
0,0857793426437396
0,075575911717122
0,0822936697670917
0,0730169070797523
0,080084914391967
0,0748042178086255
0,0794434347159144
0,0756701094728391
0,078775352523426
0,0754928284378698
0,0804302774057384
0,0761331556774158
0,0799227428098981
0,0767091968599351
0,0788578478639349
0,0770645547122292
0,0782343683029404
0,074277380434531
0,0762533377578523
0,0779618930880947
0,0710714410480202
0,0818212524240822
0,0823131236702817
0,0863652201482413
0,0759915884662653
0,0830686037648333
0,07572545336267
0,0761078554920739
0,077921055629521
0,0752125810603985
0,0774112497481807
0,0756092672129232
0,077960141298272
0,0772054174185455
0,0782497921096675
0,0759762515124107
0,07922434978588
0,0737339912865216
0,0773836647648252
0,0754911533635569
0,0804387424919343
0,0725174552218603
0,0794832841268467
0,0675352917317904
0,0871320329947787
0,0736354395932541
0,0864770494180565
0,054053521269067
0,104377004658625
0,0803392120340096
0,0841199649488125
0,0781096355905267
0,0786391184669646
0,0778407878350094
0,077325214244079
0,076506288677014
0,0828807981892862
0,0766001835797563
0,0785008454930442
0,0759566481699316
0,0786576967086358
0,0806439306366819
0,0740307291584894
0,0758931094983929
0,0966988679948253
0,0789550799269618
0,0887205887508825
0,0700060650130861
0,0849094800400081
0,0889410444111254
0,0765714578965075
0,0851640181584185
0,0787751263941431
0,0806368330713861
0,0784375624658672
0,0794178512964984
0,0791369585828695
0,0835916058717034
0,0789603011307254
0,0822920180821022
0,0805643955281397
0,0788694789432344
0,0841804151019403
0,0780029802099031
0,088953692735988
0,0880185836708703
0,0796092136833026
0,0855795986038681
0,0818108510400595
0,0837707669360532
0,0823479746745315
0,0824974421806128
0,0774170663397648
0,0885075773055001
0,0926232582605721
0,0824581697289192
0,0937469073534348
0,0880430962458852
0,0839118726150227
0,0871608337217777
0,0812885759202525
0,0979671616523977
0,0713951559834528
0,0981669244033897
0,0963772072405003
0,0903771941472074
0,104874061404617
0,080394444248287
0,0974036418995815
0,0833733569072583
0,0960275068064475
0,0782269371662808
0,114071084189996
0,0774117381866173
0,104385584936241
0,0741304410743932
0,108347249316134
0,0920916248135575
0,0995826122464178
0,0923240072363506
0,0971911102332884
0,0856853861387641
0,111284985821356
0,0874565239820372
0,088901114465046
0,103870457050363
0,107174974954047
0,119128072792379
0,0972238891705466
0,0855263948736713
0,126800821293548
0,0959854905701648
0,110653264867335
0,0911320163574868
0,111632147670622
0,0950799222256648
0,101654904851988
0,117953640735593
0,104836882128804
0,106263606653024
0,112305488958411
0,0940847094409178
0,124142923846454
0,107440895480543
0,11582349269606
0,105842390523534
0,120794463561364
0,0900006490807019
0,168748993359773
0,105686259348233
0,12875758373256
0,119879918526973
0,12874287279519
0,121423333648384
0,126705823779933
0,11724370038599
0,127377367678968
0,132583207215342
0,131413977966293
0,110226502923801
0,141089207715829
0,143799552232393
0,124150746508043
0,144636124879923
0,127483206815408
0,125754072198706
0,153967834435276
0,159837170724713
0,162459330856634
0,144299177131838
0,141685356893363
0,164846119300041
0,147715392626575
0,15431390105731
0,149410247698666
0,154925351503317
0,157372703539274
0,151752219653589
0,170811211722032
0,160535311689304
0,171600571604057
0,160894993443346
0,170443258819215
0,166668854071872
0,19624772592114
0,205211789351864
0,168169649106652
0,220774533378468
0,192721133756503
0,203184429082883
0,193049157092541
0,193274916958048
0,209207238261113
0,207589354168827
0,211373306878871
0,19690352693498
0,236326520078868
0,220777326116369
0,226460614520212
0,240571465418488
0,225343576440056
0,237344726447283
0,196300480612762
0,415723275761307
0,236106381584986
0,282577777920357
0,238874456370309
0,258220518652083
0,313935575219755
0,2738192778755
0,274688893498811
0,280025361995973
0,278104735761193
0,29349715614068
0,295176350889324
0,304235048846798
0,313127476620739
0,323120669474753
0,297644750987115
0,329374605220426
0,357443433302463
0,366066015198324
0,352085289200266
0,336623045006201
0,353457429390897
0,36856757453145
0,35042845213684
0,381050203145337
0,359692987484923
0,369129870577881
0,427656009867114
0,381161316928203
0,403122659441471
0,380573777273226
0,444688042194057
0,3714846995955
0,475273677884122
0,432365898582875
0,442834144397044
0,425334520025932
0,445153367906266
0,445939531836268
0,431195688482025
0,485297079534048
0,47461680567819
0,47093617785642
0,485083120623143
0,484090936076411
0,496798448930912
0,491126385650234
0,50811492010703
0,489715292711833
0,545045845327497
0,48606977172555
0,685025497241468
0,544451591606461
0,533093015363356
0,540448027045106
0,533906873856671
0,560752634372298
0,550156868110287
0,581064004680727
0,581739687230344
0,552238256860309
0,572966151784847
0,563778505513794
0,579410283917995
0,567860301816772
0,598059707393844
0,548241765282804
0,619591346865833
0,555066903947836
0,614727824638236
0,644819407170244
0,58089387845717
0,573836154144789
0,582024409293675
0,568329248447557
0,582503444866831
0,577033976660829
0,573247175868528
0,594405176593398
0,557404891986926
0,562300289829364
0,534960314677956
0,570618715414963
0,564785257651562
0,535454990356201
0,540482188497318
0,515305687544864
0,523763522424819
0,498081847197266
0,500480628795446
0,568455107090697
0,494351767880739
0,502909535547473
0,484968887548195
0,483785243485975
0,47168528172146
0,464599194390318
0,45218309440621
0,456572562450205
0,442814450174255
0,439858063957312
0,432837865640454
0,424468566962636
0,417857880377992
0,416681447751797
0,405872160902534
0,404721226726812
0,398074523328449
0,393258103865076
0,384884700884879
0,375714939039488
0,377135418996614
0,366398167280327
0,366358094157869
0,369753395629085
0,357076894760942
0,357370430811146
0,343179925175269
0,349015850839663
0,343272314552645
0,337814914402511
0,329820315823726
0,324388057213329
0,320837493368751
0,318016108859888
0,322032504176177
0,315841737861753
0,310343447126799
0,307686672719854
0,307992851817876
0,297864824108894
0,309339741091116
0,268288629032331
0,355050540491412
0,302136139300317
0,294857666641944
0,289861954803684
0,280532264731636
0,28862234963615
0,260204776198385
0,31239024660121
0,283480209463271
0,279392513106417
0,273001856075878
0,264287309947399
0,274272081447746
0,275743085610289
0,255629864566356
0,285876449881394
0,228543249078002
0,289900092066313
0,269272882163174
0,304926765660933
0,313334486972998
0,267723256412712
0,250987282335247
0,247251075427673
0,281297111102117
0,238782034895275
0,261246355881007
0,223012398968652
0,275729687715717
0,251898877451547
0,2385978653123
0,24181809179239
0,230430373749642
0,251487175273312
0,262776437006796
0,230511161687322
0,245679760268249
0,262241695898363
0,235363388508588
0,264101014736149
0,273820171539058
0,251766794703971
0,224272960929845
0,230722803013958
0,226388029161581
0,20834727767777
0,277187308647409
0,220528952407985
0,241600407722017
0,219669390390785
0,220199780445614
0,213960559061339
0,22725166631961
0,231125324776644
0,211087021477979
0,263904928993196
0,197888638539263
0,242093181679898
0,205538353767117
0,240208217669875
0,243215053006794
0,228120928258092
0,198747080970858
0,228766809750276
0,240873728279377
0,207988186444561
0,228420783585431
0,204841827056121
0,207313379845727
0,227727111394539
0,19558265703988
0,220247474802825
0,215465398184261
0,20455664919766
0,232742125466417
0,227449620265711
0,244474590071147
0,210954802396745
0,198143362741713
0,204916161319332
0,192955638155365
0,214617764108084
0,184519843889301
0,234550291635481
0,205125764838988
0,178815986888871
0,240777272790915
0,198862908354144
0,197166322652803
0,199542496488458
0,195020252390749
0,194489841113435
0,200680074954584
0,221176966068254
0,203344495487015
0,204636332446838
0,221170397394969
0,192617361977251
0,202714407055003
0,186631237875035
0,196508101392491
0,189346895047894
0,206833725757008
0,195699150674986
0,194653225549704
0,198651352687098
0,19197557241821
0,195937762212369
0,227292424141004
0,173583853666343
0,234149745149552
0,169879952261714
0,25014193335227
0,198323324021063
0,195414847478058
0,199369574258573
0,191336986116495
0,197121650209052
0,190284436165825
0,184950299529052
0,225687587325673
0,180164783808756
0,206904346279875
0,182409877891407
0,207270562447208
0,179442801140975
0,22231816282996
0,17652167263267
0,247792492355021
0,219882794021718
0,204251152080861
0,204044080054641
0,18668381616912
0,204360088300461
0,192058882622084
0,193449550673127
0,195370551225305
0,185970899026176
0,214406435492706
0,189724024689814
0,196631511127321
0,1897496056837
0,194219057798457
0,189525166415509
0,19216703366595
0,189606703896195
0,189868198966274
0,19017807091318
0,199195332711958
0,164789295077552
0,253273968972386
0,190818717992466
0,199572363394802
0,192297418114268
0,197048642269561
0,195617858821067
0,189142598842978
0,20231607083394
0,198554609959324
0,192957611897948
0,19593179673829
0,183837694057669
0,197635625947003
0,181089997417601
0,214419050901292
0,177504344493445
0,208750129255493
0,171891609533564
0,207531523887387
0,217816956233872
0,195543085521607
0,211586859365575
0,186275836576427
0,198034071822425
0,18800629642871
0,196266587607639
0,186976761070775
0,195248592569847
0,185409200028837
0,198544308090889
0,187470135324818
0,188802040792305
0,191957171382947
0,182757683493997
0,206073013798452
0,190100067557407
0,197361884353055
0,187280097927999
0,194329317918373
0,183100588314535
0,206392015702776
0,198609948210192
0,192139516447539
0,196900086651334
0,190390058680516
0,201437572488697
0,20137704406305
0,186414120785434
0,196521658467532
0,186801144408635
0,193843605843181
0,188067568383984
0,19090171593434
0,213572739638921
0,189896846355689
0,193124664450792
0,185804618749613
0,193227672494462
0,189379841862075
0,191215247705214
0,18665925322089
0,19380879112147
0,188025850137725
0,194727366485153
0,188058289381
0,189936859912181
0,194830785870084
0,198942094773402
0,198137064795556
0,192205852283001
0,191396007319083
0,190453090400025
0,187662794930886
0,194951773953455
0,191431290255778
0,1923343907665
0,189627866170913
0,195070715199458
0,181352786244299
0,211391089916676
0,18140550049224
0,196245163079007
0,190227904305042
0,190687209748038
0,189207088283652
0,187454044975472
0,18934446481707
0,186406908528829
0,190446870709394
0,184395813354739
0,186557378406576
0,186515604083556
0,186807576833689
0,187037393401052
0,190941729916722
0,186171693817239
0,186359317355696
0,186778139272243
0,184671730320426
0,189363937947275
0,184367030536675
0,189058836409871
0,182018225678429
0,19186254132211
0,192496120249874
0,194060215240023
0,189887144509544
0,185373205231991
0,192109730041284
0,18026348358085
0,187255043662009
0,1803928923228
0,188265595715979
0,180994419770395
0,189171807429187
0,183307005048325
0,187304052254079
0,18098766065558
0,186938869930435
0,182014165014601
0,186836342411445
0,182602558627619
0,185655992345393
0,182020516189392
0,188272700886013
0,183861701877547
0,186781017160316
0,184804046299451
0,184878868460572
0,186590559175619
0,183138711615178
0,185937423816691
0,184305985486292
0,187042864441994
0,183784611540277
0,182923959984494
0,18334195324426
0,181350262211071
0,184716336368696
0,18357588980081
0,183797369673202
0,184147748443837
0,182853479711316
0,182615550112594
0,184949984090743
0,180502534855739
0,184504626289205
0,182927174297544
0,181957809917817
0,180692322197857
0,182235525305747
0,183234547607566
0,184132559295019
0,180536108606326
0,182041396259064
0,180234649067322
0,181008248535696
0,181260225882641
0,181395646357015
0,180243748123709
0,179799866879393
0,181100165095892
0,182448582592081
0,182571167232034
0,1819967098907
0,181089525642265
0,180826805835799
0,182105716695725
0,181941597603882
0,178757563628598
0,180494182963476
0,181782531097751
0,181953314991041
0,180968420171487
0,179546633146975
0,180277678955453
0,179003361050434
0,180582462424055
0,178282056908756
0,180712984990718
0,18198605001752
0,183542617349779
0,180520116628159
0,180806737618561
0,181397378375211
0,182077050877008
0,181956373582321
0,180711732878412
0,179710431966532
0,18189866359418
0,180776401826628
0,181320717637861
0,180763696808977
0,180393994342244
0,180965291689637
0,178253669280269
0,18111809661545
0,180878193948794
0,181325965096334
0,181766122111065
0,18029437947076
0,17943695999846
0,181309885429792
0,181834661396269
0,180262293647146
0,179494887575299
0,180450425907652
0,180534304913007
0,179344579157147
0,179530551231927
0,179805233413877
0,17904552485914
0,178394260327373
0,178041707122071
0,178489117083467
0,180256001140973
0,180637176718994
0,180101220522995
0,178949853626464
0,177550977168536
0,179715741054747
0,179704295248879
0,179368530728394
0,178540446832177
0,177958090512466
0,17811274921088
0,180313848047741
0,180371405743085
0,179602204595171
0,178542280995316
0,176347360807276
0,177420266385709
0,176286292677648
0,177278677180374
0,180002914227728
0,176546845799244
0,178302821363216
0,177010249325739
0,175732490782019
0,177272740655678
0,177072699647712
0,176476262936892
0,175754408368427
0,175234666599456
0,174599106302997
0,175144578953882
0,175892300970199
0,175599152862843
0,17597081437934
0,174005374879066
0,174073851776011
0,175696602590137
0,175226940543446
0,174888234994106
0,175723931058029
0,174624397116274
0,175838421585168
0,17607716504267
0,174171577985015
0,17419413514694
0,174073551047539
0,173096242749605
0,174753693605245
0,174125538727631
0,174216990052514
0,173861844619589
0,173177545790634
0,17478218615109
0,173677137358551
0,174590215318615
0,173245888333787
0,173716919101157
0,175110804134736
0,172431879418192
0,172757755357659
0,174825256629957
0,174085325053642
0,174967161614938
0,175330106622302
0,174123443776147
0,176472645504758
0,17705324315772
0,177017308993204
0,177971263022489
0,178843537632003
0,178585327969586
0,179971284281443
0,181850119364196
0,183600047414872
0,183411290276308
0,183355899828143
0,184670393074062
0,185279607010271
0,185940092007633
0,188281833590401
0,187828266642862
0,189882474902794
0,189509018010256
0,190542475545474
0,191612097481329
0,190506056518123
0,189981921467246
0,19150841885913
0,19107485868453
0,191805037569426
0,191882175863228
0,190207997874434
0,189338526256375
0,190504926107276
0,18778108475756
0,186158002635214
0,188995071680449
0,188439665685323
0,188422541205842
0,188189392317849
0,188796534587676
0,188581179808728
0,188310249044316
0,187871517788218
0,187588000268399
0,187231964615798
0,188598323944298
0,188607511943307
0,18947338711459
0,190140163039918
0,189990356936589
0,18914776153113
0,191833861144643
0,190848693624305
0,19242259831547
0,193261333345894
0,1914137286985
0,194285147259325
0,194390935006945
0,194186254401598
0,195013806232513
0,198611953729746
0,20034060184616
0,198578057747047
0,198235365660789
0,198897873488933
0,201028389659046
0,2013314096822
0,201096228154675
0,200698578377121
0,197605956158618
0,198872369570263
0,199064851421077
0,199322460910586
0,197909451744698
0,197958546282014
0,199499105894574
0,198124962946106
0,196424809847167
0,195349173956441
0,197731627772334
0,198837796877844
0,199789334821888
0,200418125097544
0,200950389867343
0,203367469457074
0,205285130882682
0,205485154984952
0,206467951100875
0,207232242347948
0,207540566161559
0,209177058644
0,210179309513275
0,21036679624263
0,210486241602705
0,211422526951788
0,212438759166773
0,213908094812275
0,216207680797756
0,214014720976488
0,214941854982587
0,217098950486398
0,219158407730929
0,219768638849352
0,221263615446172
0,225378555401421
0,226871935439541
0,227529998095902
0,229477649458409
0,229916808900818
0,230662425291089
0,231005531112767
0,232721289639465
0,234709129625765
0,231945786654902
0,230772509667814
0,232243273811326
0,232167289347054
0,23258923623905
0,228777993443848
0,228587609823037
0,228496182152113
0,224937739298148
0,222478707196016
0,221101614562003
0,222713825746882
0,221383848274308
0,221504710458826
0,221150309019518
0,220854030343391
0,221378906477573
0,2205640182497
0,223290526527156
0,222125188753435
0,221241021775512
0,222893776924614
0,225179094816907
0,225210195898409
0,226233248234945
0,227351227571308
0,227292599147328
0,226766877797717
0,230418504212103
0,227945750124088
0,227121998137686
0,229097407155998
0,230668859988615
0,231175811023752
0,227875573614828
0,231005711245899
0,23219606006753
0,229683047255792
0,231859592853238
0,231351565199296
0,229108964424137
0,230293297620038
0,231236264152681
0,228970866403106
0,228919479066898
0,231563087923618
0,231874037400339
0,230199298316587
0,229980703543379
0,227808203607243
0,225554420394982
0,224205551003438
0,225665555918942
0,224429461530258
0,226452325906161
0,225807483115255
0,22483101598585
0,220827434577241
0,222892310436382
0,224862733806967
0,222396398010617
0,220860363213855
0,21717035558515
0,217943463748455
0,21580762432285
0,211460105885367
0,212659879027224
0,21103617434246
0,208721351409923
0,210048135566242
0,208561966070374
0,207781529557246
0,207128748365858
0,206557363567475
0,206791699566128
0,207384015384157
0,211861241400032
0,211296393691734
0,209464851752322
0,208180871409098
0,212155623715175
0,209832475015133
0,212363629742609
0,213188881174535
0,21250530213414
0,211311773410297
0,211538194159718
0,212756697215355
0,210354254085857
0,213003532709288
0,215175317956566
0,212627938171709
0,215633214326711
0,21260885726451
0,213234874646303
0,212772018495724
0,212550808078243
0,211880590507432
0,215188460862833
0,21227623899224
0,212049459210539
0,213010058215996
0,213828407686763
0,214910470164687
0,213531243698581
0,213447402421027
0,21563706540254
0,211746375020262
0,213037179859195
0,215547961445025
0,215759733492534
0,217675062515535
0,217361076976106
0,21797901578457
0,217559776425152
0,2174386933942
0,219249780982337
0,2200641554919
0,221858250124318
0,217994819848182
0,220015145021484
0,225078275657215
0,226237673948136
0,222341414434047
0,223444704570551
0,227208892371719
0,228635643946355
0,227852405221573
0,230077217398526
0,228892129065468
0,232224581293495
0,231423901624506
0,234041605659279
0,235144138872235
0,234099619564258
0,235132084293237
0,236686492090661
0,241789136715093
0,245421832345812
0,243398221329186
0,241493403916093
0,242553218814043
0,241923723075555
0,24241494502051
0,249317887019715
0,246532743569046
0,246065438997832
0,251521656853804
0,251754417075823
0,252308278230668
0,254608192285846
0,255338912876991
0,260094828168068
0,258091661552336
0,258280554860518
0,259881017164177
0,260963479280895
0,262246527004973
0,267760677695033
0,26433451029124
0,264051770548601
0,27218258065356
0,27138663776876
0,271284137584546
0,273842966032471
0,278216367717849
0,279671908734131
0,277308002047476
0,283926936144654
0,285201995577608
0,2845173544952
0,284692557738335
0,288050039927061
0,291537438472772
0,294821674051476
0,294129037452336
0,293790495945004
0,2959866152016
0,302948491066205
0,303981089078114
0,307913764989508
0,306026904855268
0,304182718006998
0,311779605508494
0,317318168973571
0,313739751659883
0,314700009777799
0,31621562897901
0,318719418553817
0,323434409862864
0,330328109689868
0,329543993236656
0,334318316694492
0,33642440085644
0,338206648718039
0,342431533557571
0,34540197367072
0,345188719430702
0,340186299276955
0,347131094556398
0,354204664997607
0,347139851529489
0,354745901682633
0,361746548997971
0,359502828933178
0,358269153373178
0,363710969851742
0,367133429018146
0,375678105907542
0,375676249850806
0,37902884347946
0,376763567450651
0,382044970690967
0,379747382738487
0,384149019783243
0,394060404613336
0,387498389496941
0,386370971457438
0,391897701142265
0,391645283728935
0,392089052801018
0,398556942106164
0,408317634101318
0,407257313368759
0,411671181397278
0,417939177401708
0,424375408509031
0,420539123220016
0,419513182511821
0,422646112778405
0,431101615306395
0,436176605626333
0,434571293831164
0,440207588170675
0,437529710404187
0,439794236913988
0,445546883052917
0,451285242707328
0,458356270872793
0,455553738227363
0,468342648503594
0,463338633434802
0,458148749437135
0,463397237495858
0,466167884974162
0,46335775153212
0,484941213291059
0,474642153295284
0,474286029717543
0,485947058371173
0,493146824923579
0,493934776616516
0,480433913326601
0,491580495923594
0,508526350813454
0,507075490487464
0,509207377821529
0,505884055398999
0,506048628047477
0,512216292927052
0,513109572683537
0,503159883768517
0,510118716299614
0,527871904877711
0,526337415464701
0,540370862510951
0,542782607258283
0,543163985226501
0,548288758214541
0,541300534061935
0,553017712293396
0,55511367136117
0,546007363134226
0,556382256543481
0,553274720360428
0,564835572064131
0,577771750867434
0,563579478529676
0,579067978815525
0,576790961110457
0,576756894532646
0,589044080268997
0,591974982156725
0,584512668552129
0,589351004814814
0,612074904923985
0,609845461812492
0,60134080481687
0,611502661390553
0,628192324207177
0,607807349436821
0,600698061845646
0,600275631251101
0,604462190490587
0,637789657017601
0,641357310573224
0,631670036243286
0,63896356271627
0,643652913626734
0,637633167081524
0,639960231907172
0,658781361016666
0,684568135547417
0,635498083368705
0,639914450916679
0,680474401624448
0,672679045360532
0,679846257631744
0,673529749977228
0,669757712846698
0,676011671492392
0,690800129582168
0,689947207701576
0,675172851655009
0,701318729491041
0,704739447176561
0,700577980752133
0,731985594908708
0,742269856737669
0,715816356786645
0,703834706804376
0,754965699553315
0,724526240580657
0,726715987911806
0,729553803458683
0,731720942287076
0,755831028865565
0,724781924112108
0,73561955859427
0,786648765554728
0,751509731407638
0,810074573090817
0,793841059082111
0,753826201818297
0,777257509579285
0,766825557663456
0,79652108083071
0,783132406087416
0,783509212826758
0,824175540138558
0,745553684064361
0,754470003772195
0,783957528791854
0,799221751256682
0,839184983313666
0,821697095028226
0,844612395037385
0,79258998102284
0,782172170606869
0,821104564612421
0,800841728011088
0,808193845488776
0,8950852730896
0,882255846565463
0,858831770413096
0,867193949472053
0,862764906510863
0,864813957669878
0,890819309642455
0,848259235098195
0,836140416506386
0,895719521099107
0,905996866867958
0,872138032502995
0,828565843723465
0,883210910744535
0,932266056315334
0,949982516726315
0,931923591856179
0,958832726633963
0,86988732682859
0,935936465444058
1,00626126532195
0,996083302202047
0,897719350968539
1,0305125001249
0,884606950933773
0,956501032538061
1,15713271577379
0,986567514866613
0,887515058145581
0,915584860884374
0,958065150885947
0,954127383321418
0,985298550173911
0,985972497638863
0,90527449197651
1,02035520659842
0,872548319916054
0,914280770575707
1,01056904321073
0,947122617804439
1,01156912740657
1,06653382875615
0,942302050371295
1,12210070423413
1,22463982041139
1,14108464913699
0,997173684554313
0,926581277891198
0,956991042258389
1,06135342297413
0,942801949255754
1,13100862099128
1,02138414938285
1,11039830511908
1,07836715346273
1,02506533799875
1,09607938495986
1,1577985553308
1,07299886253865
1,14511597972758
1,0887712088057
1,00772590165026
0,98297947820229
1,61955703631937
1,13976115879578
0,949068754344518
1,09494754285936
1,18462341287348
1,05699940013257
0,948681622736416
1,01519834760776
1,18587316077259
1,13840684763139
1,01897695264956
0,905976482237433
1,61061875377371
1,05260067343119
5
1,48736999453236
1,40010443026018
1,17449817171843
1,14971925171795
1,00306536064085
1,69826725818354
0,889621804682261
1,64926175339192
1,01804659844121
0,909373122068339
1,81825886638369
5
0,728687498304528
1,34488527178571
1,94978075189615
0,882559785748625
1,30640599776823
5
2,27025616355768
5
5
1,82498987191218
1,48935953286849
5
0,75546122782544
1,16226099644568
