3596
4000,36533379555
650,420452594757
1
2
2
0,0175324217244747
0,0131347309902146
0,0121474002960223
0,0147932042492669
0,0117959578536582
0,0177433493747945
0,0157584067900365
0,0123177423928482
0,010661354157097
0,00431533594677829
0,0137798386607836
0,0108199382107211
0,0170885874521935
0,00986177442363794
0,0109415515999396
0,0178396947246481
0,0129589617598717
0,00869909345600747
0,0109384171188871
0,013651874465751
0,013877758839997
0,0129528608097857
0,0174516914014463
0,012283584969324
0,0181325547243178
0,0163082370915946
0,017755035701394
0,0187021095889957
0,00979795165567589
0,0115812123709751
0,0122902185535745
0,0097797655111072
0,0173985610182978
0,0107628050134029
0,0124191608211647
0,0145586203040667
0,0113206405236475
0,012222042012572
0,0179021620324063
0,0127933767749152
0,0126193783360365
0,0098670322902733
0,018675499213707
0,0100517093116692
0,0206736635809455
0,00912258616567504
0,0133079387182612
0,0132441074769804
0,0189156022140584
0,0135233476652598
0,0122645205206794
0,00958327904820982
0,0178156963960858
0,0143784808708199
0,00953216841426528
0,00545185684442643
0,00804768298614592
0,0147828484432762
0,0139232749773205
0,00933977946077476
0,0170770744829367
0,016049774063871
0,0195032981446885
0,0146718893539757
0,0160707866825529
0,0145202712133638
0,0151600461821672
0,0115882456993459
0,0113866789221986
0,0184877818189973
0,0151826344700609
0,010019016149151
0,0237186533465485
0,0151901659601225
0,0160039452307055
0,0138688605961658
0,0130918391424768
0,0125894142550059
0,018906311352756
0,014528340455226
0,0253543367661224
0,0105921248129353
0,0129187338769209
0,0170878496540513
0,0201075408544592
0,00821021583048683
0,0116866648320428
0,00998468324788894
0,0203584617078444
0,013471150354803
0,015128277722363
0,0137944725369707
0,017273102783833
0,0100498621300988
0,0119438306628852
0,00978756605312673
0,0135721159299916
0,0138029522649273
0,0149753197459112
0,00828384662730964
0,0163433019923059
-0,00355640081027583
0,0170649114100923
0,0156428541604025
0,0119535829101633
0,0120588386974184
0,0121957083563708
0,0204123389292898
0,0163110481864157
0,0120141921571067
0,0171194109394462
0,0120219607606912
0,0185705145355656
0,0126682817328834
0,0149872543814032
0,00667149551684771
0,024600402494366
0,0140323934531558
0,0119302756519406
0,0109542866457768
0,0190629464224584
0,0106176888432279
0,0161215493943835
0,0061539274753364
0,0168629389578588
0,015738121882625
0,00983728147868399
0,00914372888205806
0,0158454133077874
0,0102086599844824
0,0112584981860876
0,0175721596353446
0,0146260459790399
0,0159557179014475
0,0155088002857919
0,0140603527383381
0,0103745491100135
0,00472944130447072
0,00926219488072784
0,0139133102690034
0,0132253621036986
0,016920776638172
0,0159881445565236
0,00214316908949265
0,0209285489089744
0,0185512045950964
0,0150990169789565
0,0087195803156882
0,0131210012308485
0,0162408493849631
0,0104904505998006
0,0131877831920018
0,0178371906926958
0,0157398219833727
0,00500562497289894
-0,00696045484275764
0,0186351577623651
0,0134275218442256
0,0144352008356898
0,00913832666830434
0,0175489746786475
0,0149165523665062
0,0144848695518034
0,0174188423674311
0,0174710069873479
0,0112286249035015
0,010299334825457
0,0231740382696131
0,0212053197499256
0,0194861177865423
0,0163408327256991
0,013653058022886
0,00139739376990562
0,0167837676656383
0,0186047516478384
0,0123437497655158
0,0155263486235187
0,0132854775935226
0,00924215606881739
0,0147492440093194
0,0189938667227848
0,0156469409054718
0,020397747366864
0,0181033075476413
0,0157222444404094
0,0136791556354873
0,0184102593217314
0,0156364328862614
0,0187311140452633
0,00960168028741267
0,0109542846326421
0,0134421847690005
0,0283571892417091
0,0168324020427232
0,0172753507600895
0,0201228511724447
0,0142246614098409
0,021199248964163
0,0179436150777389
0,0175858953666054
0,0202858386041861
0,015594627878911
0,0141124214426599
0,0139300147176876
0,022873626910629
0,0185809940352832
0,0173582084451869
0,0195991828595931
0,0128708776610157
0,012796848961542
0,01637598695542
0,0144959598274303
0,0164236082294583
0,0211139606597954
0,0127521321676107
0,0213777459355397
0,0202957876960155
0,0204141267344774
0,0257017192132509
0,0190612625290148
0,0244173543329228
0,0173194326023002
0,0156015513657019
0,0146452537708138
0,0202508305557616
0,023672053317235
0,017155804609402
0,0181489525312262
0,0185769771733636
0,0189258446301231
0,0165803657235866
0,021030434480284
0,0165702769165635
0,0197401496431503
0,0189320075531754
0,0227592137858509
0,0222997584808482
0,0239561039129256
0,0222243393349989
0,0164175280123269
0,0217565947193849
0,0225391835770296
0,0242083618043221
0,0176948278934951
0,0206400549888145
0,0201821089470425
0,023544110056268
0,02115188469618
0,0286043038635694
0,0269960531243313
0,0196904291353418
0,0220766267224916
0,0196657549410907
0,0176592712709311
0,0189947618155013
0,0161950806068004
0,0119556306122864
0,0255584393571224
0,0249751349117231
0,0177809538559197
0,0257434329438663
0,0265719060901489
0,0195774199170447
0,0233129532546092
0,0243001156880295
0,0281511029310476
0,0312049484065326
0,0191237563506335
0,0268374342932237
0,0236757631067408
0,0268153198961802
0,0238614891025554
0,0237176973705191
0,0264567667557002
0,0275664157791689
0,022319743832545
0,0209265570643414
0,0262072522046416
0,025926937480422
0,0293921892380008
0,0276576149962878
0,0263263117463279
0,0216146537783765
0,0283590680563069
0,0301481433974049
0,0272251511615798
0,0201622184299446
0,0303771603464462
0,0291122197364112
0,0318775758715602
0,0253973824626769
0,0266833655325184
0,0353662934928892
0,0318948661011185
0,0312239927295448
0,0319109428527936
0,0318753840093054
0,029955424762082
0,0328850936256099
0,0338455113172811
0,0335948794727749
0,0337554739569046
0,036314967116877
0,0388961700159426
0,0352700795884029
0,0387260447550597
0,0367190021182785
0,0328777377950855
0,0525911404859755
0,0461838715144037
0,0427793030160852
0,0466929811211652
0,0434323378476721
0,0487524009579028
0,0440884421301603
0,0460459502398632
0,0472056339276756
0,0462701382111114
0,0538281463122642
0,0520818950672805
0,0525856336860185
0,0514604059470313
0,0554796422160751
0,0512707993578067
0,0557189251448555
0,0567422818291036
0,0591064208396074
0,0621648758791795
0,065366370780464
0,0590382583742322
0,066300833634484
0,0678121901834573
0,0616251472681627
0,0739549594704945
0,0765083547445227
0,0749102192810385
0,0756563276394863
0,0772998089372307
0,0762447488414809
0,091093598885702
0,089657946299448
0,0935983488852519
0,0905395161769635
0,10365714084922
0,0959108970341446
0,0961691389829944
0,101606804360695
0,121092347342556
0,100933073612868
0,103099906107753
0,110732524089252
0,113856583971357
0,119903474544479
0,129098410119112
0,125399113483563
0,126206942556068
0,131270265195264
0,13342746153547
0,133125841427811
0,137792118119971
0,14183483950123
0,146972255764833
0,147168706555332
0,147644470070336
0,164123834015021
0,159775300678358
0,171823714679319
0,168948965187633
0,176841716238884
0,179179591679243
0,171304866469495
0,182999925111351
0,177372648449294
0,193253243325944
0,202687598000801
0,192480410104948
0,206006067081378
0,202012337709737
0,198006355749706
0,200779914386067
0,208180602044009
0,21724784626767
0,2129891751618
0,222668051365017
0,217555862814356
0,229904441145421
0,232079497677983
0,229801321888141
0,234762869328885
0,244671525977503
0,238765492400392
0,247497110104685
0,240467591901174
0,257537012173299
0,250000995894444
0,264623775143973
0,253749558946138
0,273191519921529
0,263934116291072
0,261004725240022
0,259716817907303
0,275266808983964
0,278049916108124
0,279636561657169
0,282651387473515
0,296341920703489
0,274594312177156
0,29516735814024
0,308592080410662
0,31136109138198
0,290844790089372
0,29896621988966
0,293327530743708
0,307452732105843
0,312120828342833
0,320592976651452
0,312682844345874
0,318672256367467
0,312940224390879
0,342413358243917
0,325253222165695
0,345026297103577
0,323469840071102
0,336854648194879
0,331305764854033
0,33323310924272
0,346917751049879
0,348275695920461
0,347218462032343
0,361167229539149
0,353988611392544
0,351595664337213
0,357726679131078
0,372660195738192
0,367346000634176
0,388428355480598
0,36779096137786
0,381436879536661
0,37314775670942
0,393487671589143
0,374013066507104
0,38287984670477
0,382199209517019
0,387120244958372
0,396261098249645
0,401757011878907
0,398356865999901
0,412919641000003
0,415792400786717
0,426880402208576
0,413315446987605
0,420011052179159
0,417027654774556
0,412367408789863
0,421233176775677
0,43323372077221
0,425890981967918
0,441965233210938
0,424647761373024
0,460260357051267
0,441500303355609
0,466210791684657
0,451591714173184
0,47437562688312
0,456857973570365
0,452382921928748
0,437743341827739
0,471819854420803
0,449901106060885
0,455189538435847
0,467593950208941
0,488488542498024
0,467479837060074
0,486618556393389
0,464725132189003
0,5103902807537
0,481427262238587
0,511806879762837
0,495392339360965
0,504627593914955
0,489429670183358
0,531904766920652
0,514495530229787
0,538846355573571
0,508502993931024
0,540909969564838
0,524197929818803
0,52550768792324
0,521758328498126
0,557010723826689
0,509494686943836
0,555019103697374
0,535710890318578
0,55963301820747
0,542996316462873
0,56224185364174
0,540454507236329
0,578653734246381
0,541012802680943
0,586874582677368
0,555435764409666
0,59090284001436
0,564231008841241
0,600633550217169
0,564205992065555
0,604288608896366
0,59311680177073
0,577560163851767
0,586130139886029
0,615493195252918
0,588781677376377
0,630448926891178
0,622707951799918
0,634139410954518
0,610609777071008
0,64707823847272
0,628539537792796
0,64212989501944
0,629906618155596
0,626932333825687
0,624885666296181
0,643282742221684
0,626836066803894
0,680101095628434
0,627108986419554
0,711364829858748
0,660023659634511
0,683646516635386
0,645777975586039
0,665271779620648
0,66792074326951
0,687340327585257
0,638922321356522
0,717160643341696
0,678000803792496
0,736597587884181
0,68564372247645
0,714545313720642
0,71133600908494
0,75059516233002
0,671240414999958
0,729277879224528
0,716674442343158
0,743936569713119
0,720894998986648
0,746889732926194
0,719545835659072
0,762770478100407
0,699875588926678
0,772098049773639
0,711533126566302
0,739524660447217
0,750256974691563
0,79256031837256
0,753706039312204
0,760460252966869
0,749825754553213
0,765745333625269
0,754563607379286
0,823367628365609
0,774000982151411
0,852281773658505
0,753680334492922
0,806660492092514
0,743809375893127
0,792850820560366
0,76602012270846
0,80625759545956
0,742836171598908
0,864055725171139
0,8343106808235
0,834167648008
0,829546329655102
0,89066059643756
0,790025761787268
0,867001523882835
0,804614155780667
0,906309279603177
0,813650595355611
0,900535959226656
0,875172137865219
0,88902216023324
0,862884316241736
0,903775662981363
0,837144278047193
0,922945377803809
0,827397166131
0,92307416902502
0,86838431275229
0,917638227937703
0,855551660422933
0,936837697477462
0,93396458208086
0,963933729724152
0,908071616288201
0,930610870981101
0,886026933070519
0,967406553837154
0,872126182098557
0,966279906395728
0,932985343738081
0,916744257407544
0,883157157321509
0,937558826773819
0,93815398672719
0,945292630066558
0,932623907299565
1,04710285880457
0,916091751018816
0,994582415333579
0,902589565519388
0,986758089652626
0,982011834562955
0,988028260671912
0,923996982721515
1,07645267347586
1,05712757867153
1,06894014122869
1,01115828348855
1,08135753041174
0,942675786084955
1,07497301017475
0,957281129712218
1,03182059852791
0,932948292808981
1,08144580957347
1,0148816748298
1,10746321904127
1,01590834394568
1,10488991419472
1,0642127411266
1,14020005607191
1,05661680825556
1,05170490342085
1,01404462112087
1,16832068399465
1,04849915411437
1,12775668567608
1,03698815780875
1,10967138627473
1,00840120832829
1,09005451030762
1,03346956616739
1,09514935447282
1,02151883638097
1,109895471846
1,04271147232919
1,0951812839108
1,11108791437808
1,09496516153842
1,07643634609987
1,13734746984585
1,03605888673269
1,15512199847122
1,09498100599912
1,2564417009326
1,0944530920372
1,2015138859552
1,06211158859265
1,23484644050573
1,08368526192299
1,09483220936088
1,10657114317735
1,22364480785928
1,08964634673099
1,2317656879182
1,06390707580158
1,2280003537119
1,07316796460994
1,2104887544891
1,15646780911288
1,18842437853151
1,00160526455274
1,19353756276884
1,09198573137795
1,19923240720033
1,1102118797352
1,17904219251745
1,10478687354354
1,20716565282727
1,10073074918933
1,22773321642649
1,0948934399304
1,15919509113383
1,11173562127192
1,23648110882694
1,1428798265477
1,28119460529856
1,15493505431705
1,19607526420377
1,14603507293765
1,2161977772681
1,17974751246773
1,26556483072219
1,21764631249742
1,19637811237675
1,11874557269738
1,32338193434822
1,17586248162745
1,15162482032261
1,17088713803634
1,27943556069837
1,15542077988919
1,29846145954884
1,20463961942211
1,31170542250035
1,11092623324711
1,16623765545188
1,13182712137418
1,27893721935847
1,14266696153199
1,21659727697812
1,15381717340973
1,19306903099977
1,12828078058889
1,19249702787619
1,15734572335897
1,20350974048959
1,20937507204408
1,1795981380051
1,15490672959672
1,23507803455997
1,18054234769452
1,13556139189092
1,16972446168929
1,28753049983806
1,17387263328903
1,2873495061324
1,16370560241595
1,18677325341636
1,127153301739
1,30573451976775
1,14064576891833
1,27840882639856
1,13633959408256
1,24991071418475
1,14346394456303
1,22424263918155
1,16513698793463
1,22010354567295
1,14625647593013
1,25660562792575
1,15558286797347
1,22141350810415
1,17651102323867
1,28595795547582
1,13554953242567
1,26116950912438
1,13368397022682
1,23493123367374
1,23141508633661
1,27187924972723
1,17862055031608
1,2777008534583
1,15180650845193
1,17321557393122
1,1348206859603
1,23919663410167
1,14828924276586
1,17439259802089
1,14557929398938
1,2195578659444
1,20196685498505
1,28655639421831
1,17103572988228
1,18463801627075
1,11852390584376
1,21778523741238
1,22096757092198
1,22601600288256
1,15480324433944
1,24679131314407
1,19378113654445
1,26915789416313
1,18559711634642
1,23313711901426
1,14534343056824
1,1701933583638
1,1807463404523
1,28006605039184
1,20071082918131
1,22796773818699
1,14815689677492
1,21907706852518
1,21131009785896
1,22414020561544
1,12625187519075
1,23774510832221
1,17971772325036
1,24449551074852
1,13834062004021
1,23235417093435
1,14542471126073
1,2564162147256
1,13569690886871
1,20669510144978
1,20442444420566
1,24991795097115
1,13167432225538
1,17668264608977
1,19818519193217
1,23554157375186
1,15526133085939
1,21842538864637
1,1424924678653
1,21361788602455
1,22011127444911
1,26034135211653
1,12157527403215
1,25129850378882
1,17299400836762
1,25510346761619
1,19438113489753
1,23000889337999
1,14804544128984
1,16666020304617
1,16703818470947
1,16891628358954
1,11289506167802
1,17306189957237
1,14912546581205
1,21218858852916
1,16734423017474
1,17798416316626
1,1393757991839
1,22291600935562
1,1404518388613
1,19417645141559
1,13032919504843
1,18491011751811
1,09667831014553
1,14173440043443
1,13196166570498
1,16958732544164
1,14421694711688
1,16695195867014
1,14783308665477
1,1677503960516
1,10742396565257
1,13957335105324
1,1039285445406
1,14750605919583
1,11228141942967
1,15621316693036
1,09156309261227
1,18151204329626
1,14569905733799
1,21824551116562
1,07986275038427
1,15589823788633
1,07888452480568
1,11758410646195
1,04686641372628
1,16681667967885
1,06730705091717
1,14505353501008
1,05352384822553
1,12316738639808
1,11270476819496
1,16912540368722
1,08112456179253
1,11227331161153
1,03292558063987
1,0842289542115
1,04045731647713
1,1115045771677
1,05188316540005
1,0935824033777
1,05113847579461
1,09164173469828
1,03354446710349
1,05004736903019
1,02774547960803
1,08216206627832
0,995214107508717
1,06138705669949
0,974419780836501
1,05806666756913
1,01619696893794
1,04044896485987
1,00138422700725
1,03885302560829
1,0008163654717
1,0065970882805
0,986490306034895
1,03189452376147
0,959899214909251
0,995950398691468
0,949417539129809
0,998467948027936
0,973396078542114
0,95496745420433
0,965465882361593
0,940403752470489
0,912817029174677
0,931558505586608
0,931734728716767
0,948566506715333
0,911637407247915
0,935676260197499
0,900595295435515
0,942734829698973
0,883469088662543
0,89999183428129
0,856344777695567
0,908698116344778
0,879025436627088
0,916992452716682
0,86304189214952
0,875131397987946
0,855966101580983
0,867368927188581
0,846268145675779
0,875150638071735
0,815423794639211
0,86268535867379
0,8367505422429
0,838279544101003
0,827732072279423
0,841198979290533
0,80855792814978
0,809610584596937
0,793572592403557
0,801230614647755
0,806889272079597
0,82247456614106
0,77183079714541
0,812691727747317
0,781310411296476
0,788354012717492
0,758068791255171
0,778280042497339
0,744820255865249
0,753941487900125
0,736361968866549
0,761149662838793
0,734616425078849
0,744264616474239
0,729491015217876
0,745981936297003
0,705314123834624
0,728122489511388
0,710762011433297
0,706137308681953
0,702220117677319
0,700016660638626
0,691913418540318
0,676898735383763
0,676215368601828
0,694194047131871
0,677816383445119
0,684298838415241
0,668554110453676
0,674344828625556
0,661726903308569
0,659768908577631
0,650386764619659
0,65841140011419
0,640483750717217
0,64384140021304
0,631106158529915
0,649646080337546
0,615546750630738
0,616376711326398
0,608060144415318
0,638031120859644
0,614037042765985
0,600324545859645
0,598634305878914
0,600340517218425
0,595335228115106
0,592597137245698
0,586806907671865
0,587385584344657
0,576574523638811
0,568007501964675
0,563850616040422
0,570888052640902
0,561721085475654
0,56140993217279
0,54092938474346
0,555076700393302
0,54037141061336
0,557404436026676
0,526669805089702
0,527157489404802
0,523071916444892
0,531052823960361
0,514094039350297
0,52260563768671
0,516693312109959
0,519918159150063
0,497293005462618
0,515982709664236
0,497871827345447
0,496301070058348
0,484529707349047
0,497366213320514
0,487135642111216
0,490719537910232
0,48043890563428
0,490612488416744
0,467929264708096
0,479258271205768
0,46740116260531
0,469392463715038
0,448028085339687
0,459346806439111
0,446397429976431
0,459618377389477
0,447312460028247
0,454002441545209
0,435394374269564
0,433623153605421
0,430194744170188
0,437598343395043
0,427477900390474
0,428436163811262
0,419107718623108
0,425205494468569
0,417746838523993
0,422550362229513
0,401595687267387
0,415185950016101
0,3960339739627
0,398297228202257
0,397414758431
0,402315399363244
0,388310191016709
0,395745499648418
0,385011782891582
0,39597782534185
0,385523209642552
0,380041440576019
0,368338395345013
0,378910529144284
0,368095921627236
0,372142510099445
0,366412747025381
0,360200813214327
0,35027729523449
0,354179556226399
0,355638938321913
0,357026148725114
0,349095998416871
0,348977593344334
0,342574446850652
0,348823379996317
0,334427943244618
0,339128238244662
0,330887868993675
0,339208349830028
0,323748088211052
0,331490121842409
0,321588103408157
0,325379323826493
0,321649460910192
0,324640157790948
0,316009764242685
0,314074476092636
0,316476061021347
0,310212542548389
0,3104509842709
0,304457746465784
0,303675498302869
0,303112266920805
0,297654296338029
0,30024271750012
0,289692183189846
0,294244037684434
0,287096651422489
0,29176453853337
0,283035505059047
0,287105663215629
0,281974239281384
0,277555315504063
0,27196306139445
0,272947402112285
0,272119183794931
0,275524304881149
0,271894065068696
0,265247198629677
0,264280290696285
0,265362738572649
0,262413177977807
0,267031636995024
0,252757209112018
0,261140889713654
0,257130150796858
0,260279554950171
0,249720614695764
0,255932337459721
0,245266481590872
0,250727652728585
0,240369311545564
0,245610004601763
0,239814424120291
0,239621911324898
0,239705265956561
0,24560324916384
0,232719376040718
0,237282656618905
0,235416440659822
0,23620883267128
0,225938667577131
0,232465429423903
0,220750823884667
0,223968269230642
0,222263055845606
0,222420380387593
0,215900453103568
0,217832279298866
0,21754393883481
0,215570271914319
0,212015803948161
0,211423381317814
0,211635046552984
0,204596107282079
0,211163585851241
0,210905598071763
0,204034118554263
0,209807995412905
0,203880328442684
0,206872623673384
0,203442922863213
0,202913792078688
0,1947915007981
0,202358700214358
0,198835818877251
0,199359866732215
0,188094723495706
0,1941101033643
0,188123611039555
0,18979987180373
0,186873453928741
0,192686272573047
0,187087717655163
0,185678855995745
0,177963852686268
0,187613922774542
0,183819631882434
0,180976313431379
0,178644882049297
0,179715222317692
0,177315091232756
0,176490130571477
0,177965893167291
0,173221308552262
0,171584189539745
0,167321182801358
0,169454855865004
0,167771535708479
0,163130128468014
0,168018742305779
0,165410366530647
0,165053161380912
0,158866996692513
0,163507975468003
0,15618855476299
0,158399160753487
0,156355678064724
0,164030527681566
0,156532521810483
0,164465139014597
0,15686648344231
0,152105642236004
0,15368419799627
0,151048967570324
0,149540071853206
0,15193483171676
0,145590174606968
0,146617731033867
0,145792581996537
0,14581789397447
0,144724103287177
0,147410597004211
0,146269248199086
0,145051554549621
0,14681996717346
0,146015404200563
0,140847283232303
0,139462462451314
0,139782943408015
0,142829966609412
0,142245219012
0,135970442160768
0,141627758115972
0,136284646044421
0,136733013075916
0,130952461069426
0,130636558746487
0,135347084954492
0,134184178289608
0,134359244176775
0,132863864051364
0,128682654712272
0,130933216655856
0,127232276470571
0,126288690766262
0,128516206473702
0,123700171554949
0,127223398365902
0,125420933584211
0,128218311419845
0,123380217623087
0,125908168094436
0,120798076097289
0,124563932512699
0,122568247162096
0,123570509919501
0,118135764816167
0,118511766718292
0,116125020705358
0,117497197918632
0,115324781386497
0,117214533760983
0,113241860723624
0,11630912687503
0,110041416904582
0,114759685226713
0,114775342809051
0,111430548225623
0,110298371527742
0,113290819170343
0,111685996896834
0,109894087631293
0,105240535023307
0,106621771082669
0,107533339466565
0,104525191614891
0,106517161937145
0,106003332614726
0,1055692478672
0,104533809605855
0,105754516625556
0,105083811603525
0,099335374843436
0,103121848291029
0,102249992191413
0,104514448077521
0,10150917712383
0,102236669718144
0,0989731612548226
0,0983472645490992
0,101714670439065
0,0984559249903628
0,0961807012060381
0,0958722671007174
0,0963291072394492
0,0932731539313469
0,097476632852374
0,0988015328156457
0,0920540579656561
0,0898974925858182
0,0949971114469585
0,0950743446753856
0,0944912446095569
0,0922522407286113
0,0913643099020061
0,0926573894313581
0,0871435797001378
0,0910152854441661
0,0898748490087803
0,0873244249067154
0,0854466472441139
0,0898781327834546
0,089522113195546
0,0909243153554103
0,0907942430924068
0,0860898068712288
0,0874539643763272
0,0856389911444152
0,0858972360323837
0,0823579345536254
0,0823275479602331
0,0869573938072441
0,0856914567620049
0,086942917643228
0,0804532269636358
0,0829349465349988
0,0816350815864437
0,0834951819420111
0,0827430521236378
0,0841485460063473
0,0782033373889387
0,0817959688953521
0,0852190058847639
0,0790011405479644
0,0776537969687304
0,0791686921276143
0,0771817411983297
0,0788700436855706
0,0784396225281156
0,0802657587778975
0,0786043060318892
0,0754339512220049
0,0770565390988442
0,080535234502748
0,0763521094480632
0,0746062902957872
0,0750710678273425
0,0759600748309517
0,0704606618761056
0,0736046105368211
0,0725860480834727
0,0742370720857899
0,0720276719669139
0,073712523342861
0,0747672085392503
0,073797158558993
0,0711416353033736
0,0775669010270208
0,0739097607238087
0,0719026406216154
0,0724474410074557
0,0729490630183882
0,0708833509662717
0,0747994583952693
0,0739114697059518
0,0718523007241841
0,0714411930206804
0,0703635262235788
0,0747927498680573
0,0709082731231626
0,0706675118775656
0,0684990623383331
0,0672467513983515
0,0673131035390357
0,0666911359486956
0,0714749743912265
0,0653386383680406
0,063324680708737
0,0665816019962545
0,0660079101847576
0,065703321055749
0,0692910893362256
0,0669117860457669
0,0683720038407218
0,0661017743130475
0,0655271563875629
0,0672444625382797
0,0634345365036314
0,0653695309737383
0,0679718281206492
0,0680509889642273
0,0644992446762702
0,0636671147596043
0,063398937756949
0,0640326603018028
0,0651076553973623
0,0689454675460088
0,0649106297283848
0,0643528349751526
0,0615222489185399
0,063438605113699
0,0647693522126684
0,0629539773766257
0,0632833928820151
0,0606742067804016
0,0611396938629447
0,0636499818543978
0,0628366086071434
0,0636709014904777
0,062837995565311
0,061370450111199
0,061576985254191
0,0645315398397414
0,0621628348522383
0,0620893244693729
0,0624586383818749
0,06118284633033
0,0620162638419283
0,0639542320936352
0,0630601623413163
0,0565413351876285
0,0614038660071893
0,0580485240318042
0,0591889609433088
0,0579516405228424
0,0590520452290072
0,0612557484759025
0,0589641075413748
0,0571532816343209
0,0589122165887047
0,0596749099910546
0,058185522688929
0,0577814071124318
0,057571212245257
0,0579807140368801
0,0584082512811242
0,0608436636997565
0,0579329927526453
0,0591443543664809
0,0583493720079082
0,0586526783724986
0,0590170238290752
0,054729871991934
0,0583931338494656
0,0549615234222815
0,0593355081165947
0,0559865346723734
0,0562181337519212
0,05509932974048
0,0581676001465289
0,0538080996184622
0,0579189641592224
0,0551954246924103
0,0549719377083121
0,0578107018132935
0,0576030519743931
0,0567593865294313
0,0543249486254992
0,0560186402804098
0,0571750985645799
0,0560692077201261
0,0569767076851845
0,0527361274713709
0,0556146036439853
0,0539333733260355
0,0557018414925165
0,054116170065822
0,0525006824563939
0,0529715233582991
0,055902306857409
0,0504059944312435
0,0559190892004467
0,0550775941585551
0,053727324074438
0,056727027790218
0,0547548557719095
0,0531849233295279
0,0537813085373417
0,0542590718807171
0,0529052427622168
0,0556555761903142
0,0553033648514569
0,0539887549628411
0,0549346001930054
0,0529550600203751
0,0515743216556641
0,053839798643077
0,0535368475443297
0,0537533997018928
0,0553186297151323
0,0536818135605655
0,0542909773893894
0,0518271165130965
0,0527803385439308
0,0531412704386835
0,0512709939175187
0,0516648832094019
0,054107517991628
0,0516477603704708
0,0524321049172074
0,0517329043285302
0,0503420719333966
0,0480773740592947
0,0493394950959939
0,0549090835517884
0,0526502367497326
0,0526717533548424
0,053273149547707
0,051542978006187
0,0554448526966943
0,0500682538493971
0,0497810631975217
0,0482827778947087
0,0492054766436957
0,0514935567858685
0,052198451520263
0,0510204637734598
0,0513941667559935
0,049169437775044
0,0531127091285112
0,0527809277093148
0,0506586577032923
0,0525351672885591
0,0537033008842971
0,0514649744354397
0,0489260473242383
0,0489599600280749
0,052765251678768
0,0488944541478208
0,0512152903483155
0,0518683344450972
0,0537330261788962
0,0510578042932672
0,050084029268018
0,0517592295668394
0,0490426333273854
0,0492911094601101
0,052671915719097
0,0548430650872791
0,0514615325158873
0,0515498108090148
0,049412470646594
0,0506332113950902
0,0502156768697467
0,0511347041327656
0,0512561479011572
0,0526402467426171
0,0504292912319249
0,049835226442302
0,0508462142530872
0,051989741879865
0,0495742840800514
0,0496076971661262
0,0534924705832529
0,0500230693692375
0,051457481772501
0,0513343265860023
0,0529773042497297
0,0490258221926122
0,0491106451087056
0,049020648163513
0,0498874123991921
0,0505089047411748
0,050826249270831
0,0526090465839639
0,051415906720355
0,0505297872226079
0,0526181705906597
0,0524690104197276
0,0520800163212867
0,052195751334551
0,0496834172091328
0,0521528036543419
0,054403882009946
0,0503111620837712
0,0510030022068705
0,0492738933197728
0,0529488297267289
0,0513301128211238
0,0508580758847807
0,0515084835971007
0,0495024168203436
0,0534934315368475
0,0508412504917176
0,0530639237920386
0,0513528385424815
0,0519660830397401
0,0533233824826279
0,0504977163446223
0,0537042893141576
0,0498903164332749
0,0511747141283214
0,0504886213459075
0,0543644675706055
0,0518008220050208
0,0502025262975422
0,0523078017672357
0,0527005090304487
0,0525332677762221
0,0531418613992968
0,0524527582690328
0,0529976735904259
0,0520648394678841
0,0531803985323571
0,0548015665408328
0,0542514337216534
0,0519368051820596
0,0538509124252684
0,0528767766187706
0,0520360722790173
0,0493560285970164
0,0518164096253846
0,0505504922784905
0,0537732283095037
0,0539812803774063
0,0501261362687783
0,0504653332155479
0,0520658466497119
0,052619866556011
0,0499643722678412
0,0535158013490531
0,0506959925068438
0,0524507966358244
0,0558996479521713
0,0525122963488795
0,0547612285798618
0,0542896101290404
0,0539368454590787
0,0540806151276152
0,0501497857349943
0,0506241233751392
0,0543553907219595
0,05172523378171
0,0537552268404151
0,0526849419516485
0,0534455479200745
0,0531758158170523
0,0541267098688723
0,0527704725087745
0,0548333413601928
0,0525834690686309
0,0532189882075597
0,0516457810592363
0,053684904928141
0,0536663323187853
0,0551563093910245
0,0516272981680648
0,0540253633784264
0,0548084079975131
0,0536842040718273
0,0537905108769461
0,0534644915133949
0,0534975248413556
0,0553458644060172
0,0542651140476957
0,0527727458513543
0,0532976899348901
0,0548693392441728
0,0545768085091725
0,0550787664926785
0,053416863135085
0,0558509608036132
0,0540876017020563
0,0559941377954866
0,0542455666307373
0,0548249840839941
0,0546149221352972
0,0557463349453799
0,0565692648604461
0,056054410343497
0,0547854171697953
0,0586540968659933
0,0540805253688083
0,054478087534201
0,0540491637827493
0,0548171464021405
0,0559012662623465
0,0552335447702236
0,0558415153377689
0,0558217872596482
0,0527477273949837
0,0561522190569999
0,0561948648463924
0,0570832359093473
0,0562710130365124
0,0563258848792153
0,0545449234560514
0,0568119836387601
0,0567864166637006
0,0555630113552019
0,0590265224393636
0,0568631477038559
0,0564483574848334
0,0576031146897327
0,0583179250481596
0,0574053490102056
0,0559438058993443
0,0579080831602898
0,0557478138274763
0,0566190699175895
0,0571325712271151
0,0561023274375185
0,0563820354663433
0,0564892217357684
0,0579434357269572
0,057677129348368
0,0587828584736523
0,0564692587742098
0,0575569631787764
0,0606955729671885
0,0583637451966834
0,0560795405903697
0,0570109445402197
0,0561393293344103
0,0592414061936913
0,0579582063418475
0,0572660218821536
0,0579143340892472
0,057229031649089
0,0585783800413741
0,0587310713727612
0,0576051281332335
0,0601712194747053
0,0593761671783643
0,0591477819753613
0,0586244882787077
0,0602764957171544
0,0609390514238061
0,0587831062585267
0,0601353281395393
0,0579956741369146
0,0600274617452175
0,0606317186060605
0,0585028489303926
0,0577626202082143
0,0588109106085946
0,0603615666661903
0,0620521197956446
0,0577604229012532
0,0604884227764634
0,0617554804080043
0,0604678163722068
0,061856881207538
0,0615244157456895
0,0615543326329663
0,0584540707289621
0,0610817792253336
0,0629856634789951
0,061361441854599
0,060976492417668
0,0605663910239292
0,0590475677126298
0,0618725700003308
0,0648922450567384
0,0608663752540922
0,0612776587593795
0,0634130290904474
0,0613160647978227
0,059049828543334
0,0623225460857132
0,0617411190721038
0,0612481342299611
0,0608589438196387
0,0629987051331219
0,0618501669954715
0,0638703995139681
0,0629434067647634
0,0621503445536919
0,0637094423902258
0,0629130625300242
0,0641399279186156
0,0629822748238822
0,0622777667592704
0,0649397679810152
0,0635278205711147
0,0656751129835459
0,0631307165238081
0,0656092260337018
0,0642612239505251
0,064701920556804
0,0627991280775523
0,0629656633895884
0,063227662638104
0,0651388699202731
0,0634959889141047
0,0644760077072241
0,0658321344883902
0,0626240194647595
0,0635138527934279
0,0642521279231479
0,0643746048650859
0,066265738929287
0,0636397100877139
0,0681376326828778
0,0651844469237087
0,0674050601429266
0,0652758979687905
0,0652071008105467
0,0650952037381029
0,0644374109375089
0,066375466347561
0,0656221370016832
0,0654833017439884
0,0681169060599706
0,0662503289878398
0,0688490074454295
0,0653397188282759
0,0680099127403325
0,0697754471749463
0,0649171760257067
0,064762169895533
0,0695326327209004
0,0646476543262025
0,0688102562366331
0,0668434503334058
0,0681191226377479
0,0673675111432201
0,0692742306004395
0,0668488487865849
0,0660192811907387
0,0679182312604687
0,0675595245984543
0,0678038597810805
0,0693567669299959
0,0665543473054275
0,0699393616774038
0,0682277256421872
0,0689504156393676
0,0646509215987194
0,0691274493090749
0,0700679807902421
0,0726804082302495
0,0670952772172214
0,0726745777092407
0,0685986883038467
0,0718508534253352
0,0683544758809755
0,0773193753560801
0,0652624849095013
0,0739288634794242
0,0694811281891
0,0730474114673938
0,0682015051826563
0,0781040256155894
0,0711946758288779
0,0754610788638794
0,0682449708215667
0,0761046587555546
0,0708808799722494
0,0779344331092042
0,0705587701267263
0,0737108867202689
0,0719234381382522
0,0760165097395244
0,0745203191321321
0,0736720251049722
0,0752022614145305
0,0701794209436138
0,074174400504589
0,0700221718895904
0,07441345031921
0,0759275552278383
0,0744771355818457
0,0749067409736698
0,0723911218453373
0,0748680521413543
0,0764595063487281
0,0753909774729963
0,0764425056616664
0,0794733089395115
0,0761584519432091
0,0756071698778048
0,076973775843008
0,0758449228749024
0,0754528803011168
0,0772582956623403
0,0769852240036771
0,0768483571273326
0,0790587169353677
0,0776275510316181
0,0782179676950513
0,0790843549868288
0,0756608739080773
0,0763785230855975
0,079043641628453
0,0802015155529127
0,0786035209469751
0,0803187430641836
0,080766776017039
0,0808767426543456
0,0804709862942307
0,0800789923331583
0,0811935047679373
0,078307832107144
0,0796701754934231
0,080016874784586
0,0807219426624359
0,0831908229679993
0,0819604225393642
0,0824212010349784
0,0821998153875686
0,0828740110328476
0,0808252743743218
0,0800503346032955
0,0808672301888909
0,0813954893804333
0,0814872026012997
0,0819021259228406
0,0852552175701323
0,0813730405859168
0,0830153357393315
0,083518167925272
0,0830660485104774
0,0830900599388119
0,0827957662361543
0,0847705786455895
0,0862748077681028
0,0839108916170344
0,0832714649195181
0,085005362117982
0,0874330945947929
0,0852469532172506
0,0849320751580124
0,0851228150591164
0,0869223472727765
0,0868565155965538
0,08555107560681
0,0868217093438921
0,0881157943368977
0,0871036817975821
0,0880034378853129
0,0860072896633659
0,0890684023944885
0,0871521585779256
0,0851954909052607
0,0874654834462501
0,0884712272739961
0,0892196054058538
0,089499082148037
0,0880114822651995
0,089317942055603
0,0896619733475384
0,0898981561751158
0,0897833283665881
0,0897688130007091
0,0914029999627623
0,0891584178381978
0,091566508368008
0,0910520348467528
0,0915114037682736
0,0921380563784883
0,0916596004332104
0,0916125411355224
0,0912438848873952
0,0917027888259674
0,0930441000167131
0,0938995417143607
0,0931613798098612
0,0929869291881732
0,0932440893853679
0,092294105538376
0,092993842228314
0,0924133573540507
0,0932161712173644
0,0943245325249609
0,0945247450907055
0,0949955702112735
0,0946575325156218
0,0965372967972293
0,0968172223373371
0,0960579952137788
0,0963244699784251
0,0971876660110958
0,0969396905920505
0,096574615591254
0,0958776588720837
0,096410709587927
0,0984436112719431
0,0968356509693261
0,0984998116747269
0,0988187559546557
0,0961810526280519
0,0968491006397188
0,0984862125367248
0,0995959461431699
0,0978394160193862
0,0975029453581959
0,0984484925269591
0,0981755979392312
0,100089080331895
0,0978698618207749
0,0996532056910892
0,0990764687637491
0,100407264829552
0,102860623791099
0,101206421472685
0,0997138090654852
0,101124293635451
0,101041460106905
0,10129038200581
0,101872831006443
0,10009284674537
0,103159512816792
0,1034383321086
0,1025817400953
0,10103038647441
0,10089013869126
0,103654003096179
0,102816516820975
0,10506141150002
0,104379726225946
0,102628538525183
0,105339341854997
0,106360460495469
0,103149212061721
0,103093274263101
0,104596987011331
0,103737534165552
0,102961137844148
0,105552094599241
0,102809295523477
0,102524696246181
0,105876428940489
0,105817119665876
0,107036142919141
0,107737408405224
0,106223556664061
0,105257715327587
0,104854292003014
0,106869611881023
0,107215027238086
0,106634448385345
0,107573039913661
0,105724034686562
0,106364974290822
0,109383928223538
0,105150609503046
0,105096741337744
0,10782541582994
0,108618299074818
0,104385564400181
0,106173867771807
0,10757943097417
0,107605478293428
0,107087396588409
0,107921136920123
0,104356125164192
0,10652587830335
0,109168831248906
0,109354327026078
0,108127706793104
0,105151206812979
0,106263802032523
0,107885553135221
0,108303708668275
0,106067054656568
0,107319653117297
0,108467644817988
0,10905686016647
0,108667326559222
0,108068637548518
0,105075916418035
0,108245734853304
0,109889740316564
0,10906757177086
0,108158309963327
0,105953216929304
0,109371757640719
0,107450896192357
0,106750790831775
0,108340342649187
0,10710149605609
0,107673667747645
0,109288075610119
0,108634954849219
0,108262421218805
0,106962912167777
0,110734029485554
0,107156499969113
0,105133188369892
0,109440074645287
0,109240514466154
0,105685214342482
0,108669180751076
0,109153985697867
0,107385441093668
0,106094916971703
0,107184001373207
0,106485395886372
0,10569737412505
0,106190180016448
0,107240484314104
0,107594301562277
0,108256010647481
0,108588842695161
0,107404834171413
0,105157816110776
0,106783067583285
0,105402528799942
0,108953304515788
0,106912276088673
0,105845851680634
0,108696626023787
0,105611882422787
0,10538943885062
0,105435573001233
0,105816064326163
0,105268526985245
0,104213168913625
0,104465933061831
0,103620660018635
0,104494363405515
0,103714005464241
0,105164265514132
0,10263267288679
0,10480738396644
0,10513641653124
0,104070422536663
0,105630843425055
0,103022169208213
0,103608871195618
0,102658172958619
0,103618766786411
0,102332588275608
0,104190920901702
0,102875231796366
0,101919513400663
0,103833983647586
0,100921550002014
0,102390672571272
0,102370115985931
0,102701030691127
0,101393247949324
0,102468081645957
0,100431322649078
0,101158301980328
0,102179387973459
0,100278689457362
0,100018104081515
0,0996863875988018
0,0988221242993419
0,0984136035566089
0,0992203497544965
0,0984697489454487
0,0994716829926401
0,101350596242142
0,098257966818135
0,0986980644498679
0,0981507874662228
0,0996894451339914
0,0981002686611324
0,0957496803258946
0,0974050478697707
0,0957568793766415
0,0965926627723457
0,097005158706063
0,096739768490271
0,095965406031532
0,0970872264750116
0,0959954309055031
0,0973435099070102
0,0975419125799389
0,0927632997286957
0,0936126415765277
0,0940958390869782
0,0944433704385728
0,0953207569457173
0,0933750928128474
0,094201604417147
0,0951465610731607
0,0964671833127654
0,093923991912065
0,0902110123477191
0,0915438173718058
0,0928250563457204
0,0912757886913826
0,0897876086542704
0,0912860329831939
0,090700491799818
0,092254584315879
0,0928508892405986
0,0893244942038228
0,0896286669387897
0,0891021758530201
0,0909580787151779
0,0921350449392665
0,0881887485201458
0,088838804179001
0,0893759581830547
0,0889489074016789
0,0868379001335274
0,0876275273586018
0,0882964715710264
0,0882331063164644
0,0863831472945061
0,0869815539905231
0,0856964351892764
0,0863363956394143
0,0873889830985548
0,087291444756491
0,0846757449422218
0,0853826166602955
0,0840760172652103
0,0845663228147086
0,085395752513852
0,0858664277476473
0,0838837828668059
0,0823233731487848
0,0836538333818223
0,0841273708188931
0,0824488651386032
0,0846862762326584
0,0837810642528252
0,0831140599098094
0,0825581996367143
0,0826652039816767
0,080719187306116
0,0822043895476205
0,0803089912528152
0,080674587894388
0,0819138145244199
0,0821771043358088
0,0822133945967724
0,0820895384482885
0,0802089087709647
0,0809920410024384
0,0821730198887193
0,0784164286529039
0,0782132238691836
0,0816728965244951
0,078316033217473
0,0786640371316136
0,0802560712036671
0,0796460735257279
0,0780343557808928
0,0772308690740264
0,0783162755545237
0,078225404515801
0,0779728440545624
0,0783405320544672
0,078203146560125
0,0766909654332889
0,0757607000629189
0,0767238725591418
0,0762407372375563
0,0767409002884514
0,0759880584904911
0,0744941359658658
0,075503899131066
0,0765919148481087
0,0749315533359437
0,0746387509660129
0,0760684766649527
0,0769039913205612
0,0767410367926882
0,0740539795657786
0,0727427213808895
0,075292920218994
0,0748918012950056
0,0748472167175779
0,0733601782927069
0,072786264775057
0,0739070042958173
0,0719109568055967
0,0720479124866617
0,0736590348958048
0,0728219427529336
0,0719136132587533
0,0729035911388775
0,0713345793792945
0,0711667102771323
0,0709987054491459
0,0727571825030508
0,0714421067756244
0,0699538415695069
0,0714112611238371
0,0721159400970735
0,07189918034513
0,0730976751797978
0,0693994544954945
0,0720524389733602
0,0689149375270703
0,0656282905545657
0,0706243277585397
0,070668100215346
0,0687698690032207
0,0694144189247635
0,0698589055860706
0,0678889670190133
0,0696287778024014
0,0680265184428054
0,0703631996303769
0,0699423347584903
0,0691008506642309
0,0693013420290583
0,069767027353462
0,0695815738162867
0,0684006649937063
0,0682428570502588
0,0698897058203625
0,0705771120942131
0,0687239418003501
0,0686517530693904
0,0686861330872886
0,0681806581477875
0,0675041729354544
0,0669947123778395
0,0683415894940866
0,0685689843914995
0,0672708626711241
0,0656540571579064
0,0694084878306374
0,0669971555764416
0,0670854889198864
0,0655362652994998
0,0655877197541107
0,0660125841936852
0,0678794166509141
0,0664945700793686
0,0673668507523255
0,0682335187351087
0,06647835483879
0,0686830479354435
0,068103408873732
0,0694084701033658
0,0679158056300051
0,0658013905030593
0,0673072981691514
0,0656679046340242
0,0657961016557334
0,068798611961961
0,0674569739007768
0,0667841503370311
0,064659511673818
0,0651806187180608
0,0682995737096878
0,0666186038708722
0,0664290399867251
0,0650618156559964
0,0682086257947293
0,0669692090661031
0,0672015878086004
0,0676205965996423
0,0684546237343624
0,0678767420275426
0,0678110596851496
0,0663286179599394
0,068632693864201
0,067568940926408
0,066686071410307
0,0657452445270332
0,0686866341430984
0,0661637576524713
0,0659160299155854
0,0666005253527158
0,068573561333517
0,0640731994649992
0,0664475553710696
0,0660340449520739
0,0689073425717503
0,0696503790186682
0,068947033290969
0,0700873278605693
0,069310716951665
0,0696185739445012
0,0677216088946384
0,0680231654232509
0,0668210387117795
0,0668311227411094
0,0684523269529221
0,0687248012690173
0,0669604751841278
0,0682387864677397
0,0660836621829254
0,0636317966190974
0,0695106070078942
0,0687402526863081
0,0699450398866299
0,0695643483730968
0,068419255463892
0,0718212055182456
0,0687110832639634
0,0696798812484122
0,0706028348504925
0,0696103006602684
0,0710078852372079
0,0702677392700425
0,0716739288922664
0,0726699230533588
0,0721592452165736
0,0699188366690215
0,0710029465747248
0,0725698526664133
0,0718199793911856
0,07134041381329
0,0730373053802265
0,0717706690852989
0,071255714337585
0,0707265688065985
0,0725768568028728
0,0718404539007097
0,0713236212703603
0,0723054071614214
0,0715359492869134
0,0719602708454477
0,0759945836977746
0,0748637773682021
0,0750185212006874
0,0769949112671218
0,0753624728435552
0,0745648832637952
0,0751843146811936
0,0763297267071374
0,0753211851879444
0,0763452856066499
0,0811730716525618
0,0766286797566567
0,0810672430173749
0,0768039416495109
0,0777527871685644
0,0773452782615363
0,0807808519728608
0,0792623144739155
0,079942282210585
0,0811487469389349
0,0808264918003686
0,0797463605198324
0,0846182693720656
0,0845316152538331
0,0818146523829709
0,0833687990114586
0,0848925056196292
0,0841055282170225
0,0864678247810521
0,0864987966055111
0,0831333616849222
0,0880327709733272
0,0882244483988145
0,0872297924988034
0,0893237529474472
0,0868506791604061
0,093273867859747
0,0904376847915769
0,0920238542676603
0,0913128004586903
0,0921768733151773
0,0933727800009334
0,0906566039828202
0,0961047128103091
0,0969093962555003
0,0953820991208771
0,0967744929122683
0,0964489058875945
0,100321196569901
0,0988224795020105
0,0991313372552141
0,102087812522562
0,102527543617653
0,0989004421979118
0,106462499826218
0,104657044380109
0,104600078775098
0,109198046541536
0,107394725839531
0,111064652382125
0,111692192318607
0,112959002430621
0,112155028992862
0,114489542619562
0,115578037816724
0,115522675475722
0,117953975691538
0,125805029253499
0,120083671859155
0,123353531740987
0,121663427138229
0,123108399704298
0,12740522439606
0,13402179792676
0,132836282064292
0,130773690600922
0,133525167035146
0,137415757277898
0,136038470359016
0,142495702711166
0,143871279829821
0,143823748364628
0,145875300174907
0,148262180020452
0,156288132854894
0,154983823461115
0,154152490681588
0,159025447697903
0,158408176839948
0,163784239158931
0,171206585291798
0,172757786783532
0,169080796524424
0,176226489408223
0,179941075937004
0,182544760336402
0,184991979628572
0,186434448630256
0,193026841830495
0,195266453983109
0,198170504786774
0,199286887412085
0,206652570710062
0,212340908473485
0,211822070554132
0,220482702537606
0,217106610208132
0,222703753275913
0,221069771414974
0,26205789738352
0,241894407732028
0,241305950988334
0,244422627081661
0,243877905699289
0,268064430445638
0,260216477032055
0,261274264148232
0,268574598937864
0,27558896045668
0,280557220130451
0,287939208727184
0,291306928136179
0,294969695592005
0,303053572862811
0,305933764920994
0,307682877226709
0,326760788418219
0,3294818714345
0,331934622565393
0,333038571275215
0,343104289160245
0,347570509152695
0,349762593589706
0,357755503670038
0,36355370976047
0,365006675144316
0,388506559518486
0,382476696529065
0,389930813860984
0,392443672470667
0,406284517088784
0,403260370077392
0,421815103790244
0,422947002750852
0,419413180242865
0,428117827495298
0,43143116718661
0,444412298725303
0,433511180562612
0,453058739285948
0,467931178790066
0,463941446713672
0,476952754549399
0,476030329371176
0,483110363287086
0,490950725206895
0,495220744866955
0,502675322834692
0,512974136588795
0,517925880337974
0,555772143145802
0,536974530718827
0,52545878831979
0,530769190881032
0,528398490816154
0,542366200791964
0,545407888282585
0,555443601897154
0,56335084804935
0,5504581006595
0,551449398962302
0,55983503418952
0,570986914413191
0,571415246940942
0,574037142639169
0,566260105011919
0,585309231349503
0,582367261870079
0,572616750921335
0,59745760856678
0,570235119121755
0,56868355622984
0,569164795745815
0,574998080286033
0,569584897537732
0,565888110506381
0,5669217776701
0,568648020783834
0,55882740954503
0,551469788754757
0,550389577227009
0,558230197214761
0,547325582262975
0,531761173533255
0,519317349947436
0,510737939301136
0,508372532516915
0,499768442113003
0,518352573316265
0,528821912461772
0,495379632581885
0,483166811892004
0,474983078475637
0,471365979662433
0,463502523340374
0,452471639222103
0,451940728881338
0,451366955925385
0,436746644546723
0,431029814604541
0,429370204051643
0,42629618691774
0,416083243282148
0,410302452482858
0,405979408540185
0,394979235699894
0,388711408520226
0,386231009460854
0,380503461013118
0,374328784808285
0,369860009172428
0,363784719644351
0,362161862346711
0,358509961979734
0,3507046477599
0,345441091763171
0,340439246731155
0,340477485016704
0,335944042329952
0,328265886001712
0,325094541098033
0,324469438690051
0,322511914638028
0,315305508544201
0,311611136365615
0,309538015304189
0,303449970236643
0,299152315713167
0,299203039935695
0,296089425013751
0,292330200579078
0,288069134318976
0,304906195493597
0,292146171794942
0,281775358221161
0,282946294701566
0,276710620636859
0,279810698606485
0,273983108808271
0,27992144411554
0,280979043348933
0,273832705591616
0,268059872138451
0,261676799642701
0,261652724482395
0,265999911172316
0,261692615770447
0,258416180619991
0,251412348303468
0,248356709485054
0,260114625790059
0,258402228347397
0,269293553397277
0,251250623646952
0,245683126667953
0,248525649034073
0,25518064748591
0,244575171382564
0,243735890803371
0,238688115594576
0,241918843897078
0,241034270854897
0,235982996598767
0,236377518548666
0,232617135988055
0,230248937508647
0,233676498950869
0,230024979454253
0,22702534730829
0,240024708597485
0,228186475665032
0,230114280987705
0,239033231160517
0,223885309615489
0,222672359026367
0,223081696221474
0,220319318313806
0,216127940283832
0,226840698001482
0,221630982841148
0,219499041576591
0,218327233583415
0,214658247623062
0,21708333899349
0,218254771751511
0,21706720593098
0,210046513818537
0,217644223136404
0,213793550376598
0,211103125492511
0,208676710743332
0,213008530927115
0,21657753722091
0,209516137369588
0,206768744177264
0,206887006937063
0,210547347325483
0,207388491133026
0,207389401176954
0,20415044500186
0,203850792588642
0,206679923724666
0,202497376536982
0,202224026516434
0,204396291205347
0,198561252266527
0,203348433052119
0,207183162968891
0,206072350376415
0,201896251321102
0,196330950352108
0,196035380803027
0,198547701663682
0,19904307952221
0,194611597309009
0,196120599467158
0,196645038696372
0,190982800422201
0,202830548113323
0,192826398250194
0,18948084540504
0,193615580745349
0,194256050984296
0,192033359386564
0,194492318715384
0,19691092070676
0,194397140101667
0,191746349370255
0,194259788751887
0,191531944101034
0,191709164124586
0,189278011944529
0,190780163216885
0,189381201257804
0,193956962884655
0,192788821350384
0,191852937964408
0,191715112002775
0,186771952271833
0,188219344219746
0,196586677151109
0,187669362927057
0,193809935906831
0,191472325512497
0,196576186892136
0,194783765493531
0,190510540803926
0,191845053595448
0,187672378566214
0,191461268380479
0,192423454637837
0,187823677072685
0,192730729608371
0,187660316681391
0,190501447530032
0,191794882930215
0,192523308940854
0,189829370144245
0,192291386838137
0,194360668620291
0,199018237239437
0,196481683049234
0,190905781701724
0,192299554626632
0,187973286793597
0,19209229978679
0,192712090097369
0,190441724712094
0,190490069094644
0,189676513554748
0,194958251138742
0,191248277508506
0,189360987214808
0,190812736084829
0,18965357782064
0,188489077033322
0,189490445213256
0,189504577418897
0,189488685541695
0,187621410824336
0,187370435713381
0,187915755469123
0,20041828290759
0,192162802745976
0,188793380900122
0,189083205230925
0,188335594185003
0,190260475074513
0,18749899269065
0,188542381836392
0,191835143165405
0,189371520295545
0,189579549935952
0,189246209970701
0,186862359283636
0,185600235121084
0,188139925616875
0,188950768365574
0,189235448220781
0,18809742999844
0,188296336548204
0,194766179523984
0,188559512505603
0,18877314491773
0,186452992101815
0,187959675921096
0,187155412490006
0,189344474827594
0,188584211359106
0,188084806997047
0,18786554634354
0,187055392762124
0,188342379016528
0,189171319777994
0,188390825056063
0,187086157591794
0,18934295491562
0,190628562507741
0,187559473299102
0,188111666242031
0,18798667434199
0,186881833285412
0,193136928482877
0,191175614514637
0,185805663352649
0,186818810147873
0,185496696932231
0,189810438916379
0,190383392167588
0,186684920455648
0,188571473047856
0,189487689515103
0,186780783431719
0,1861361760297
0,1843997783833
0,187098384268481
0,184443403814383
0,184795100713903
0,187416454682657
0,188159122642397
0,18568236013214
0,186447916881195
0,18793425240101
0,188335229371176
0,187523683957566
0,18807251862996
0,186817762707083
0,18753512566355
0,189022613048345
0,186721348464861
0,189560418525344
0,188308127582019
0,185700844618845
0,186686677944804
0,186183828549417
0,187453808155609
0,18651695596368
0,185264691625668
0,18634602859319
0,18782881968758
0,18451230771945
0,187494721877631
0,185233545827846
0,183766643529054
0,184748568187997
0,185107439810871
0,187132175463438
0,1832844430888
0,182119986996638
0,183514425662097
0,186349517337307
0,18393783856296
0,183246670946491
0,183788792753157
0,183581258948415
0,184910689944961
0,183434243792376
0,182958801798613
0,183051230447016
0,179884048245905
0,182558204831947
0,186113551408076
0,182306654388823
0,182959253485626
0,183002903834682
0,182250912986703
0,181743701746012
0,182084672458789
0,184161177302268
0,182035788320341
0,18250364307507
0,1813322798826
0,183173581791608
0,182180876223167
0,180267593738599
0,181979639195842
0,182545823768623
0,182692235135411
0,182016534759698
0,180681510358936
0,181344533514477
0,181473447100584
0,180091534242979
0,180408648348077
0,184541981368304
0,182252902330642
0,180842895225647
0,180595150621745
0,18183343751257
0,184511170964486
0,182211616607623
0,180653094645342
0,181450059831291
0,179387852960226
0,179894726391119
0,181135917517653
0,179148052719375
0,180109295598394
0,181060713616195
0,179915253661923
0,180046721439792
0,182243674204309
0,181984536858589
0,1806126249886
0,178174747517896
0,18032054327378
0,18037169866933
0,178512975789023
0,180546281425388
0,178195818422649
0,177078637266304
0,178329408078479
0,179406819931964
0,177442204821315
0,178667189659131
0,180155074760366
0,175873771244595
0,176956376632416
0,177847225221031
0,177547301044439
0,17706522572066
0,178168070495494
0,179016219774139
0,178231792269656
0,17804045814891
0,180270928694498
0,178066234441125
0,177467897469528
0,17808512044328
0,177527896849373
0,178084138324539
0,178733961412491
0,178307666178977
0,177209858937935
0,179243693486975
0,177360947608466
0,176689570179822
0,179156825897176
0,177076668881206
0,176126005186263
0,178507055528339
0,177825116788536
0,177140075901737
0,179019839778076
0,179344147920976
0,177128031829728
0,177771777000365
0,17843000888646
0,177786347082181
0,178812811744639
0,178572316717089
0,178688637733647
0,178060515329085
0,176507485384545
0,178605064647852
0,179865936405281
0,177026422412392
0,177693243542301
0,177896036106055
0,177845571841803
0,17824438883576
0,176656918762717
0,177076788872096
0,177493072837798
0,177701581941769
0,177687283555172
0,178434070099142
0,177219068684398
0,178165231653379
0,177946764423005
0,177196166567857
0,178799513774881
0,177225892121096
0,177379384987454
0,176379588132958
0,177175219138324
0,175727590642619
0,177083036799986
0,17615223409864
0,175868251035531
0,177004363079899
0,176133485686451
0,176174154914161
0,175228511585144
0,175042838223382
0,175136248960825
0,17328999451309
0,174634888828575
0,177787574561987
0,177949393386672
0,17584082294258
0,174942227722341
0,175331221565996
0,173989598731641
0,172502859910721
0,174861141970507
0,174497710554311
0,17433465852474
0,174125413828573
0,172537151662882
0,173790814615423
0,174612634980752
0,173876831525824
0,172867900677564
0,171646143221652
0,172338153279549
0,173889404578445
0,172851512084814
0,170875095462596
0,172773421008271
0,172391391652875
0,171180745334199
0,171968605102279
0,171622331036082
0,171826521494691
0,173048373617589
0,172529410989986
0,172772997636384
0,171255826145768
0,170575473218461
0,171934350238841
0,170438812352057
0,170342498310095
0,170247805060555
0,169892972280796
0,169995148296443
0,170140019684111
0,170359977960799
0,169980227598186
0,170280195349462
0,170422698512826
0,16962571437202
0,170099546475814
0,170835977918033
0,169818833780318
0,170167122693516
0,169643947342254
0,171864374816358
0,172820813533667
0,173097850430601
0,172847240792343
0,171719705194792
0,172387645750116
0,172577335172938
0,174502377808675
0,175033691101635
0,174244636060334
0,175652683129266
0,177915370897589
0,178965364686108
0,180835552856529
0,180393098396172
0,182297927191229
0,181531886079215
0,182739581906509
0,184263304608309
0,185021354112482
0,186242434183957
0,186503479223876
0,187023667109223
0,187753996956947
0,187437049055559
0,186631885687069
0,186480283871213
0,18865945785998
0,191220975572755
0,189485312584597
0,186969600343154
0,187690275460272
0,187125532448449
0,187665128531858
0,18709642589279
0,185397809216179
0,185799965821589
0,185675642533843
0,18578661209443
0,18515988549735
0,186108151255855
0,185491297265387
0,185905036706176
0,186423454798676
0,186158556560545
0,185157638580516
0,185337004862668
0,185891523231019
0,186078981646466
0,18629394132312
0,187263688607445
0,186976339026418
0,187455577513837
0,187846316299195
0,18941974198205
0,190794910188099
0,189603876732475
0,190221366661637
0,192261958596411
0,191105453856843
0,19480626725634
0,196501484130508
0,19755406078663
0,19520370033579
0,195748160149871
0,200168496868065
0,198527948810297
0,196224382458985
0,198500907667413
0,198853219684399
0,196685187170502
0,195345471706652
0,19583332544138
0,196507994044467
0,196420696467737
0,195486310262667
0,196226704248557
0,195498307357185
0,194527739196448
0,194227997241983
0,195467415150252
0,19610191615149
0,196829971049913
0,19932384126207
0,201243549000922
0,199977652107255
0,200247741255033
0,203949806844466
0,204238164280838
0,204118933026094
0,202995975265199
0,205874071457185
0,207511625227283
0,209541078945299
0,207930225149253
0,209384229679053
0,210759070020344
0,213017803812472
0,213439499126644
0,214308926527409
0,21433772156744
0,216092566227471
0,217911812420419
0,219695184310353
0,22040128380907
0,222580295524616
0,224316058027368
0,226052000953938
0,228669397248455
0,22606145276129
0,228711138505127
0,229867608641164
0,231736087133619
0,229552699472304
0,230492466377399
0,231681185298374
0,231003894106048
0,228257749564183
0,2288919970407
0,226829583101147
0,22379589785879
0,22662991132409
0,224037061194499
0,222929065411997
0,221956743051069
0,221852923896579
0,220965956201712
0,221110385542373
0,221694339744812
0,221816019570728
0,219590544945121
0,222703003685479
0,220414462522056
0,219856691733659
0,222585806263397
0,221018420324343
0,222569515965307
0,222487035361725
0,224569515116207
0,223229731192171
0,225362785597698
0,224666119057388
0,22688556527504
0,228157770369827
0,227717433252066
0,228207424276235
0,228585143270429
0,227245293297445
0,229960909654838
0,22815264551549
0,228775506191665
0,22954723274623
0,228082588401669
0,228897762900509
0,228955577564734
0,230291422297683
0,229989889114142
0,228467118797469
0,2291190449952
0,226917004119039
0,22843118129079
0,228613134960658
0,228022314811475
0,224228920315975
0,224577424322693
0,225005603968538
0,223224590337272
0,225505157345105
0,224495115182714
0,22211565231776
0,22232727956646
0,221236529122455
0,222759732954783
0,220702816134582
0,217978236211339
0,216961078480967
0,216885229036804
0,215073864179634
0,212829091808056
0,21213340909188
0,207365155156442
0,20952325443414
0,206201079916186
0,206494223543481
0,20551656726914
0,204280320052685
0,203644751200601
0,20657888612724
0,204338545694252
0,205037847300869
0,206500101038603
0,206527091858934
0,207029922383758
0,207262450350949
0,20926169717133
0,209993984833128
0,210452773037779
0,209890596241326
0,20984942458704
0,208725671351467
0,208611980976317
0,210793346117537
0,208521070811342
0,213126647031555
0,211254672971757
0,209434886821104
0,212527666040995
0,211758777076445
0,210955813784299
0,212352898038384
0,211302338900795
0,210669862388319
0,211413596215132
0,211845444881365
0,210637277196497
0,20854700771594
0,210412962200065
0,210707088072495
0,212231939481667
0,211580359134616
0,209733472524123
0,210437857547057
0,211908507509909
0,213074306900465
0,211103518480441
0,21241596340441
0,209426070428469
0,21410579524664
0,21508708598651
0,214782879021909
0,217650386052505
0,216235770861543
0,217542395559373
0,21299020754781
0,216874113625993
0,220898089665902
0,220028245540471
0,221606723898414
0,221509791682321
0,222515144166344
0,223162684126593
0,22387741803044
0,22616377204141
0,223711505457754
0,226367621529385
0,227569705389286
0,228991797340073
0,233807238181184
0,234738590990251
0,236215957645983
0,233543456960028
0,235854939160932
0,237838345447419
0,241818615050108
0,238614211950769
0,23906529846245
0,240842339091557
0,242945118114454
0,245225501733217
0,244072860072622
0,245054784233606
0,248927546180351
0,248073406546043
0,245664508279442
0,2491195027551
0,249656210904962
0,253972438602678
0,258251122112159
0,255669078510735
0,260842140269896
0,25908161634505
0,259768118205
0,264018700668072
0,265015810838841
0,266979231752816
0,270269743624248
0,26728996164878
0,272513932316998
0,269940858320686
0,27554168481372
0,278800933669974
0,281150308473067
0,280086605910022
0,280053691325275
0,278581795541792
0,281425274632931
0,288678698237968
0,291388259266234
0,29309147489716
0,292197235609327
0,291388354847345
0,296757761898433
0,29564598436629
0,305371642641319
0,303752371896901
0,302827111560584
0,304595518693667
0,310567157075072
0,30932293343093
0,314574073924744
0,313717600721901
0,314142329157587
0,318518914307407
0,330112655754953
0,328154406574337
0,329333206934929
0,330191721916643
0,332185181976627
0,333361442211175
0,342458231435669
0,337794180655429
0,342416756094876
0,340185073235131
0,344978076736847
0,349238285202145
0,35192298483858
0,353982199786167
0,354441842390164
0,359111044622063
0,357706312580518
0,359383981363195
0,366888072800848
0,36384906513423
0,369833486105757
0,371803240386396
0,373150574352302
0,380797480377827
0,384132232212458
0,38478798027566
0,385978690831456
0,390617705541642
0,397599082065445
0,393889662339871
0,392874917892209
0,398647928550796
0,401951476427496
0,401716080525443
0,408711815520752
0,407561495632951
0,413436458100471
0,416301853425555
0,420457021114671
0,41481954402489
0,425248065005175
0,422770264259034
0,432730986494141
0,431208339834418
0,435566877482902
0,433820539865499
0,436762701629257
0,446305097065606
0,451872409335685
0,450631594384222
0,460646547420628
0,461872786379562
0,46340220626141
0,458190441246003
0,459624705103635
0,461506719875218
0,474457128021434
0,479184513641534
0,488354037104726
0,48101148146492
0,487060965802881
0,495470088435022
0,49775562708836
0,489135915783899
0,513573925051054
0,504989899144594
0,493960216899372
0,513463395201261
0,511780041383919
0,503846437272618
0,522027882389895
0,521795568885397
0,517755469653812
0,513799054763343
0,527773023501205
0,523950388236303
0,539361458915923
0,531635504720392
0,536807448646718
0,540143939146048
0,561532961038522
0,546336843830899
0,567640302374447
0,542162529205639
0,548109225035721
0,565494631449505
0,5509641045379
0,562057845152695
0,580127578817482
0,582777102746835
0,57592135562805
0,575518380881741
0,587480424744373
0,578168887723202
0,589031776276957
0,598998298561444
0,592216985076676
0,593839528462337
0,622370203466038
0,633010270102483
0,624206032047223
0,617089294723246
0,631387156177404
0,611763827831997
0,626332448943422
0,647556722113151
0,665840933388205
0,630594071707842
0,623800526951127
0,649468416851336
0,679508422432413
0,658650076802073
0,647335875477681
0,624379770639406
0,682669083356099
0,679294760409805
0,692074561681261
0,678694965217931
0,681842166712451
0,625723996217712
0,695237464542142
0,714304137470897
0,693273157508484
0,698881293776894
0,689424105248056
0,689378261019836
0,737560579088268
0,721580932560416
0,714088568770402
0,740307490103793
0,724384163025634
0,7137342014609
0,752730712212005
0,72808608023071
0,739031666592359
0,753124525687402
0,739479115607142
0,734677442568579
0,73968577853617
0,711654042789987
0,792056435845006
0,781076558440032
0,772184362528624
0,741932072289548
0,810630753841116
0,725479713184575
0,7344491638488
0,767888029187799
0,824579097853723
0,75956576467401
0,855642273702968
0,741391787365697
0,845224380454309
0,808267406557945
0,84791581033679
0,852231474691837
0,833627538335879
0,881982785158347
0,852333906798341
0,796836822631408
0,882223959286399
0,818586363749702
0,854806780105204
0,839732783223783
0,799205477607345
0,797412782264142
0,904369307365013
0,852895380438653
0,948081775728591
0,841146976146073
0,971002245255943
0,869172703210267
0,897569825640779
0,832506538159727
0,845141140179084
0,849572453564783
0,856365908155711
0,835120674380202
0,825049414865312
0,9711618320244
0,847621830873501
0,867155477739874
0,974857270096928
0,892471248596141
0,914690527337727
0,893391966134721
0,900519472411588
0,876641567225524
1,00735113538645
0,933384387439509
1,16533674016047
0,867743316731349
0,973325454813462
0,943698905119739
1,02865601453502
0,851294638267916
0,942325916250293
0,999486360572577
1,09222354193979
0,890951387615354
0,907913982143545
0,837602709832114
1,0571216625137
1,00441556617942
1,25858130550218
0,946557156101625
0,98796745232804
0,952408772885164
0,957637291747091
0,912292325386284
0,950924193122804
1,09234663922724
1,18106279368217
0,917911239533668
1,32306786723023
0,875858577975687
0,848302472803205
0,928166056910922
0,952325319272659
1,27683520544806
1,71307558199875
1,11338498663456
0,983176350746631
0,851171964302481
1,19748382924615
0,787917222329582
1,02066333643324
1,02471693338751
1,11664410065641
1,01620730522237
0,983579074007727
1,07911696834655
5
1,06735057942843
1,1798558847444
0,895636335147664
0,879066086520249
0,726459970747522
1,09775781541719
0,858799949858438
1,95851485582
1,46162373524299
0,903023158627162
0,992603343830191
1,02959893494782
1,12382573651602
1,5177660975145
5
1,29899877375263
1,10124960484943
1,62716986804619
1,14762224195765
5
1,18950634023455
5
1,0062076601137
1,2093085016372
1,35065820825185
5
0,877416114988597
5
5
5
1,35305683094697
0,581571134350797
5
5
