3596
4000,36533379555
650,420452594757
1
2
2
0,0631028458753199
0,0565265004164875
0,0633810431224267
0,0558061654283524
0,0702964278182796
0,05960786898745
0,0652530178667161
0,056713642781355
0,0590427654943186
0,0493770306375452
0,0633541398721805
0,0555003927434424
0,0621362662218926
0,0485102606424351
0,0625595404313171
0,0552392702176217
0,0605576291490515
0,0470389912928859
0,0580301766742738
0,0573144287198312
0,0671185825729776
0,0532910048525593
0,0648196397770248
0,0548019063496007
0,0633952488133886
0,0566130160202951
0,063986515464388
0,0574758292880429
0,0688738585827479
0,0585739823663627
0,0576948132695841
0,051734500964049
0,0704946697113975
0,0605154730973513
0,063965252425297
0,0545741815316879
0,0590740514935353
0,0534922642814501
0,0610250901855621
0,0507978978954068
0,067169657476803
0,0529153793271701
0,0714321994011306
0,0515592517268393
0,065559574492477
0,0543458925555009
0,0684524100935596
0,05081641961379
0,0618928348323874
0,0531606599141477
0,0658785895340306
0,0487405161819694
0,0659709829516083
0,054594505387518
0,0615103763764501
0,0619975864370182
0,0599791399697298
0,0552363314181088
0,0604154304801705
0,0439692776829982
0,0724989755550575
0,068550407057768
0,0644835070606745
0,0599446287102221
0,0626738569188914
0,0580438449157332
0,0637992354542122
0,0485292593535146
0,058738872327591
0,0638669284044385
0,0588482846022399
0,0541575809024102
0,078753070953948
0,0564379555522394
0,0714998534970068
0,0583115408968917
0,0675809700042997
0,0522089881909482
0,0567557526143384
0,0519112259810542
0,0816682314437218
0,063008464372863
0,0684317850745587
0,0547129898370248
0,0667467383030558
0,065052909147502
0,0600089686087391
0,0542931020586641
0,0824768166661772
0,0553948392069084
0,0635745732093132
0,0522052539875371
0,0649978456223321
0,0537776948809156
0,0644764002047672
0,0553646018065475
0,0605244497073349
0,0527478908177651
0,0588354827604715
0,0487622268158034
0,059317260902037
0,0441988649937904
0,0972501699086282
0,0446364412713987
0,086573861028169
0,0611073751994262
0,0561019262742299
0,0880879208944134
0,0787236318620378
0,0582865984423848
0,0624806344558694
0,051811242114247
0,0579653077067955
0,0603425331584826
0,0523031403827666
0,0573095818795166
0,106274129411382
0,0550819046357542
0,0666209811327887
0,0539566656166664
0,0503920168775403
0,061912866067134
0,0980728814643559
0,0525114404809869
0,0682435871608666
0,0546580789774479
0,0543983777312408
0,0625176798668034
0,0896053020607463
0,0580584535501422
0,0593789164991427
0,0531391892989728
0,0576078406057301
0,0486208450465661
0,0955225029064873
0,0619628979557941
0,0582859043947073
0,0278277464032283
0,067698274837558
0,0872468226349653
0,0836445481706448
0,0555249807751634
0,0504779353602863
0,0423718745652008
0,100631751255932
0,0649433661444301
0,0605352472679679
0,0644245963614877
0,0758478495288706
0,0533260036894168
0,0621665070089134
0,0505836499979414
0,075744376426788
0,0615237645296946
0,0160782123482022
0,0458827899608228
0,114675530131581
0,0584103590947381
0,114365323703749
0,0555603683955052
0,0695241365936839
0,0572520051014237
0,0613973079267636
0,0492743062272007
0,0676773604582904
0,044331856478669
0,0636577377283362
0,0865349075417148
0,0689817722086828
0,0531172566666937
0,082523585748696
0,0572022210052117
0,0403398232199108
0,0973065557318193
0,0814722756565252
0,0407720571519539
0,0832877601149407
0,0667392515418439
0,048653525187886
0,0424365313891124
0,0836400397228939
0,0526874245103181
0,0650249511437075
0,0494694057716615
0,0622582724340462
0,0610816685717066
0,0745915963110229
0,0562746086880049
0,0626573861944997
0,0316780494377282
0,0650369204147711
0,0938936224650892
0,104640179261194
0,0632710113372203
0,064185051642416
0,0238688912006431
0,0808829415629936
0,0860307362855793
0,0682085322571668
0,0581310216018536
0,0587127787498067
0,0580608743979103
0,0638981075231168
0,0545637364310733
0,0667669777871372
0,0360551047496792
0,10994876762188
0,0731255017067489
0,065625186487546
0,0486121175457246
0,0652675862627147
0,0465675864291757
0,103780703854866
0,084889842343605
0,0675491957703787
0,0588000540360548
0,0618439647746366
0,0669317192920661
0,0868398129015805
0,0552626931721001
0,0703885311731685
0,0569470613922001
0,0611265730391137
0,0520950205665482
0,066991700395228
0,0602151471688755
0,0642672263261342
0,0551424843403692
0,0625961874327288
0,0592246564977172
0,0710147138621335
0,0599740477539271
0,0679892997483847
0,0608214966176015
0,0547098271937643
0,060067087242884
0,0871488270937101
0,0712368611633869
0,0717156624522521
0,0531384779508921
0,0695098013701772
0,0565335556915848
0,0700938610191355
0,05819964207027
0,064476893596088
0,04434910317735
0,0976499085548852
0,0686731195750083
0,0821516013253307
0,0484597878704056
0,0750391759727134
0,0737037347786268
0,0687988177434514
0,055515626216802
0,0734567181100993
0,0498837129528343
0,0599555570281342
0,0846037035248561
0,080205083344146
0,0534623532773419
0,0801407763203773
0,0730304518771146
0,0701867807019123
0,0523352283655566
0,0498468017897922
0,117397885213113
0,092012346912975
0,0288704387126091
0,125118468085303
0,081205307870433
0,0843809212025217
0,0470865351918446
0,0347957637409004
0,129919064595385
0,132997439508363
0,0718580176092525
0,0701540709607663
0,0795023102027849
0,0742151128615259
0,0697345935509806
0,0756255687499406
0,0702324526804375
0,0924488958583168
0,0792598410562135
0,119998483400295
0,0597428937197466
0,0974572351002217
0,0958352026925823
0,0877897075138502
0,0701699852753793
0,0773443809819823
0,0567421208464104
0,0884012826916684
0,0766655816558179
0,0922777514886787
0,0729951845052111
0,0696656615104596
0,0874984545300147
0,103980366376479
0,0750349292175037
0,0838794847074584
0,0806302812626097
0,0891220344675637
0,0785494853870078
0,0865610018337528
0,0850756084806848
0,0773666585391075
0,0673640474408132
0,137600857428346
0,0874655052430427
0,0904488456527248
0,112167964274443
0,101048903025238
0,0856528323520017
0,101553829827635
0,0841899928977782
0,0941662872178861
0,0788275383016061
0,0937765553552221
0,111898077887933
0,110001738408635
0,0952043734776842
0,107908115003474
0,0924173725508618
0,104294869148168
0,0999198474397507
0,112765427750499
0,100192295827477
0,112665811451107
0,0916840552545723
0,124894017433947
0,132348487915242
0,0953501695531607
0,124665289734228
0,164722680844433
0,121330322223942
0,135927627003976
0,121565178387537
0,132878826538781
0,123042801750395
0,137799453674252
0,12869605459732
0,146018558756255
0,155649080287149
0,157246186324243
0,142621731573222
0,152504144652893
0,176343180862574
0,207229110280513
0,16632851320433
0,169994350711475
0,136205192695214
0,194875714827206
0,194701088103912
0,199064653062585
0,19900451717226
0,18901421828549
0,184049166389905
0,190583513486059
0,190965380037267
0,195167472532814
0,19630246501033
0,204671375019548
0,20032244774931
0,218966546556251
0,213061832650428
0,219915927334822
0,204594593143254
0,266952868763682
0,237502276967258
0,23940277068185
0,241448070169166
0,237062333368328
0,253751489723585
0,273308327900106
0,267867625108175
0,290477795236408
0,270829606700189
0,305392010793653
0,252590757840939
0,275175281976471
0,258756855582554
0,287224012931209
0,273816372340842
0,287829459384684
0,277536657185502
0,305386174939391
0,280577034212719
0,308676594886437
0,284279855808392
0,305883799214613
0,298842351551755
0,334198771902782
0,300668836221382
0,334337834495511
0,301228986105013
0,336236666620073
0,334794641223851
0,383638985847454
0,323095339354027
0,341955617167131
0,328139936841994
0,352052978948289
0,329842774590228
0,347636255572203
0,34572209523075
0,356876846021641
0,370868469684071
0,409728104278074
0,368260677451451
0,393079332109918
0,351504781399876
0,397053161916051
0,359076153267862
0,408000600900344
0,396802921561304
0,394316036952474
0,365382058912386
0,443896543691094
0,398702460414027
0,412111539087574
0,403885950629469
0,412320555009058
0,391177493697085
0,411853355782862
0,404432093048069
0,427068635778443
0,396072063613583
0,433080028856764
0,413392744560645
0,429028895787783
0,41157723876593
0,439078644206285
0,44473111764066
0,459548954038624
0,440072475012532
0,463093126035351
0,424077470809205
0,461877972440116
0,415864351670742
0,490499946686149
0,442946011507752
0,49950567156393
0,459191175683926
0,474193998222688
0,449833715754229
0,481721449291441
0,453002877220847
0,483884895417741
0,484958350797113
0,509697389258216
0,46862168285932
0,498394244609633
0,481472428871041
0,511598977992666
0,486037437329142
0,536781364239896
0,493159451825526
0,505501744106255
0,484845391420702
0,52049566700015
0,494689470182633
0,588313047346301
0,530673908818263
0,546029725335765
0,561304985871034
0,55133043668532
0,496881482150977
0,555644288248033
0,528171147058889
0,570804554217961
0,536344260076192
0,55850826791455
0,555867445244536
0,595007763922294
0,527255192881988
0,582016337891581
0,547755822641756
0,588968372174817
0,556968168213556
0,606099668105983
0,564149441384726
0,625022487420703
0,565966615473329
0,598154623528581
0,58804159229644
0,59851230611143
0,577426527789638
0,676890695696279
0,610462766766465
0,637567240451995
0,600157479201335
0,630478429854479
0,603718869023704
0,653876503321815
0,607649150383933
0,672169199684202
0,638549192415284
0,660316337350282
0,627544551795397
0,685413628840244
0,61756877471639
0,67088318272887
0,638347382109638
0,704352805684979
0,672342473720596
0,699634305238526
0,660155117389375
0,683153381229343
0,642010182980736
0,684487990981245
0,658429655480812
0,720350913815602
0,666842456295774
0,728559456329603
0,681113207346724
0,734888503405633
0,66772724179353
0,715792753086886
0,685646195485668
0,756197616271862
0,688019441482386
0,764865869193274
0,732758902318504
0,796114752253557
0,726886122469659
0,760218737221479
0,720296762035361
0,772786851742598
0,730135888148353
0,731985450274729
0,691227435370446
0,743640554222641
0,732596495489157
0,799534746695027
0,731632418329103
0,803648454069609
0,769411889618421
0,842903840611212
0,749641090612601
0,793260920236512
0,776958343675434
0,831352215650426
0,815154500806424
0,854843170028649
0,750177928268713
0,829049090750971
0,765499454959022
0,843410365616902
0,782665158395997
0,869766672423612
0,841730172871535
0,911913102133381
0,830638008939825
0,882233556390169
0,802732756912332
0,882980890599771
0,791742977132651
0,872546035342204
0,853650915703211
0,881089495866206
0,853915777086773
0,873142003639706
0,853458894195403
0,892720251687992
0,843712241155366
0,913610052304035
0,87701581940394
0,928580440450615
0,811572312820982
0,921090984022923
0,896032498467383
0,967389535821427
0,877056161404622
0,988852865459804
0,862819106331679
0,954298272247505
0,878353013076713
0,918025077707394
0,845164615779252
1,02343501512902
0,924232606226146
1,03322575737551
0,93213736352914
1,01268502421286
0,938589334013468
0,995444493771267
0,940915618136587
1,03746058522846
0,942233695046485
0,949815023266312
0,912859522413534
0,974818043602682
1,00540281501914
1,02511870634219
0,955953273566011
1,02981916039136
0,985237390573953
1,04627341805799
0,954174809493097
1,00784885899393
0,99055160033393
1,02425497642567
1,00245846903352
1,00987896200101
0,925286936521551
1,07586771997892
1,05977231267321
1,06262331535735
1,00186295158091
1,06906614549061
0,975795531368179
1,08231324022165
1,02277717602894
1,1015323595563
1,03581085802858
1,18112987872226
1,03063488520789
1,13799086761709
1,051537179947
1,11335973528191
0,988861688063669
1,19006405678245
1,04271498895409
1,11709426114389
1,06098573039825
1,18537726965917
1,04203809281453
1,1349143211756
1,05427673608378
1,10226694706426
1,08177116303099
1,14267431940291
1,07713277561397
1,24047361597198
1,09133912589606
1,07855551924613
0,99285575701136
1,213206326198
1,13589924202179
1,16609770034927
1,09277957237194
1,13284894951606
1,15517731893458
1,13630844318781
1,09528890538441
1,23754006942915
1,12708755667145
1,19540013354921
1,16481772602403
1,22857614832852
1,15452377935163
1,3049325169772
1,10742392447408
1,30515770801174
1,12881424568661
1,20059290024222
1,08355480308981
1,34141100299845
1,13771496136141
1,27693683717407
1,18832734660398
1,29104325739943
1,17419598041699
1,20739231388274
1,24075663662189
1,2971826757122
1,20427603361339
1,43391427759671
1,144200864023
1,3020827559186
1,13497789161648
1,24767107459255
1,17575939354278
1,3137070736136
1,16556103126299
1,2658301170839
1,10704650749929
1,32197197517579
1,22598336825225
1,4369833136618
1,18152958658086
1,36186319793656
1,12695480870915
1,22156202512388
1,20925727680482
1,38534371470867
1,18372267250585
1,30402053303501
1,19380391688613
1,2795438341603
1,17077507825198
1,23876785262967
1,12215292910844
1,28805089101504
1,19509978864366
1,32865725202438
1,14773817766359
1,27152549123473
1,19146257478922
1,37648827481755
1,21381223912863
1,24851396181413
1,220686465342
1,38321282596661
1,17272244523521
1,3512090880769
1,1329024005366
1,19455920409768
1,16643479491398
1,34076107580568
1,24465431646967
1,39654943002027
1,23296533344908
1,26776106701221
1,2166978792571
1,29563192470167
1,13949909354107
1,28055801455311
1,1633297459443
1,2695181196564
1,22098654669385
1,27664399122586
1,18760579797594
1,33631161543197
1,25755877262071
1,33934065537327
1,18559505102313
1,2605036706395
1,24399255829652
1,2727823744727
1,2268746814617
1,22351463497219
1,18803675082664
1,27010402169772
1,32218352851916
1,30471153959924
1,22693891557922
1,30582244578865
1,2062067297976
1,32415217441272
1,24379078349075
1,30032616378908
1,19351865141875
1,2994296769444
1,23848780044286
1,36585486646488
1,23358770017152
1,38611654523782
1,18049277351839
1,3139956497938
1,25683398559114
1,26090691392012
1,23275831273755
1,30622068100026
1,17334485565463
1,24992198303464
1,18541400928618
1,28052188591232
1,19125043459391
1,36573998736472
1,22581842814874
1,29430744155293
1,17409080470143
1,31678772129035
1,19215709840755
1,32854069966355
1,2260856937733
1,28097505017687
1,23675232386176
1,35448239697574
1,20708621478783
1,33193732822183
1,21170858033718
1,28681482189726
1,23160567113209
1,27244970978487
1,1817793435704
1,32233309335953
1,21601839708647
1,30358987374564
1,20276344176381
1,37534880149699
1,18388883794345
1,28336543712873
1,20176520853393
1,29615349977757
1,23891836575431
1,31019266269978
1,18734621984521
1,31610452444588
1,18496193179154
1,33351710898797
1,2105176465003
1,25838412022339
1,18837712832264
1,20863108491214
1,24016967056493
1,31149254744559
1,21974730365384
1,32061448244945
1,22540019387281
1,38871994540227
1,21982544366954
1,24149277238986
1,25567114361004
1,26408844883239
1,15874998643283
1,27940030612713
1,22308966472658
1,28068907378932
1,18526242451265
1,24838266210107
1,2092528934889
1,27949955746638
1,18534050565903
1,26021162025373
1,19429680563514
1,29032553643404
1,20094785346876
1,22241359994571
1,17461240217656
1,30227994788831
1,16484140609943
1,30024321982126
1,17773906573679
1,26175722737466
1,19640233598147
1,28533036514067
1,2334944645324
1,23404854063695
1,16222731849204
1,25429500869212
1,17779530974467
1,19085586072179
1,16751002631642
1,21393319326631
1,13059026862644
1,25848261488713
1,1422891285441
1,17025953899092
1,14147465844637
1,275850197827
1,16316066503308
1,25732834279869
1,16831606558646
1,21918745850131
1,15136597731577
1,25509960171595
1,10567292602956
1,17764371713402
1,10600804092478
1,15540364174479
1,11894523721835
1,17663220965832
1,13986288780983
1,17772662750237
1,11879612356246
1,20548644932231
1,11494711252028
1,19343702668741
1,12575237854873
1,13613560318473
1,10114155107577
1,1579320495487
1,11396005750525
1,10692574195642
1,0642008594086
1,1400458315412
1,10575521282044
1,10192324520691
1,0688769874093
1,15821827350074
1,05777000619265
1,13252662905218
1,03051552721471
1,0762809534003
1,07880009423857
1,06033665341178
1,05540871184789
1,09368939973889
1,02281044579399
1,08913615570222
1,01902830693655
1,0203860323824
0,980151803712165
1,06177251226981
1,0312085683743
1,04862088349416
0,99867969344165
1,0314761492193
0,971849157103446
1,01835889458049
0,956657792933215
1,01113822099317
0,974195990569106
0,970347758220229
0,980234724131634
1,00822293588282
0,937411898907941
0,969317201228383
0,951471902446773
1,01475611250738
0,970916600307946
0,923235112707606
0,904643874636646
0,954285261324734
0,923732786971484
0,912229045598721
0,897283879345692
0,938655626489177
0,9010697754549
0,902929698940378
0,874124504715928
0,938191492270704
0,890890126382089
0,899638586950143
0,847748595424934
0,913422336306611
0,86381887336361
0,896833050039315
0,85096400773902
0,88908220495836
0,837908744278487
0,867157059466651
0,817621817282098
0,841778018601944
0,834267708548672
0,82338591078008
0,805143984520535
0,832995068912261
0,808863471535824
0,82101267690288
0,791278827111496
0,823650097345013
0,791750331757509
0,781905691717472
0,767098305578021
0,784833712044689
0,784733628970767
0,792865730242715
0,738779157561911
0,767855586843604
0,737761531212527
0,755020041466023
0,744163357836607
0,745272658864418
0,715698997952022
0,746922313028437
0,702309890988201
0,746372858547593
0,717324686140627
0,731242993809779
0,707957598998914
0,713492551352008
0,687362793416944
0,715806875116894
0,682719027573914
0,700029180787881
0,682947949098676
0,680128805406743
0,674765771822225
0,680286220901601
0,647799511297655
0,683291090370785
0,665011224420494
0,667472389360524
0,638941373588255
0,649973148201909
0,641694034578774
0,643065647072478
0,627168432018124
0,648156390150256
0,62432914418411
0,63881262654728
0,6073371835813
0,622389892609787
0,596731544844894
0,629581822859964
0,587290013523579
0,605074503764561
0,591354525114044
0,607692175707085
0,579750103212073
0,589828780001492
0,578063355449229
0,578133818399372
0,563881306451179
0,571968012627028
0,552768924799855
0,5812602298018
0,552907770536295
0,570519480632007
0,546809384406067
0,558919662739241
0,535172048886453
0,549568968816102
0,530307056981446
0,542516189177975
0,521499972401256
0,531763816841707
0,522658320581821
0,522134408020615
0,501021318760701
0,524130003204323
0,49906980877202
0,505170360035762
0,502113594360994
0,516419137562469
0,49584718175792
0,494196204267132
0,483677425970101
0,49831073919358
0,474645472519616
0,494545581252692
0,474179692238057
0,485275951392897
0,46184778591912
0,475208001546815
0,465478589453027
0,460707780074019
0,448193719850119
0,458503608246364
0,443779115326065
0,454544632359445
0,432290807852871
0,450128137057935
0,434951043215492
0,440559609938499
0,423818022377726
0,443921564308682
0,422686482944687
0,429893787613068
0,422148516887564
0,423555463132753
0,409856935396032
0,415879400899498
0,414598051796437
0,41305449442263
0,399028466157639
0,408364248972211
0,395072571478677
0,40437013739833
0,38849228145989
0,393356328822141
0,389085105259055
0,387718797755646
0,381808952414444
0,38653979088663
0,371358391925389
0,378792813477766
0,371654530993852
0,378335010492851
0,36705083765439
0,372033168167084
0,357786458617144
0,358314339849896
0,349035215656014
0,363060303640191
0,349942615480467
0,35714222521524
0,343788777315467
0,352418463184589
0,338754320234418
0,352404023107662
0,335520689124275
0,346470860525581
0,337429643938886
0,333397551520869
0,327233190896545
0,334605395752064
0,322901610445367
0,331423953570412
0,313043011627501
0,324469817166485
0,307972964777739
0,321410325324704
0,313448453852555
0,31370007074496
0,307212384877801
0,319415625193474
0,296425129214516
0,312641388112994
0,298528808573594
0,304012277067536
0,299094185609444
0,29763328431423
0,29170047010102
0,302308111236221
0,292741306516568
0,292899167413401
0,284996885671008
0,284660710868224
0,277671081263638
0,282507445524373
0,27533111354272
0,28528778527194
0,274666553225324
0,280118883603046
0,273778486188377
0,274440501226337
0,265905106644206
0,274615947299852
0,263236819866143
0,266161088262068
0,260566073682929
0,263603014562565
0,25353643829353
0,258277476340749
0,256421250222376
0,2593039014635
0,248990621433935
0,257996347025599
0,248636529698386
0,254286393850378
0,240420259063142
0,248311650517522
0,23422048960183
0,246494060934464
0,236114398372307
0,240515731451141
0,238722653594625
0,239109635618629
0,230246323995463
0,240291349591751
0,228930693462212
0,239535962773085
0,232431581693314
0,236928404805289
0,22801899837497
0,22808907322476
0,223926346365015
0,226439242512202
0,220901466956357
0,224819504602589
0,215431089849924
0,22174053153769
0,212085152673851
0,216957330279392
0,216323459720562
0,217968521612572
0,211215799471106
0,21267279334331
0,202605300624697
0,208390288921816
0,20277087416431
0,206703059873938
0,200174541996021
0,207451723802046
0,192434089675825
0,204908946871452
0,193684985915315
0,197843800013502
0,197114227818639
0,199510546550581
0,192288481261816
0,195196228711134
0,187189558449148
0,191171576453692
0,182110242211847
0,183431268545133
0,183887695681544
0,185383867695033
0,188039997302329
0,193284084444337
0,177105704471359
0,189467930241403
0,178336046365923
0,18216428400671
0,173116197316576
0,183633482050883
0,175106742343287
0,182298538594225
0,171781442516504
0,174732231521516
0,171050943800071
0,181131296896194
0,168769282382147
0,175380133596454
0,16891132615314
0,173227470426847
0,170280622894937
0,172246940943541
0,168330074481904
0,172574145539819
0,162747317442525
0,170304341401036
0,161168416564182
0,171602412291395
0,157374487803332
0,166093628735794
0,161730172085207
0,163725018194104
0,154738238774055
0,163376173473175
0,155156381066647
0,162323490211309
0,153563423646448
0,155009225375606
0,151768906283051
0,157900971134129
0,151373329242029
0,15608775757975
0,15251420379903
0,153740498902788
0,148538754234208
0,154629677162884
0,143490714479638
0,1488092630293
0,146407076169967
0,151690463873963
0,143145840599665
0,148513201337434
0,142934851104977
0,144352563996649
0,138118948296289
0,144232899245546
0,139663164747051
0,14716091097088
0,137931245000024
0,142630177513994
0,130620682643773
0,13948160270835
0,133981660700012
0,137724586314558
0,134593954248381
0,136867083053722
0,129144216766964
0,133351702059834
0,127663614535788
0,132169784971713
0,129268455477284
0,136911619353172
0,128381345914664
0,130522394625748
0,126856996248511
0,13006980993917
0,12214219652643
0,129505121015094
0,125459010223042
0,126443704077778
0,122655917605889
0,129331205392243
0,122967013422054
0,129400559399105
0,119912820935243
0,123957561328837
0,117261422761358
0,122765756199972
0,117354253457122
0,127167679486879
0,115174585276351
0,124256033339342
0,117401626819022
0,120602058054635
0,116138912070686
0,122036572904673
0,11660709951768
0,120876245103139
0,11678979769575
0,119252615156078
0,1108360036387
0,116430907360077
0,111436737634109
0,114171294166599
0,115150018137816
0,116534644673744
0,115468915766342
0,116416971804329
0,110477469734149
0,113422518204673
0,106413202727504
0,112065223774708
0,109621306652326
0,112360296324711
0,107321424153388
0,111672429815984
0,106455056648311
0,109389401666798
0,104631457050287
0,108488464444699
0,102154313988715
0,1103057937937
0,103507575572899
0,106382856725667
0,102987569612077
0,110619803485866
0,102995168156641
0,106135152593659
0,100003796768093
0,106051161803473
0,102472379539286
0,104138085190486
0,0998044657594109
0,104968885820763
0,098874353379014
0,104866099354991
0,100002112409776
0,10167801732092
0,0958632900212156
0,100134851670533
0,0966983687915556
0,0996107608304041
0,0950261325618316
0,10118089149199
0,0958426485485952
0,0978533515762516
0,0966361940854464
0,100358616533785
0,0955723783966021
0,0978471717591288
0,0962102866929694
0,0990410290827661
0,0939614393891011
0,0981821341626298
0,091851275436651
0,0975364649765317
0,0949027694354207
0,0981765139428016
0,0892298198127625
0,0967012721814235
0,0914957718521922
0,0982745451182613
0,092466624211509
0,0983609454371333
0,0894762366756056
0,0940541740151723
0,08708919548257
0,0960833483355376
0,0880416100459802
0,089345157881623
0,0892751315191165
0,0935992358535199
0,0870572046498525
0,0934982499302255
0,0871333213282572
0,0910314367105458
0,0899846910567051
0,09276872267758
0,0878169420604673
0,0917322943930485
0,0852869117617547
0,0890563154022677
0,0850781883896524
0,0922614000256023
0,0868152310451698
0,0897790919364975
0,0856021129751353
0,0884279631418615
0,0818656122577309
0,0878250952849527
0,085400644624198
0,0872391679312544
0,0816290288933053
0,0867046347641637
0,0807396843595442
0,0900295547375
0,0828033171809963
0,0858716125909346
0,0822172989166096
0,0902509837178327
0,0814834418878431
0,0823595824287274
0,081275586295893
0,0874230447451959
0,0817863576765965
0,0842977083853381
0,0801976904579094
0,0854514982038995
0,0796905016291872
0,0871116098545869
0,0808544889865809
0,0842587877720184
0,0812863128123792
0,0849763767110754
0,0811859371248757
0,0815202609342974
0,0797149657842159
0,0869398925451317
0,080448472925586
0,0815398254385986
0,0801666549588627
0,0839470591581155
0,0792742206488743
0,0831410811977654
0,0754157867490512
0,0810946066678349
0,0777190470868233
0,080772340820822
0,0775005476900859
0,0783687700836746
0,0756192355025065
0,0838723963996181
0,0771853864098522
0,076696535892971
0,0748846560771002
0,0796246875213209
0,0771256916631796
0,0804749323457852
0,0780449279368389
0,0815957359600863
0,0724722595226925
0,0787387291147561
0,0754864355497662
0,0772632825266216
0,0756690705289064
0,0771679866222761
0,072492806498227
0,0791546653854685
0,0755279512706568
0,0779416058495639
0,0735577113140794
0,0786362871181493
0,0773772147424325
0,0807313257024469
0,0783951859788623
0,0766115599729501
0,0746553152434886
0,0769587816805665
0,0742759535631136
0,0768083502816621
0,0732338355288705
0,0750794298940795
0,0728475107027696
0,0767551715558567
0,0756577704525426
0,0790854667756835
0,0730974928963906
0,0784164426190354
0,0735129469093246
0,0761689596855997
0,0703973277084845
0,0770430862406691
0,0702156766966033
0,0773833118733274
0,0715931536225212
0,0777675565516228
0,0727405774395507
0,0769802661086091
0,0708781074663332
0,0761978267485755
0,0724278458821697
0,0769221559297261
0,0734628162587685
0,0759211699367003
0,072707502008424
0,0753606643003691
0,069630839997537
0,0741045998671495
0,0714224999919589
0,0740943260760283
0,0708023412577629
0,0762849109261151
0,0708221891210607
0,0760050956531899
0,0689746265832791
0,0707524516789126
0,0675570522311997
0,0746606503587435
0,0715258114361705
0,0740028347437802
0,070223584035856
0,0751308185177192
0,0734813368292449
0,0733772549457638
0,0676336185062754
0,0726461188772256
0,0700504930560561
0,0747768019830774
0,0702456490579976
0,0724128648562562
0,0701773925542332
0,0720916126182155
0,0693347689813525
0,0728713748236691
0,0682759383177443
0,0748265762819968
0,0697074578732717
0,0749009836757992
0,0703392245903399
0,0705114134252471
0,0699172717223435
0,0714218309500984
0,0719568497291322
0,0725001267197779
0,0693522881986053
0,0752042726525757
0,0685301864237634
0,0716857439329498
0,0679027082572142
0,070540137381183
0,0692490928415084
0,0764637934772304
0,0709691943025308
0,0723696053435814
0,0667472945640902
0,0709699225389433
0,0691013049870077
0,0722994073063251
0,0673365055430907
0,0735932771908876
0,0690226287659575
0,072696217378013
0,0712969767428534
0,0723549108322928
0,0680771678523019
0,0737964424284693
0,0716219021924996
0,0707309769424991
0,0695453539646385
0,0735277741248071
0,069644079988489
0,0718977594536214
0,067480926355561
0,0688702309870412
0,0687983921673314
0,0731599601048556
0,0684019940554016
0,0715145864633746
0,0686994688826964
0,071879143095171
0,070385760395364
0,0724821652572147
0,0693844475827577
0,0688691011510373
0,0661531509369066
0,0702843155819065
0,0681894982628581
0,0711646837729688
0,0690631969911003
0,072974991223876
0,0718222644807892
0,0712361637137609
0,0675649591326998
0,0718608652379039
0,0672864948320124
0,0708095680704066
0,0679477284634571
0,0725814574185099
0,0683321249549904
0,0726782160986949
0,069896247595004
0,069254926229651
0,0682500416635194
0,0706356185308593
0,0697628156604477
0,070093734847209
0,0695245817511258
0,0736515366680287
0,0692460898739881
0,0727828138740527
0,0699810759784252
0,0712147483014738
0,0690169878712795
0,0714363686550348
0,0709055271000792
0,0758683803338411
0,0681253596090663
0,0757006133686391
0,0724684421634886
0,0721412880686661
0,0703378351843096
0,0729157508572148
0,0707407665438255
0,0701632727008683
0,068176140193701
0,072186394041578
0,070965158215581
0,074218231602675
0,0714528669809545
0,0716723784319465
0,0673196154967461
0,0753869949574719
0,0707514818246273
0,0735272293526296
0,0701935522335038
0,0741822737537739
0,069928542279972
0,071524150099419
0,0709704839235331
0,0745652012825887
0,0682922577238064
0,0721696344918511
0,0685455757255585
0,0719437460805157
0,0695890960026782
0,0717399983237977
0,069388791952991
0,075686641999677
0,0712791469071713
0,0728604652616252
0,0721070536868094
0,0735951185200579
0,0714077779327887
0,0744041476669942
0,0717889576295946
0,0713553804757703
0,0680403693906521
0,0750596808782418
0,0720077029184692
0,070490939071482
0,0707203070840856
0,073200025111401
0,0721242618516558
0,0732276700526762
0,070888362169894
0,0753664664778223
0,0729078128457279
0,0762670480413949
0,0710702232296334
0,074752484883095
0,0713748677103214
0,0743917584002434
0,0730640494099218
0,0745354285577707
0,0722783468220912
0,0734619217164071
0,0727784421826656
0,0736752367516382
0,0676639372624141
0,0757078662629121
0,0740594727355459
0,0757546380260617
0,0704368263596137
0,0749939685488095
0,075743663687343
0,0729409842191337
0,0706140225318925
0,0756903296326594
0,0690645953394889
0,07274898685564
0,0724587751499073
0,0751814675565937
0,0739629316197211
0,0764252949542632
0,0726932714692195
0,0753288077067236
0,0726532470163328
0,077088378674876
0,0728740554365551
0,075143055888064
0,0741658311849289
0,0759408362808599
0,0725439719911
0,0773632932522428
0,0745748907032393
0,0752704096687575
0,0722697233864683
0,0769441082308258
0,0729994116169953
0,0740775654972742
0,0729634419635647
0,074826938393677
0,0742742076450676
0,0781320836396604
0,075447775560856
0,0762363614691373
0,0731659263734894
0,0771336470923908
0,074848233573208
0,07850375928279
0,075320243746502
0,0783993722019289
0,0754439222320709
0,0766551055103516
0,0733381509669045
0,0773394758561446
0,074995832336328
0,0794488263252238
0,0760616421698637
0,0787544257182522
0,0768913721151443
0,0793776997762375
0,0757115109486997
0,0800763244957045
0,0756018739508536
0,0782126356484737
0,075956596436952
0,0781305732595276
0,0756518416704169
0,0803343967881084
0,0776604497278958
0,0790693116732987
0,0767670800672103
0,0792702167586308
0,0780147803557962
0,0803627720362615
0,0759046013306598
0,078388901145526
0,0754822768808155
0,0787869049166045
0,0781089642858046
0,0798895565079224
0,0777041947966585
0,0804013263894914
0,0766423229966885
0,0804893402094657
0,0772402340474586
0,0805453525248442
0,0768516718992754
0,0822265389679956
0,0796463389696851
0,0800857078369539
0,0766200802529196
0,0810684021852914
0,0769110163569073
0,0814051925884355
0,079040783692707
0,0815232467201
0,0791063114791929
0,082775660800734
0,0765868467794627
0,0815358238960296
0,0777948378459653
0,0793577555887321
0,0770769815929684
0,0805252825974199
0,0792118663972529
0,0811482198607599
0,0788299665550773
0,0848755344959126
0,0811635332064275
0,0833248528772444
0,079353616613328
0,0831975506284647
0,0782941568106765
0,085619576757185
0,0815885715174832
0,0833961010345295
0,0806466554871125
0,083018745865129
0,0817821957318819
0,0867960960838557
0,0838888296083938
0,0875016235653389
0,0795331229707042
0,0860406816496413
0,0853792788201261
0,0892093885989215
0,0844399310116694
0,0913383461143465
0,0842011861624241
0,0911002447847699
0,0882393880244575
0,0977561603075223
0,0899647175399973
0,0962603383701473
0,0887963706735615
0,0983914290813323
0,0956224396249057
0,105670762117569
0,0998268617825306
0,104595691247639
0,0900841924654125
0,10208445331303
0,0983913393466408
0,105542265551139
0,095761406538041
0,110217887397954
0,0986111989707391
0,107728372083281
0,101203313934269
0,106777925239331
0,0981719011720226
0,109885243876192
0,099333138792476
0,109458293563097
0,0900045502174719
0,108780477520167
0,0967689193688972
0,103477723354556
0,088323776494596
0,0997352468525027
0,0862495369674186
0,106661777089144
0,0928612191660259
0,109652704088577
0,0954734815180576
0,109248294451428
0,087168972140204
0,113086418667037
0,0853363288843702
0,10960567286664
0,0881133145174378
0,110221150389166
0,0846180592983622
0,11110997492733
0,0881644324355563
0,120511715774508
0,0947730822575886
0,112992130923254
0,0868825239231779
0,111290123200038
0,0910696878444751
0,120691702134052
0,0978074925245074
0,106905609381405
0,0882007399746295
0,107128343318364
0,113730447214296
0,0993441674124101
0,0977592918547548
0,0987319388222361
0,12168351374331
0,0888393925630664
0,114147846367846
0,0844688608840923
0,119938378251078
0,0794262781188342
0,120524039941054
0,0853629819541816
0,110144655449867
0,0886917301295615
0,109767277642465
0,0909880761353903
0,106094173814504
0,0956605241525043
0,099673732490488
0,093450606908513
0,0990367984956554
0,0957830256593813
0,0995114436265968
0,0966851788418372
0,100476758922995
0,0939258597304272
0,100704165661889
0,0927005377438784
0,0974366825554971
0,0928394866725593
0,099437268529705
0,093437683366436
0,101042859806562
0,0942805413712322
0,0981417260175199
0,0967256483196021
0,0997144514839612
0,0936795454815199
0,0978684470776918
0,0942407880097304
0,100278591323058
0,0953789351971898
0,0991252257565257
0,0959271983517829
0,0995809597906477
0,0959560172632996
0,0981726123371027
0,0970763625193976
0,101410196944892
0,0972180986339519
0,0994956063645052
0,0976937807287809
0,103782049672468
0,0994181932304341
0,100799279170758
0,0987501569915571
0,102197236776162
0,0958189027339893
0,101062847453534
0,101846598975515
0,103678323804115
0,100080406264429
0,104065255840159
0,102341529398762
0,103527223195328
0,0987557083037552
0,103525486703464
0,100562004184482
0,102279199569255
0,101690089238611
0,106117429756413
0,102425351976628
0,104629664797982
0,101733930950328
0,105337728418459
0,104708467266754
0,105008277038248
0,101429716129293
0,104229649368178
0,103534770101109
0,105042302634299
0,103890343232856
0,107342160156635
0,105683483236762
0,107161809096448
0,102426823356478
0,105985839658879
0,106413293026421
0,106812447055072
0,105369571381283
0,109366773711564
0,105253132793441
0,107357460502342
0,10596642207342
0,108326746944415
0,109536420912319
0,109888728621236
0,106424742278959
0,109405305284311
0,107320523480635
0,10978680490374
0,10781208971482
0,110911572375047
0,107190470923308
0,108767137790363
0,111679194987933
0,11193402824669
0,107875560268949
0,109883018390592
0,110481181356568
0,11148246702261
0,109742463322274
0,112777468428253
0,110368024596301
0,114841180715448
0,110679803317535
0,11302360863799
0,111601247682895
0,111733558844757
0,111438478159159
0,115919466397536
0,113833905334465
0,116781388060732
0,11555167952636
0,115053628237316
0,114273787578481
0,115972337736341
0,115791425085176
0,116692382053931
0,114130571011839
0,114664209397233
0,115788356213882
0,117954840215608
0,11669606976392
0,116697350296867
0,117116416142963
0,117017425203819
0,115969112371727
0,116484031089292
0,118147016364046
0,117899338779782
0,116697320691174
0,117230451754174
0,115529392238688
0,119116313913262
0,115096922868456
0,117931051742904
0,118878611385917
0,120897460200129
0,119434535796757
0,121358744926502
0,118586169327015
0,120110281123683
0,120146978502898
0,119762632070418
0,118747165494502
0,120071039411142
0,120361800194984
0,12152682842369
0,121410443864984
0,122024818190377
0,1205209062046
0,123200762706777
0,121897932675825
0,125185036911423
0,121665160255117
0,121222828413064
0,122817545538419
0,123480319911164
0,121831885961107
0,121672381492254
0,120118891534769
0,123151257945307
0,122834996588929
0,12432730423838
0,120786815931241
0,125008699903995
0,123480474790256
0,124292555351273
0,123012824211112
0,125816982638741
0,12542811303518
0,127172673584233
0,125396383342519
0,127420657887854
0,125278346890844
0,125706915057613
0,124993590583801
0,125075423845111
0,125268633206105
0,127957650557911
0,123599886238225
0,126867902004143
0,12683738182394
0,125293545810043
0,12483066317134
0,127916020385841
0,127144223015841
0,127017181846655
0,124174201670622
0,128470258058808
0,124760363290633
0,125246666744187
0,125889513810195
0,1268963733213
0,128972481485941
0,127399955145445
0,125349790484478
0,127376367190906
0,12690000556481
0,127515324473191
0,127123049412036
0,12742490523888
0,127660497434668
0,127502901049054
0,126783289831071
0,12537031033468
0,125728997818816
0,128464074031104
0,125728209987324
0,12859553763123
0,125053648173072
0,128155952980188
0,127624116792038
0,12635611898655
0,126778945777115
0,128597708108291
0,125252489536239
0,127552845637907
0,12519670136732
0,125077172907421
0,124406016004178
0,127651615876038
0,127011392139482
0,126740158352511
0,127868961229979
0,12779791913525
0,123196439561562
0,130052897034559
0,129109952858534
0,126787313649984
0,124515314197238
0,125596815345106
0,126245063826868
0,128375456365595
0,123285568707686
0,126996215772591
0,127249206212958
0,127407363469599
0,125018085454483
0,124410476482207
0,123177991460315
0,125832282101792
0,122880801640085
0,125316945003923
0,125269389431771
0,124518314058704
0,125068196408828
0,124417100454666
0,123255727608493
0,125625377058241
0,122277767163406
0,122613727616151
0,122337547842584
0,12567608504119
0,121218535431438
0,12187689048242
0,123216785021064
0,124946935515454
0,122137200844916
0,125231859619128
0,12267434423007
0,120437488573375
0,119991322927358
0,122082760708826
0,120960877539915
0,120711028642554
0,12256634066752
0,123088793428874
0,121770767902473
0,12067593024197
0,119541368132796
0,120802619141479
0,116362737970368
0,118800393264224
0,118527076066122
0,119198141998059
0,118413513432426
0,120885731047502
0,117486853277727
0,120392562435699
0,120492533518721
0,12003645699664
0,115849777882188
0,119274519551272
0,114560995612689
0,116635724472562
0,116119599455945
0,119208455567249
0,115360741997406
0,121782008544044
0,117585534326305
0,118359246052499
0,116936591901345
0,116625680856798
0,116040763319957
0,115611143140115
0,113253824549787
0,115000006843238
0,114261156211392
0,116539654051061
0,11611236688317
0,114348251163637
0,112992785738437
0,112605412522643
0,114819738038892
0,115054507461798
0,111795816243081
0,11242625522886
0,109299260093579
0,113561777436645
0,111644041853553
0,112234823828137
0,109772958291957
0,112221216893607
0,110625484827983
0,113274965137528
0,107968789376452
0,110895427803346
0,113224635625385
0,110604108631523
0,113212027481579
0,107662801028555
0,10557924860171
0,109247634031027
0,108136629588735
0,107678118732557
0,108015322312377
0,105049901107648
0,107449361414577
0,108062055464917
0,105187362721566
0,103673418935832
0,105439826746969
0,105055751794659
0,104657956008032
0,103418432986914
0,105438588315267
0,103478716142028
0,104386846952867
0,103294454955008
0,103539008641301
0,104120792172761
0,103566232724006
0,0999024551163856
0,105134061001171
0,104721351673388
0,102127790997788
0,101987811056299
0,100997149791863
0,103929973968215
0,10345596564127
0,0993942534696448
0,100930768686779
0,100931746282176
0,0980014749434058
0,100372602672363
0,0985591703707915
0,10044444896731
0,0999149931738455
0,0985489275948409
0,0955993128737477
0,0993052383710707
0,097763459542677
0,0980523715854335
0,0950226460830632
0,0987795895804747
0,0956089662727006
0,0971481387993012
0,0966021086091316
0,0970027314409481
0,0968901055211623
0,0981650954566129
0,096427379416468
0,0998453395986461
0,0918405606081562
0,0957857483009658
0,0934308813951463
0,0963882370055305
0,0935325501403876
0,0942482556144705
0,0929571678218776
0,096575992266486
0,0916318341780561
0,0933778457012467
0,0920947938208747
0,0952583161674452
0,0901634562397052
0,0945361306240406
0,0898224886777492
0,0914297193489165
0,0889385376652044
0,0927688904628989
0,0870793140081684
0,0937477512064831
0,0880255095333872
0,0959202629718767
0,0862163335924027
0,0968314159277498
0,0961483337844995
0,0949802311543727
0,0893099960644336
0,0922874972883949
0,0901801879551326
0,089423414885653
0,0877634958427525
0,0898645123336314
0,0883596056519429
0,0866174809219797
0,0884010291295893
0,0892899250916586
0,0881975077184919
0,0909426129984808
0,0870394374210658
0,0876934497071512
0,0860975683959275
0,0868217181931129
0,0882006043659823
0,0845973167312068
0,0882751601985679
0,0966336708365707
0,0840981427998702
0,0918034452126852
0,0862797726077822
0,0827103242829245
0,0994548380768777
0,0839075254605619
0,0893276552804362
0,0807517698289743
0,0882792486106327
0,0823844695121263
0,0887758491253415
0,0795992607639413
0,0870541020072785
0,0851108697202423
0,0856392032087244
0,0888082914391932
0,0831942853273481
0,0834287282957834
0,0837144065362905
0,0871284020308462
0,0832543791833685
0,0826265578494766
0,08174102967746
0,0820353108816481
0,0840850616190896
0,0825249545030928
0,0851729144337447
0,0793737694556852
0,0864226452981036
0,0822425442906656
0,0822214350878169
0,0817442943103581
0,0875351044476095
0,077788748109301
0,0832037490071808
0,0896337563247052
0,0842376341857696
0,085015179059343
0,0777545423911834
0,0858427556249227
0,0817974326584863
0,0825513657112037
0,0808161889695481
0,0842945556239605
0,0808405225401176
0,0838693545676342
0,0826353953031486
0,0859327156828321
0,0799893081298175
0,0832690432008672
0,0812424533128555
0,0837025185177407
0,0780039145608924
0,0830957733081177
0,0833975432504464
0,0790333607852695
0,0880767284489326
0,0865466270798679
0,09171192090903
0,0812197448487442
0,0877391680657304
0,0791217656005729
0,0818677159550369
0,0804499932066224
0,0823520612193912
0,0835744991145026
0,0802458011683847
0,0828712829975962
0,0821730316143786
0,081387575787952
0,0809670718206477
0,0828474861182363
0,0815662245839166
0,0836199376468887
0,0804757208898011
0,0849788005056177
0,0793111842248588
0,0842981618247789
0,0751909249290086
0,090788967089021
0,0794179747693252
0,0909977288498297
0,0634431339127333
0,111917823819719
0,0846729673215857
0,0929366572895171
0,0841199218742784
0,0868648942876351
0,0820080865557727
0,0824583301067394
0,0815313729140483
0,0856107232089663
0,0807576710583817
0,0854473087026242
0,0811579820616385
0,0836797783558873
0,0823443526758602
0,079358480459519
0,0820525117195206
0,101369119170199
0,0853302700965316
0,09467331499083
0,0764597398072492
0,092392339867091
0,0944140232624504
0,0804363752328383
0,0917773285249553
0,0843692821234227
0,0865405720929888
0,0829433688177708
0,0865467044524059
0,0839047304764676
0,089158729826866
0,0859638710498806
0,085479915540213
0,0858196710176824
0,085913104048019
0,0888162683177646
0,0810002654370423
0,0962187514253282
0,0931034216159167
0,0853877558036708
0,0916509418985642
0,0872203912911668
0,0887686644821373
0,0863675789481983
0,0909629306373204
0,0823323335360765
0,0948390895576579
0,0989143707465397
0,0903863861824046
0,0992647605476298
0,0963693817473961
0,0886550572234636
0,0925976840054615
0,0920013507417456
0,103853321475586
0,0760399339254541
0,108212538765478
0,0996564911245174
0,101688298762403
0,10669754318368
0,0913558711472957
0,0967093429744763
0,0896663734394053
0,0995565614456275
0,0854559566234302
0,119479895941153
0,0834236775533907
0,111444311627809
0,0813378216973634
0,115416383651491
0,100080684095184
0,10745498018792
0,0985203939694292
0,103402365852388
0,0942576934366183
0,120833054453597
0,0938962106418052
0,0964179987385577
0,111622283974734
0,115920270173017
0,130074061026608
0,103905638535658
0,0970779489682854
0,132977093089571
0,103994473160911
0,116877531156524
0,0983237179816125
0,11823594359421
0,0993205098526854
0,115123167967229
0,127562563764444
0,115725862882043
0,116081413749213
0,116682449421639
0,104672580903429
0,132348763639962
0,117132818118191
0,125947855377012
0,116714853759553
0,127423673645361
0,100156068053376
0,178672758840382
0,108508205655896
0,144948779385519
0,126861329883318
0,142490002970932
0,13236895319347
0,13626160999417
0,126010084411981
0,141599792392608
0,140971843878219
0,144587037687556
0,119519262248105
0,15706604311105
0,155501946106112
0,142136406984996
0,14794096240256
0,139067715743979
0,135535099224903
0,16662411657461
0,176112521015754
0,177632822289026
0,15377895354779
0,15148087223092
0,171729570441722
0,15881204753204
0,163739957195392
0,16073822992419
0,163573610354886
0,169311141885775
0,164496795462915
0,183054833334499
0,169390946952063
0,186872432844873
0,171985605919693
0,183730091554344
0,179875609308915
0,219937471572723
0,217848345436925
0,187783485887719
0,233402274704902
0,21052685957045
0,220259462956877
0,206333223319642
0,208298085007922
0,223957783822628
0,219974832181325
0,227750882513671
0,212540995334349
0,250494486949941
0,236069756249764
0,250301230258555
0,255487843522917
0,246758347383355
0,24852007197654
0,210957423901869
0,420778438670589
0,258512845902127
0,303104296925656
0,253988116141071
0,289521817140163
0,338287485706258
0,299755699590317
0,290307365155751
0,301727698730242
0,299429445765334
0,317748093087737
0,321375595044721
0,326856923184231
0,330124461499301
0,342959340122115
0,326478553933474
0,355024910421911
0,378487756381279
0,408206193069425
0,382737653235652
0,364286836375918
0,382637928897619
0,391474411840191
0,382213514009462
0,410757051595258
0,385939675336355
0,405128017010724
0,462442801020201
0,419316587297355
0,433784085288868
0,421939044384259
0,483273611239675
0,408580023165311
0,511082736233196
0,456342545345981
0,489669143888555
0,462247843030652
0,486112033796494
0,482970567043956
0,472812517660252
0,514334654935102
0,513438346730991
0,510210746297387
0,522671267960398
0,519847025120294
0,531283842254896
0,533309607512409
0,549761011060875
0,531771102644628
0,586112271149171
0,521036734213785
0,777635998394096
0,577822965668046
0,583784318538037
0,574965931904227
0,576311009891236
0,622696869585984
0,590800296093934
0,657187204748604
0,611034420779805
0,606412582292141
0,619981294749243
0,608938429637165
0,628786057343642
0,609536645872568
0,63968364947764
0,598782771911665
0,678628656549295
0,598356387146159
0,646504219193201
0,660803881334337
0,645421817549596
0,630879263759206
0,625917389172599
0,621319600463642
0,633895364758865
0,609075119937279
0,621586387208957
0,626061067660821
0,593835760640166
0,609013452510937
0,578506872634299
0,624194010274001
0,606595063597307
0,577119810307593
0,57432507275231
0,563025079180262
0,582857146524343
0,52683297688833
0,566458238954975
0,581150667168282
0,532644277242679
0,534458633450955
0,525684778378089
0,513556353158554
0,515463531382799
0,503719022849888
0,491888370864113
0,490587211285919
0,479342326915412
0,474821278597102
0,469518059087818
0,461391027546972
0,447259337975239
0,452626429352106
0,44716397834473
0,429345610404325
0,429577111796437
0,423045016653635
0,415606764208162
0,408746077480799
0,409976730799013
0,395395603706492
0,392327799768787
0,396440882671704
0,381269733062466
0,383970227877473
0,381762038618927
0,372141117002461
0,366170375016342
0,360108012854186
0,354013804395011
0,355047414447303
0,349444260691288
0,34274742231167
0,344241878337847
0,338305321430165
0,337059662588088
0,333247276193725
0,331463373349665
0,32322264086432
0,33547168534201
0,286167064082074
0,386731038307776
0,323267281747715
0,321899166509798
0,308901086370182
0,306613328901137
0,310497935651191
0,286263556154119
0,344720778532479
0,315106799761
0,303408572072376
0,296655796378903
0,287165386986101
0,302128610067189
0,301902693485453
0,284282851852277
0,301155464866052
0,251255813922452
0,3338791378509
0,290924857945422
0,340996550001185
0,331488780576992
0,295889708623832
0,267767525070119
0,277165525383613
0,30727200983937
0,259132516411737
0,285785376547021
0,246800030791555
0,311393944593044
0,269982318056551
0,26611471412768
0,263451218059842
0,252588617059464
0,276116020871925
0,286809714526161
0,253466090598556
0,27123855335895
0,276029657293816
0,255128843799384
0,284284243715337
0,296156193836039
0,278067535786875
0,244949539507945
0,253930214534783
0,24856614912944
0,229178838753836
0,301432444603375
0,236851489205954
0,267716781927704
0,236773470958295
0,243192641942682
0,234076036394286
0,250672182563201
0,244609283132136
0,231335219595148
0,285456806508488
0,2149063709614
0,258532085025231
0,226517840365733
0,267144011386238
0,263763312056343
0,253924445436429
0,213584094860763
0,252856093599805
0,259864267755986
0,22550750339626
0,250129565553924
0,224658560174386
0,227093671415325
0,247929341953969
0,215398781022446
0,242433357951199
0,232078464674432
0,226812373343945
0,255076453810094
0,25776800597734
0,266924423080515
0,230682928020879
0,215650026184825
0,220887461698195
0,211891069287989
0,231955111392905
0,193325997824646
0,258329191922739
0,217541807332359
0,200450230005376
0,261662010008711
0,214935015381285
0,211373296873103
0,217863380366017
0,210165053171945
0,210015192743453
0,214427754804962
0,246308471443373
0,216180538190426
0,222856674542382
0,234777164869139
0,210217755717364
0,216040198179037
0,205254341788019
0,214144537679693
0,206016885752112
0,222483437607192
0,210029239354874
0,210925564987916
0,215951110012265
0,200700488924775
0,21334743839537
0,240713621980835
0,186995106157487
0,252871185442565
0,18607494667516
0,271334662159116
0,217030331214092
0,211763933092972
0,211543296751735
0,204943699032948
0,215886501500463
0,204702169315372
0,207386359161392
0,24027213623217
0,197945340065859
0,227325538152277
0,201224052418643
0,220175394980119
0,191688560648588
0,241701047741769
0,188853025382884
0,27530676812905
0,236482763798257
0,223682945167976
0,221002073653547
0,199826848016201
0,218343538423667
0,209936326243954
0,213617159169576
0,210272214892019
0,203781484630255
0,229816232991616
0,203162155557969
0,215096883690308
0,20501541464506
0,212776903710768
0,203280223311398
0,206451939613839
0,208060084680906
0,208900944594732
0,206253593906836
0,211318039266784
0,178449727033754
0,275551565342165
0,201844741802403
0,219497062049106
0,202251217731299
0,215095009252743
0,208543962068791
0,202603760490379
0,220285530583531
0,209942510390419
0,206564402823055
0,214068553476086
0,202634708510341
0,211244566800989
0,195081951710906
0,236150551775937
0,188849817294128
0,232152031705769
0,183811755418014
0,236371222499134
0,230595046099538
0,207997413146663
0,227249467188858
0,204963886505052
0,213466042300841
0,200887827881932
0,209519139130637
0,205242214991199
0,21014098236053
0,204551323566042
0,213594407328422
0,20529448709008
0,20621022951719
0,207164284337201
0,202670048421815
0,225692719454531
0,204855269025865
0,212694723817579
0,202104108927829
0,212993501077992
0,194911075047834
0,224666186939108
0,214864473523667
0,207740014405628
0,214058244987085
0,208841086731299
0,215933170784161
0,214627583261785
0,201856342009566
0,212203064788387
0,200597665706262
0,210314058193555
0,200872542314685
0,212083016008578
0,230424545491447
0,202538756929181
0,211199680767543
0,199193001621738
0,20891345429934
0,203820159374077
0,206411293080046
0,20088924773551
0,209728034566013
0,20201274830399
0,209701559432821
0,204992538971281
0,206390909206168
0,208639822363021
0,217404164249747
0,216806038623757
0,207984122485348
0,208494154229153
0,205209534066661
0,203433511961294
0,209819125347668
0,206892687649924
0,206942950465078
0,205630883159816
0,208865535890008
0,193837849449704
0,230116492650701
0,196083587387716
0,215109859011699
0,202088230475592
0,202603616150025
0,203612359251588
0,204881382882772
0,203722291325471
0,200581694780381
0,20436898389827
0,201321112381547
0,205039096491494
0,201312309756479
0,202695762815136
0,202775639025483
0,204262777865104
0,200179717894662
0,201453905237575
0,202252732523976
0,200866451109545
0,201968417766989
0,196844542998356
0,202095349094909
0,195971335615402
0,20893723821447
0,206461257432427
0,212874477428113
0,204564492837206
0,201483643339759
0,206982652736248
0,196756997339237
0,203457376818014
0,194236989593641
0,201414916291807
0,198104304267347
0,203082041324249
0,196713457506052
0,20125457712674
0,196083558308196
0,19830101677923
0,197482825948142
0,200424249315433
0,195494615903531
0,203138339998556
0,196300817923857
0,201903276400582
0,197438906727695
0,20334458628297
0,201908900237673
0,20023832965575
0,201359622749781
0,196006128173021
0,200234713695846
0,198419486723306
0,200061966954578
0,197006144272747
0,198757691550201
0,199740506019931
0,195989549172504
0,199925344924876
0,19688296921477
0,197849491391269
0,19463797872801
0,196211784282623
0,196325419040672
0,197807139218862
0,19620359904949
0,196582184718121
0,194452179591351
0,196665081307034
0,196336059786919
0,199510120180872
0,19838162695031
0,199010415914571
0,196658754191022
0,194042803962908
0,194302725636537
0,197644799672333
0,196882468837672
0,19489446359598
0,196944270934809
0,196276807979158
0,193997238929058
0,197421828396003
0,195745511137612
0,1959912588778
0,194271278623899
0,195157923211543
0,195520027634756
0,197117341437636
0,193212029679807
0,19500123936554
0,192897551571375
0,195210516115471
0,192974355918791
0,192955936492022
0,194390365971954
0,195928801495684
0,194882107883485
0,196864641195522
0,197600891236387
0,194426095122504
0,197222286801755
0,19706524766073
0,195293331272505
0,195802775030566
0,196798505035964
0,195512447216993
0,196444415035086
0,195699026989269
0,194236607597716
0,198180763283726
0,194592814410675
0,196800939807046
0,196864596471931
0,1953361985555
0,19546541998666
0,19673126403952
0,194810385907834
0,196997838912069
0,196576970179073
0,195718734993015
0,192306014259395
0,195761032236072
0,19484310011627
0,195546366030104
0,193804975925073
0,193638639021207
0,193407344032576
0,192382609932627
0,194229435367356
0,195429804707066
0,194338927718218
0,195684152342751
0,195294544729516
0,194779047712703
0,195741869428
0,196015573337858
0,195656642446274
0,194086094762499
0,194450587150544
0,194410837230336
0,192598765715817
0,194395447887887
0,192506750444022
0,192724185271421
0,192210587566034
0,193115101539031
0,194182987360875
0,193695558391771
0,192452980551701
0,192996649643808
0,191470099403193
0,19035824924144
0,190780508761539
0,192290421904958
0,19077361981429
0,192249156357823
0,190275899544494
0,189994206946105
0,190680574715253
0,191028682610667
0,192082642849248
0,189499677608005
0,190491338437256
0,190724584995839
0,188577907460081
0,190716610636927
0,190671407023915
0,191407844097564
0,190329776750954
0,188828988648298
0,188129294165252
0,1904656710087
0,190282435607098
0,190329275002399
0,188390491614698
0,188924009364862
0,188581267414476
0,190802066040695
0,188553079918832
0,18725381618009
0,187860935821043
0,187994671762773
0,186389550479923
0,186917568220395
0,187495231776212
0,187143982978328
0,186391896190994
0,188213287264484
0,187458262680451
0,188507587002074
0,187528326670945
0,188596503593405
0,18633871750906
0,186525102312308
0,187929753382988
0,188537856795389
0,188898201816999
0,188531331925608
0,189480832916044
0,190735738317241
0,189834043017129
0,191591984903789
0,194190915537714
0,192183157086708
0,19351164283013
0,197276856557338
0,197654800440744
0,197304983821649
0,197656148878506
0,200061624578239
0,198976564929039
0,20103965798863
0,20128984416173
0,201981119175783
0,202609704476779
0,204991510986183
0,204532886140254
0,20527460047429
0,205890648275329
0,204648516219253
0,204483360438459
0,204264032257476
0,205039689576133
0,206796393032847
0,20656106353916
0,204412892849582
0,203216251133172
0,205327864797448
0,205084967073379
0,202332830196461
0,203653271150921
0,204338663340842
0,203494902654603
0,203154627174465
0,204743815614465
0,205735799157433
0,20298793585167
0,203546912380825
0,202331537179314
0,202334702279825
0,203660673641026
0,204283175427343
0,204694644402928
0,2038792316288
0,204002222593852
0,203764591738062
0,2069642052239
0,205108747189377
0,205786982010813
0,207725133662845
0,206603702415514
0,208076034375562
0,210466118480855
0,210746432441859
0,213429168072255
0,215487439850625
0,215848631260385
0,213244838531383
0,214550233123598
0,217243392061786
0,216565621201054
0,214441751360496
0,216274195695975
0,216444622160962
0,213916122681062
0,215642914137635
0,213258881715778
0,213281791421533
0,214934413472065
0,215791588655482
0,214464953510979
0,214152366411994
0,211443814990515
0,212044328617775
0,215098664750537
0,215323893559415
0,216452161894219
0,218531202834482
0,219582529141453
0,219385460288035
0,22052424910259
0,224186773428892
0,22446219263941
0,224254950351219
0,222508488629977
0,226656959846819
0,227348401128011
0,227875270416659
0,229713337568722
0,227742468995172
0,229041355355328
0,230903559191115
0,232463812705418
0,233275265855458
0,233546070787931
0,234269659027095
0,238773010959599
0,240881848258993
0,239327812627315
0,240990555120245
0,24658509616569
0,247444357262432
0,248546015229525
0,24914780221576
0,248656796206319
0,249988324308741
0,250451187999151
0,25193312682413
0,251828852966467
0,249956054832428
0,249535834361603
0,25010302636839
0,249637694768383
0,246508332200534
0,245221585546258
0,24577670724097
0,244548900143179
0,241714129070715
0,241312451596354
0,237763117816407
0,240650675532813
0,239963240927562
0,240299767428289
0,240329335844055
0,237182312728127
0,240781753235452
0,240044081743869
0,238495749820195
0,242527734450674
0,242259148113556
0,243680260191093
0,242444916266362
0,242354669579713
0,243961299709014
0,244642484663128
0,245022525830435
0,246441646936439
0,248399885125236
0,24794005618679
0,247657442624572
0,24843441184431
0,249346624105218
0,248014938236244
0,248314060033193
0,250339570204584
0,248133381716065
0,24922733533927
0,248119595639587
0,250028267148268
0,251106622499408
0,251900280202903
0,248513922122957
0,248414729806824
0,250120121222097
0,249111813753515
0,247996663830354
0,247640947045194
0,243812501451221
0,245362833160432
0,245916844373561
0,243007227019853
0,243015873181724
0,243592846536438
0,243076815405689
0,241065579500026
0,239891456167902
0,242911338091799
0,240175854062285
0,237395755242416
0,23519084042561
0,235928713745664
0,232973900141736
0,232266379320359
0,229352782203921
0,226303914512926
0,22615345228297
0,224797125526002
0,226662601967313
0,226618176917398
0,224417583078512
0,225478471160981
0,223990964226173
0,223012490157864
0,225148366477247
0,22759965838066
0,225373837590935
0,225583274358698
0,226903381678204
0,229063701664359
0,231108868879423
0,230920268048751
0,227259772437205
0,229263025125305
0,230060645593934
0,229571357009708
0,230702472804121
0,230851232475534
0,230765887193295
0,2324247121077
0,230798800944418
0,232019452225324
0,229049397844147
0,230697259037022
0,23120707016582
0,229298051352042
0,230601581479474
0,231500473792506
0,228653338862311
0,231909823903835
0,229587892346479
0,233472762470144
0,23164574784305
0,229909026966377
0,233284427846821
0,233267501406783
0,23512936479209
0,235247808213384
0,234341172714487
0,231910528374813
0,234973355342335
0,237111090506328
0,23544053371776
0,23558440424212
0,234169393789972
0,236521606459839
0,237631536427379
0,239197971427928
0,23794481379226
0,237031459675119
0,245137487605836
0,246731147185827
0,241776208871183
0,244609312588121
0,24790415334106
0,248625774439534
0,243835244661916
0,249253498854863
0,250330051468073
0,250387897077069
0,250293249247024
0,253027874306374
0,255051465873164
0,255637889139252
0,255734013339059
0,254560977709892
0,259907781051369
0,263113064133656
0,2638712053425
0,265798786777805
0,261411490447936
0,266504059358311
0,266477851976774
0,26654818863607
0,268281409377207
0,267477247051763
0,270877456159261
0,271752810516433
0,273958797223821
0,275545760320343
0,273634730533807
0,282668485189328
0,280721015080512
0,279639508249186
0,282424216840044
0,284916875291728
0,288656237217522
0,294370713778158
0,291186206903043
0,291648398985969
0,295605788914832
0,295231649350906
0,294944149611842
0,294167247744645
0,300863988914933
0,304719430041415
0,302914745166647
0,309002567332666
0,308508489999663
0,311078598164611
0,308479853009896
0,31493588429269
0,313862470647645
0,320354440770581
0,317652100709238
0,320260921069327
0,324153633194459
0,328535720992683
0,32879075992718
0,334754433729292
0,334510703681117
0,332761318471668
0,336174653778486
0,335085275054031
0,342534919259492
0,342593201391733
0,343234423052147
0,352518605728169
0,350248216131892
0,352622742647296
0,353148216204413
0,358382625150681
0,360464152760448
0,362588699083075
0,36843965093013
0,372032561743833
0,370985189862352
0,375027721556849
0,374383390396431
0,380510881967577
0,381302171998282
0,388780723713806
0,390604343486394
0,390421684076298
0,393572103482827
0,397203541370823
0,398148753234822
0,404452639904495
0,399896424884726
0,407055094680535
0,412111348233829
0,411963009756537
0,407055460566977
0,417368622907135
0,419625199472273
0,419619904436082
0,420551985454246
0,416854149528508
0,427176927716141
0,436372112464515
0,432455347220976
0,438524221082601
0,440516875966722
0,447910433933276
0,453665937702127
0,456135190543721
0,461863846084761
0,46384649440716
0,45925619564736
0,461984166977199
0,468756443561797
0,470113925717566
0,478178412803564
0,476740332864193
0,474371049339166
0,485595991856246
0,487067526507974
0,492685332946575
0,497347763068894
0,502212632244828
0,504350938874557
0,514809949799591
0,506266133542866
0,508972831617719
0,511082717017393
0,519294826878857
0,516940197530648
0,517082838589387
0,5250294253233
0,521960836095904
0,526981948098748
0,537838026685017
0,531400460163795
0,54489050940689
0,542128709383682
0,552232049846038
0,54825293740387
0,556135766656663
0,559435786441333
0,551414798498867
0,557157479540954
0,575639577166482
0,572457256920722
0,582091698792929
0,592005952981449
0,586547425320165
0,584349102002071
0,585228438968912
0,58730043615654
0,605887541976238
0,601805249101878
0,590527446018958
0,607069156363902
0,599352131275799
0,617933882501398
0,638290566349496
0,61754706788319
0,62434829190669
0,636224733723738
0,626827438685907
0,62890530854445
0,643319185055439
0,643369432578766
0,642945764892579
0,646762811022385
0,659076224197938
0,662118938211184
0,652075417909628
0,660944717272801
0,680417776177248
0,677523124230665
0,671779246092258
0,667767395952329
0,693650666866527
0,695532227323325
0,677715274941469
0,682534002283221
0,704209938139222
0,703531005736556
0,704106180326065
0,718567657764065
0,704246214244446
0,707547173766192
0,693744077469689
0,707910601540993
0,719799765332938
0,719634082511829
0,749064432584282
0,75020302342487
0,77111674049727
0,770436712038522
0,771184188060085
0,757478911174612
0,747627137886454
0,766143789590216
0,769961204311897
0,786073194635673
0,780712903113749
0,765753388835715
0,751507286817698
0,775143966914755
0,784309875066742
0,789700983244305
0,82817445222099
0,800553673352507
0,78423816759119
0,80911937504126
0,780479157428524
0,798745408952414
0,818808326160392
0,830373188672406
0,896566455932996
0,843975397851435
0,832791774926395
0,854641063307697
0,867528266764101
0,903206868647173
0,878716942295259
0,892799176168469
0,874992753380969
0,878409249968255
0,911142941606995
0,893792919748416
0,870901121146634
0,834757623038947
0,872045237463014
0,870775510508767
0,822460075187092
0,890509159020235
0,907073164875869
0,888602423643303
0,955073865003603
0,940955256666577
0,92968217207965
0,8782124378623
0,889677084917159
0,9285157611846
0,88780091647123
0,91056967643114
0,971734910959907
0,967736866609885
0,996435865581057
1,08544628101698
0,98735070676541
0,869377134785679
0,928676045782168
0,981535413411401
0,964021115204099
0,984439946022339
0,915742831244043
0,93180905049589
1,00760903763874
0,946226087591413
0,992459000316312
1,00319815787263
0,971952860892432
1,05332059974648
1,03113254879672
1,08044372292947
1,04079713335686
1,10357460801535
1,06759832963518
1,13323266459387
1,10868641644377
0,996543284470945
0,877237209556437
1,1058588450573
1,05426064452587
1,08477117751562
1,15001380326499
1,06249984600581
0,963791818242111
1,08006238684349
1,08314358200664
1,08246351502137
1,05756254051442
0,972583257246299
1,18056869755535
1,12397415034007
1,20603410434639
1,04629079757457
0,999759007825077
1,38191360766592
1,20195603134584
1,11415185624647
1,02531343658291
1,02666846288696
1,24487369442759
1,17955353899454
1,19102693269171
0,916492714114758
0,995136946057698
1,0046458780414
0,931416074842224
1,20193074285414
1,08600514731383
1,26962437818196
1,33320216255553
1,22327188785736
1,05923894521605
1,20558014152579
1,34073900472092
1,94971490900661
1,22963397723966
1,31747963529957
1,10510209754229
1,07751940385195
0,937899163530115
1,22603407918976
1,27543296275106
1,01281809804427
1,4678014405029
1,12694517990837
0,876058451154812
1,53718098461638
5
1,05436245942648
1,41260061643641
1,20750938630765
1,35864786456416
1,27100534494782
1,23133471573747
1,27895108811471
1,23284654874372
5
5
1,34843898458755
1,60018310722506
5
1,00495648084964
0,58597675487916
5
0,758988715647116
1,23135158880417
5
