3596
4000,36533379555
650,420452594757
1
2
2
0,0654682832829048
0,0598262463782792
0,0631770917075753
0,0511307954929085
0,0639418418642334
0,0587476703248779
0,0672603996575395
0,0590823728992855
0,0617189725680138
0,0569786889223694
0,0693951140860605
0,0627028266966281
0,068183781771922
0,053983074576004
0,062885472637729
0,0566067993875074
0,0537247979682495
0,0563095922768872
0,0704671476644001
0,0591035262520515
0,069391639791079
0,06025409884756
0,0697657222864025
0,0577206801154895
0,0671431137246171
0,0608506489941722
0,0665574278095985
0,0595555501054212
0,0661341920550834
0,0565502698469381
0,0622435657270453
0,0655880854200556
0,0732171747260638
0,0566577282540411
0,0674543161457893
0,0613772646818778
0,061838041156661
0,0601174236977987
0,0652546772132089
0,0527524801749461
0,0717721959482297
0,0518195339454526
0,067856031568417
0,0575437251959908
0,0719928517714989
0,0589033611909143
0,0664191812862197
0,0513594207999895
0,059205418548007
0,0567398310654225
0,067176122718309
0,0550877823173935
0,0739178320324106
0,0650022635982723
0,0578055133478911
0,0570481406204966
0,0688273510102
0,0581623465325546
0,0604525853357345
0,0525054409103231
0,0833971648025399
0,0758095251024298
0,0659984689616777
0,0589265680591423
0,0627627765975996
0,0605279981773386
0,0659000117815889
0,0495049009903688
0,0553498261526392
0,0617504043803218
0,0597836840872031
0,056499130748014
0,077612745895674
0,0554219745451493
0,0739530072134496
0,0674137547928451
0,0710875187225511
0,0558718717846902
0,0632506919627781
0,0618386785481662
0,0832948441438934
0,0599500368683786
0,0651510868816157
0,0517187688773987
0,0706241215843442
0,0670303198520264
0,0603649932887241
0,0554103513320336
0,0879400965052355
0,0626993904704523
0,0638134894680568
0,0572773862456367
0,0670091551406615
0,0560649190933316
0,0667354083822696
0,0569533099450881
0,0627214910381645
0,0593027861449097
0,0672562532720819
0,0434985527730961
0,0644877677862471
0,0469708926431979
0,103023388633644
0,0443287080030235
0,081596338116312
0,0730957906852782
0,0519951549834237
0,0880560418560158
0,0835465683242059
0,0591542500569204
0,0658336641736579
0,0547497919108034
0,0651779694601595
0,0680420638439087
0,0637411828861164
0,058850878083793
0,0978053569631621
0,0582816842910576
0,0717035111441733
0,0570827727620578
0,0515690095400746
0,0597094570272963
0,100585557360648
0,0487407766553081
0,0703130455590886
0,0606612689416898
0,0506179979855993
0,0688792799724525
0,0871964365477338
0,0495994471168386
0,0655967733603633
0,0599487043438905
0,0580952163521327
0,0415331184402675
0,0975525551390631
0,0640222420518044
0,0593474811009632
0,034384460437912
0,0728953836529058
0,0949700558393825
0,0768272777859168
0,0625408427325028
0,0537696359786826
0,0401565990485924
0,103317344555087
0,0693429868754087
0,0549788361533964
0,0622362644596362
0,079404881215547
0,0598633481091697
0,0639441700364262
0,0488594719851936
0,0758862330989562
0,0686847110237288
0,0265604408678313
0,0398112532856193
0,110748686306669
0,0527531370971264
0,110853528629025
0,054080527575216
0,0711468519971655
0,0570392027327652
0,0592263912620798
0,0528442888371948
0,0627873256669062
0,043254182826786
0,0585643393240504
0,0837011021062041
0,0661265208297064
0,0580710026637688
0,0927365895566343
0,0585735037917177
0,0403534585841169
0,105417436181406
0,0880042330026826
0,0395740354738385
0,0863427449421945
0,0627129698402676
0,0534132808291208
0,0587435719048117
0,0916827726326674
0,0579441129843846
0,0679320672762339
0,0539477876416676
0,0680898381830013
0,0694997986533233
0,0711648197981624
0,0547736517371542
0,0654161518311134
0,0375030325390572
0,0679605013459528
0,0976681981005479
0,109912957305719
0,0630742847225744
0,0668152945387278
0,0312757275213506
0,0886407742860448
0,089272190261646
0,070137036209205
0,0652734581737912
0,0660528372113385
0,0571671615210678
0,0652154494785467
0,0554297137230359
0,0637522191258846
0,0332342315590954
0,103146339391402
0,0821184000015922
0,0687614503524556
0,0508039511520669
0,0608045396547611
0,0412047093836341
0,100944971108255
0,0922492963162947
0,0679915594235109
0,0653388646656185
0,0588683845781201
0,0723566850287752
0,089811580842408
0,058600679732459
0,0682482457810698
0,0554558764234438
0,0668681474079474
0,0578346457158339
0,0677085281118497
0,0588322669522576
0,0676713842187024
0,0621780372855952
0,0620869704265198
0,0569974113512721
0,0803830816969981
0,062544702140266
0,0684106031385255
0,0701834052654246
0,0621678904634443
0,0662238857829768
0,0877879044543125
0,0668514339723761
0,0752589893932599
0,0588938556296536
0,0735216666358715
0,0638533136428042
0,0720142239314937
0,0613014586783348
0,0677054316316804
0,0454391158668031
0,103252021378862
0,0721397673606417
0,0751469619084394
0,0572388376559918
0,0770572569606993
0,0785374652574933
0,067271633788451
0,0654465097929725
0,0770721384466136
0,0561235985414911
0,0556502095494686
0,0895635309348996
0,0855815731200952
0,0583300396637795
0,0790962681369469
0,0787577363667837
0,0736047308389289
0,0503610541865009
0,0553045398184826
0,120299783291137
0,0903385021487183
0,0364067818066743
0,138552072525568
0,0867200135048493
0,0891445077494373
0,0574160046813355
0,0307405502928686
0,137109236200933
0,147377500695487
0,073689670077542
0,0716542446685897
0,0847887950636884
0,0800450850492169
0,0751819314765946
0,0783757030525494
0,0752531150308336
0,10291100022547
0,0859134334186519
0,123872613496867
0,0636631087390237
0,0944836768529187
0,101505861560635
0,0823236106904061
0,073477877865576
0,0786089514099985
0,0640485599268837
0,0944754944116213
0,0802904657350587
0,0971349136715221
0,0818497815128521
0,0820567022434213
0,0973406510606289
0,106525448448389
0,0768352954820051
0,0881399151560993
0,0873407547805396
0,0929515179124778
0,084850542784645
0,0855533980720741
0,0855091990262479
0,081836518384978
0,0642619181584204
0,150830451213127
0,103763044555333
0,0990575419927302
0,120741084419763
0,107789208943894
0,0937589245232111
0,102470965662824
0,0889640997080475
0,104077948897307
0,08746084352296
0,0936246555858661
0,114697927482815
0,117457777702155
0,103383747876349
0,114090151263705
0,102432458280841
0,110772879802573
0,112568754251295
0,124229867593959
0,111893751371616
0,12393057538136
0,098673965757599
0,127353747949062
0,144534855785636
0,108392136891322
0,135463089902596
0,172297280093876
0,129879736629422
0,14386690047368
0,130552973049991
0,14834149827619
0,137164391832706
0,152621494473999
0,143416585155421
0,157700774816295
0,16124588974181
0,169933913837693
0,149228034300804
0,163929197182653
0,194780031531167
0,233087322588949
0,190906723152482
0,193651551905889
0,15582273543095
0,209341681448354
0,211755500449526
0,21010320422138
0,218309476113537
0,21471783190875
0,202935170846015
0,218182571157128
0,211208631935386
0,221648166156399
0,217231347759193
0,22784352798626
0,232785974435935
0,250077416476271
0,237166389606408
0,248479525523001
0,233141787133775
0,293618863519596
0,264784023456797
0,268337748603508
0,260891474230229
0,257761606751112
0,282104788456378
0,30392095139984
0,292440506527285
0,323487319413337
0,298834489831742
0,336594740147254
0,292708284905809
0,306089052938337
0,294352702039535
0,323315419336772
0,310097305907771
0,321171297758037
0,321160556609636
0,329766671444459
0,321423682163201
0,354357416025049
0,330012359964226
0,344689407428725
0,334391913369877
0,374787779660223
0,349165670422315
0,374143446197147
0,35158052427934
0,373773690178557
0,392848006082134
0,432389061784635
0,376042490548569
0,38089054101176
0,370440293837927
0,38809394828411
0,369108289809157
0,410349118983445
0,384918914537087
0,40807921400968
0,422072496982379
0,443045477746461
0,412792092942138
0,429923310702448
0,402335991432307
0,446840163875731
0,412212160720005
0,44832588780404
0,455171641992402
0,45303278986083
0,405212369337924
0,483850665911938
0,458731879422602
0,461250135462679
0,474137705288471
0,449522664356874
0,451902460167278
0,465775358802698
0,458199446725116
0,489585446264636
0,460192956532135
0,485492198092508
0,480548448434021
0,511854532125847
0,487888386964819
0,501384654649083
0,486767131383672
0,517824144090477
0,491360169050383
0,515528702626616
0,483288116847768
0,528646901559427
0,496461758304683
0,575812928063187
0,506067515588404
0,555016983747021
0,53551963465786
0,531849145019532
0,523489942005137
0,555951240754501
0,516618609302878
0,54668377697935
0,518584321180549
0,576941787723631
0,530048656939425
0,567366894980346
0,535420110300312
0,580260713008285
0,561705328937554
0,581260890830755
0,54374227667621
0,580979259079178
0,572182340187808
0,60784470053379
0,56729080020382
0,635247457231566
0,608342318768466
0,65043401336722
0,612902535602752
0,608639053277841
0,607656054121813
0,642334917162676
0,594303437027737
0,631841468370072
0,599935728631322
0,680538968850782
0,62223273192552
0,661158293554152
0,632248387035678
0,679085520695977
0,641503276046456
0,684724267848021
0,629376802267801
0,68937774584501
0,654150031580758
0,713898221090165
0,650000444583193
0,753046066866585
0,677355786784369
0,712532841084738
0,680548448091343
0,725848688104024
0,684748365235666
0,711901715221559
0,670946081764326
0,757370469047039
0,686905260356976
0,757815436646531
0,710262693570607
0,765651689072544
0,726905914000198
0,763219796274693
0,748752026121407
0,780144195556873
0,72288663665791
0,782666598899291
0,751704224635675
0,80776792831289
0,724639047012566
0,812630927155497
0,726956235542969
0,772107204830402
0,720297545969454
0,83122536491425
0,760171713844939
0,820879843212692
0,751833573194206
0,836239461971687
0,798059286303102
0,91216667819276
0,802959096783133
0,846688224710596
0,778683371936754
0,905225910342434
0,801797873736005
0,819729681910598
0,835240729681984
0,934351374141314
0,828402032013127
0,880369728967466
0,82353445480509
0,87026146997864
0,831810560688145
0,881497690664387
0,806376614761034
0,870717395693007
0,888451654118692
0,873869933485059
0,864009853936304
0,908440090529314
0,867812913325843
0,999601893335149
0,907509371259153
1,00637350215549
0,885951446365025
0,992734355168955
0,891588615663599
0,955992380247259
0,85181812313898
0,931863910188127
0,905595977369798
0,995325916005703
0,946009626522625
0,989483765470019
0,893769724826978
1,07933839009823
0,965257701045395
1,05402426333244
0,921986295652557
1,07237453350577
0,917442042654339
1,02609898056253
1,00493749396121
1,0724988961403
0,971673865343115
1,11725402137663
0,955383124161982
1,09846782270626
0,954192676904348
1,08355718580355
0,980348721028808
1,01099375853542
0,990953795397528
1,11186475111325
1,05462612365242
1,13527018546289
1,04214677005062
1,09446265664215
1,05058827965131
1,1202873711956
1,00172997462706
1,1088504504513
1,08671623771022
1,15347613270431
1,12360535249402
1,19782590066277
1,13445559713193
1,2287004206566
1,07444698907386
1,14400999351205
1,0316295686806
1,17270715444985
1,10860147970145
1,17227325936111
1,1098233114094
1,22731417962675
1,12827657082355
1,22456317728974
1,15089502468022
1,18970249585298
1,12316321450551
1,18351306261328
1,12483997869723
1,24506904604521
1,11683432114708
1,19175517622906
1,1357878734984
1,22468321741987
1,10634401613342
1,22975316539408
1,11872633104618
1,25712875633025
1,17678186006378
1,34218867102933
1,16761437108267
1,42287672539437
1,25847896870311
1,2639287793054
1,24069042652549
1,30264396597028
1,19526254911888
1,34970822694398
1,38488146321493
1,39248282914176
1,21640665157769
1,26496357583779
1,20984824183384
1,4170700502252
1,15305059631313
1,33924843261177
1,2359475018766
1,36210935950073
1,17592835897862
1,36746932470313
1,31195946322453
1,37677791526122
1,21594759632017
1,4699556327084
1,30295683970786
1,57989710207913
1,24132669119683
1,3779231527886
1,21477859820759
1,4161815156462
1,20762148836336
1,57912266396128
1,26367239549457
1,42374165017334
1,30975260237391
1,42365876519641
1,31963338958384
1,58443219495389
1,34712604791733
1,56965290321877
1,29109464419027
1,4918588170641
1,42768702242872
1,57049014511007
1,25311781076809
1,51929513089467
1,37528154983759
1,51998561596361
1,39196478798602
1,5697035281657
1,37256647154482
1,66832863353874
1,43504322305452
1,56439239788411
1,39089517166068
1,49755758218669
1,35625569085647
1,41553136711413
1,39922938725602
1,64161749555002
1,41794845031773
1,34914501833319
1,45408243107071
1,38894429173164
1,25961812946013
1,60934911657784
1,35262453643478
1,47357598033165
1,3864205208343
1,65640753734372
1,73802401303554
1,46066625457281
1,23635041944278
1,63922990184049
1,40714515800667
1,80819381628402
1,44700761737013
1,63960173834631
1,50805826253439
1,49326827649354
1,53625520634437
1,60323437340582
1,36785211969037
1,74306831379744
1,32427253676622
1,60932480741062
1,57850546547111
1,44725402564909
1,37731724690092
1,48135243043335
1,45881879782703
1,77395805331893
1,36799989424487
1,51564004908235
1,30939779529366
1,51946213668287
1,36668007617038
1,48354904885095
1,35513024472673
1,52730199061215
1,50936969507594
1,66815826798481
1,48239569728974
1,61803990421642
1,4174185950302
1,46467020405076
1,36769348271767
1,56012133059491
1,44285829033616
1,69754958593954
1,35609155121239
1,39013738839606
1,39610626241138
1,65016762035322
1,48866045876848
1,68841408325634
1,4022898092063
1,5466800178938
1,43835048136745
1,48693743788289
1,37601750935124
1,5934277503716
1,41747238127115
1,62376750482634
1,39975089849958
1,62413399662575
1,32889984715993
1,48486855589472
1,49141070062418
1,66874869507321
1,56910144057198
1,83983354942504
1,3813997332663
1,58792921896649
1,38781997585623
1,48575279561669
1,34604324565951
1,47005994125342
1,47035848281593
1,67852644476885
1,3298026747117
1,5904168364561
1,39147456538794
1,7894368108156
1,46736765933903
1,64883993841603
1,40757817851741
1,47949443238487
1,42767290724251
1,53058028852384
1,36150600697478
1,50051686384062
1,40725788641159
1,60010870741388
1,39975551947912
1,60143086422801
1,40575966361058
1,54126024460311
1,56233563247357
1,54489360954951
1,42685205810424
1,48883056421347
1,46145075894516
1,58521307920727
1,38517282133422
1,6224716483604
1,46746156468509
1,48499180380389
1,44640383838516
1,58222476003241
1,41498710756051
1,56465041512177
1,37608945295243
1,65015340571227
1,43617163031032
1,48316282779232
1,41943449779295
1,66990619197801
1,28377579171925
1,59281423458001
1,4217520966966
1,54696672053942
1,3761389282605
1,56130839139327
1,54502433375436
1,56518464117043
1,37641651366245
1,64422513211422
1,43703679293105
1,39832847543668
1,34842232131658
1,48882350059603
1,44286451545736
1,61594924169144
1,38785667474264
1,79113612191963
1,45516997580667
1,55139407373449
1,33471053218361
1,50930137116825
1,39841458843443
1,58903298351565
1,3652219129326
1,5115394282942
1,38422920483797
1,4974109100039
1,35573415907389
1,63649553440599
1,31865733392833
1,40334641907347
1,41683081371276
1,51872206472452
1,43523266632402
1,47000549106272
1,33557203323956
1,65535561539633
1,37592243007355
1,62897999421176
1,37894098632251
1,41701749813684
1,38625132347241
1,47912854374293
1,43144770138738
1,51258724256902
1,39466634548033
1,49158822240661
1,40894249610859
1,46364282229264
1,40316893799975
1,46352065786611
1,41429265223801
1,49729267138142
1,32651186537609
1,45856429710916
1,36527993336196
1,39830053019318
1,30401581567078
1,53809225706846
1,31372518850219
1,35108221423163
1,31471272246755
1,42924387556782
1,32135512681419
1,35227076912383
1,27756683921727
1,34786857348759
1,32316734028535
1,3497616271022
1,29672685330805
1,4045761177018
1,30255528922204
1,36762990954779
1,28020333578351
1,37141907479533
1,23886302686657
1,32995078004401
1,22931609551214
1,34789455687108
1,21178507746854
1,34630037644981
1,23328915241992
1,35468316700926
1,20815805440796
1,26879570428987
1,23578578745608
1,29938000328316
1,25841655951347
1,28759410295311
1,23506473257312
1,27245440022944
1,16655418075805
1,2820284329293
1,18823573983119
1,25209825176627
1,19534530070977
1,22205214474828
1,20479243104298
1,22037497360206
1,13568199278239
1,19296565969523
1,17074363480018
1,19391018085144
1,10670063947494
1,17796838393166
1,09736761320209
1,14728032113883
1,13507003023295
1,1915832309779
1,14327300810898
1,13873189924997
1,08906508601266
1,12941254651294
1,06277231777307
1,1519944523862
1,06592979508107
1,09065645518781
1,0349911584215
1,11837553143734
1,05835811940978
1,10765277502268
1,02925483573522
1,04912121685382
1,04567249938721
1,05397694312948
1,01173611139275
1,03479612312967
1,02755343167363
1,04852911141647
0,952691694248505
0,989194292013576
1,00114507327897
1,02261590095053
0,966159685144878
1,00224428185926
0,978281284046473
0,997115138468503
0,955411497580023
0,967174184264704
0,922035870779769
0,970040522362137
0,91481274158641
0,954175263938685
0,907943243015972
0,958307746204983
0,886216367503381
0,903342337476802
0,878611640299014
0,942453352899713
0,893921274015537
0,887839829783588
0,882827016049291
0,905579711572861
0,84705789677233
0,870640504833664
0,84062810273747
0,87694525741694
0,821604201868775
0,872228060610697
0,816083611741476
0,847840623011095
0,811159894352882
0,838826052925352
0,817844013072091
0,814049966350511
0,800764274679498
0,8142222154656
0,803907629845764
0,80811706948705
0,771269460005711
0,78273626167041
0,755119102424346
0,780206076430495
0,754678989965603
0,781639282694054
0,756081824310376
0,772878180249692
0,73681398982198
0,752105676824957
0,740742593642623
0,755842286310412
0,704229053384738
0,739324687819501
0,694312611195773
0,737185085160269
0,691036547548729
0,702070083698683
0,691564303591955
0,70967364957085
0,670235359114959
0,69266527571774
0,652239980953942
0,663096891489273
0,675789966795212
0,674207155482536
0,658728641486033
0,661062417642728
0,650598763919049
0,646979513051299
0,644594413595792
0,658242982712302
0,625642395224629
0,642290373859607
0,610784670566727
0,636376654000888
0,612929719106723
0,625670261819087
0,602860121124271
0,61029589007082
0,591908112152804
0,602100984404513
0,593690983441706
0,595676841541878
0,583513837152544
0,588642680966525
0,573756646887836
0,583183781808392
0,565043212915455
0,565663670935873
0,547306850147078
0,563597554284013
0,53530145292024
0,559827008567953
0,532457954131212
0,54987708324705
0,532191283982034
0,541435460932731
0,532327890106308
0,538911700942085
0,51630224172608
0,52222986954271
0,514214804587133
0,524718506412651
0,50010538235174
0,511967843010869
0,494065189713363
0,508531393498952
0,479170116846358
0,491506980721169
0,482583434707381
0,49367424396815
0,472398049763468
0,491566974625575
0,470564056205765
0,483851350799497
0,459039682903921
0,474389597049543
0,449855878832046
0,462167352147807
0,448305319317212
0,46108210497291
0,436358077619919
0,45788366068215
0,435606428994685
0,440205776910321
0,431432733695502
0,432753045191637
0,424090592923989
0,43479943467442
0,419698212717396
0,426948113919458
0,409447187809524
0,41908105832742
0,406042662454885
0,417858390858919
0,397826052666786
0,405050573362286
0,390522626861696
0,406971128204882
0,392441584005876
0,393608354522081
0,3833062407991
0,395776062091844
0,375332981127712
0,387250247626012
0,371878820322013
0,373584514793036
0,36555248947472
0,381364047201173
0,369008634054664
0,367427502598784
0,3618894599947
0,36887646088551
0,345779504557635
0,359788369279758
0,342703553197089
0,351866180339298
0,344269804446019
0,347421370237168
0,345352000673747
0,348309016729398
0,3270364758506
0,339632431077477
0,333434684742086
0,336672157752164
0,333642933670185
0,337482371281224
0,32757189963964
0,332482006070536
0,320471188210231
0,321443620281644
0,315132827684179
0,315976011179868
0,309523560519449
0,308711784975396
0,308472474763264
0,306705118033711
0,302156911334698
0,309346509818578
0,295390540287835
0,298601944154929
0,296977201279034
0,299909252258279
0,29404562177183
0,29834515927904
0,290443829906434
0,294008404426773
0,284505358575883
0,290057426509136
0,277781116413258
0,288671920900395
0,268125838831519
0,284704500680194
0,268676906953736
0,28270823137022
0,271227546303451
0,273761417704279
0,257374142740725
0,273364005768824
0,260878229154955
0,268081945361441
0,255765167054499
0,266228583288284
0,253485081528553
0,264373348432373
0,253420336326272
0,256075831789474
0,248540267172922
0,261151206795078
0,249063207718195
0,251634826790365
0,241841871782591
0,245539432808419
0,234189862222676
0,247781019280922
0,235590441358692
0,250060886169474
0,232976845278243
0,236189948520441
0,233290670942214
0,239140195028247
0,227726223575718
0,234528705153104
0,228691545803549
0,229767708371453
0,220980572573927
0,227629947210125
0,21706153559215
0,224039982568026
0,210515635698701
0,225812251479279
0,215259488500264
0,220318590572946
0,209201852292021
0,216446815241458
0,204253741554979
0,215958525667074
0,209040390001639
0,209361061287036
0,202469799796706
0,204787223042935
0,199839735028027
0,205374590740887
0,20270464271714
0,216671671749471
0,199358707864158
0,208352833106472
0,189715976976716
0,196678368013833
0,192824481809203
0,199344786099815
0,185971307204019
0,197629028971519
0,18581920681112
0,192343370736421
0,191928087222223
0,197044966119479
0,185058488940858
0,192929021435946
0,184297802215479
0,187565551642188
0,184140570929761
0,189266579339332
0,182352336159738
0,190357761250123
0,178901253563852
0,1841686754909
0,173381825283501
0,189456749477015
0,169315801592306
0,178652169958379
0,172662954861412
0,18121910546176
0,169526045785251
0,177783897056945
0,171722075759169
0,174368335219125
0,168961605726386
0,174951213315076
0,164329638494223
0,172071753064165
0,163353955576493
0,169555179973174
0,165622661176758
0,166056798536532
0,159732619596953
0,168581894313805
0,157524395421143
0,159073548591521
0,161028923753698
0,166424988134023
0,150910943996725
0,159503840731156
0,151574455710934
0,157652517198865
0,149377008818213
0,157827742463845
0,15065139685672
0,155294969097414
0,152322908239033
0,152681151576453
0,146726484966046
0,152549057182149
0,148621615580807
0,147825062869016
0,138712990858641
0,148222990977434
0,140533013750101
0,144326958848465
0,138095451014582
0,144241940944036
0,139210078253076
0,14488842488648
0,131309458158436
0,141463544589397
0,136637082664998
0,134778571049213
0,134857613119807
0,138340821847707
0,13474166007148
0,13878511268101
0,130994382910579
0,13728353086445
0,132141599705792
0,1350204004021
0,131166520479237
0,135349344469772
0,129974702719859
0,135757069586911
0,130532402961651
0,133592726302784
0,127222585509839
0,132459124183108
0,127027724285555
0,131342460347018
0,122965076980327
0,128695826152295
0,122683636124015
0,130610432287485
0,126273705519545
0,132020241334825
0,121607946842745
0,126424911623464
0,117890215418229
0,122591866484021
0,11992273871662
0,125056359711452
0,121124969614218
0,124036816987237
0,114766524629377
0,120413450636217
0,114238963124044
0,118532830144363
0,113519814182393
0,117970532428196
0,113307498520839
0,117405217687823
0,113065504479239
0,119194572145036
0,111648819222723
0,118446876839503
0,111281882035085
0,121043718538985
0,114848857384675
0,115171597919893
0,112212540677361
0,117463472824605
0,107532831358061
0,11176543659046
0,106014643906663
0,107243241508602
0,1078765519251
0,113288047207995
0,107966064435219
0,11408253882849
0,104068473566245
0,112529238965119
0,102733041381551
0,108257541176537
0,101631373112037
0,105971255513524
0,104153215095255
0,102748066326552
0,10224810396727
0,107262096637238
0,100862526349303
0,106371268852518
0,103683294621132
0,106783030246275
0,100058755153901
0,1028577593997
0,101178423329978
0,104019105481165
0,099584438879705
0,106431458922778
0,0983573118905555
0,104929879696314
0,102441904649801
0,103252059263422
0,0932833005943749
0,104896401173951
0,0975151079607183
0,102964730176157
0,0950294264243498
0,102245947901694
0,0941812264552275
0,101707389069931
0,093732852172079
0,0998129207102811
0,0964131977803431
0,0982206513216638
0,0905309008353366
0,0982905717268391
0,0911613072301177
0,096580404933235
0,0941731020550204
0,0980719443867586
0,0924271404346842
0,0965205156028288
0,0925055008216793
0,0981723716376255
0,0903826437150032
0,0966594869517498
0,0911492961146633
0,0979945258776795
0,0911715791231965
0,0933551721237034
0,0875776669078225
0,0932462779882607
0,0872767903897057
0,0928750612812233
0,0903937080465914
0,0943902319466864
0,0877666229957145
0,0928438992359493
0,0849408968542951
0,0940075714019464
0,0850056030799457
0,0901232407328942
0,0843996332721543
0,0929200427436157
0,0869434642377952
0,0909986960882916
0,0871348141606035
0,090946314634835
0,087664688021277
0,0924374519209981
0,083479167931456
0,0934763776376446
0,084999381790848
0,0886903933052484
0,0832547886259388
0,0894483600170305
0,0876626264251645
0,0872320983564077
0,0840033784845375
0,087037789954471
0,0830168618702445
0,0894474511179759
0,0845545045533079
0,0859907587588111
0,0833871803881157
0,0864195924756885
0,0819744147457783
0,0875447508583721
0,0814846801223747
0,083665288755267
0,0816535512636447
0,0845248881427464
0,0814929786241922
0,089916894631261
0,0815218310832871
0,085255697356024
0,0804197464460435
0,0866282907238727
0,0817506278454327
0,0853585727842328
0,0819031641001707
0,0809311115627213
0,0786291050667576
0,0873384892837992
0,0793363248241225
0,0838411993021856
0,079916405523986
0,0814955547509011
0,0787030399400706
0,0826676067279716
0,0764243497051852
0,0830103817486101
0,0784552154481751
0,0789152021432427
0,0767443999693044
0,0817110459100327
0,0807133441553301
0,0832382019234734
0,0800994326839085
0,0781550135827979
0,0784169113010877
0,0790615348284831
0,0759022709633322
0,0779050650043168
0,0759817060512323
0,0799105052044921
0,0778516562177169
0,0792804754695218
0,074943796810485
0,0811875980207415
0,0755999744020789
0,081836926517512
0,0781341387538715
0,0805164684857625
0,0744349874849831
0,0783527853361932
0,0729317303304818
0,082471342681056
0,0746403542577505
0,0807729594702498
0,0746773092176141
0,0769432289165023
0,0746907783221766
0,0824740366319982
0,0762799661120936
0,0793008404441185
0,0748391316276299
0,0780088586720536
0,0740972241579249
0,0778167463860602
0,0744475639065905
0,0782317559236337
0,0749131335657112
0,0765618162654371
0,0727149742557273
0,0782296356709489
0,0732706171566865
0,0793541855659937
0,0707823166474356
0,0738912738327625
0,0744232763122932
0,0793465245801925
0,0754491834475729
0,0780723223559582
0,0718700967215968
0,0789642853421281
0,075438885304353
0,0742679854405099
0,0719929573286503
0,0753105684211204
0,0703542763347101
0,0771896472752686
0,072367013122687
0,0739753746933184
0,0728876271859726
0,0759959683297405
0,0731608725200561
0,0770008304149387
0,069197465336905
0,0791682240552908
0,0738534001203821
0,077686944302359
0,0724291985228487
0,0734522829933056
0,0730387864294295
0,0729875973535049
0,0734425159978508
0,0776633404287484
0,0714919772576444
0,0763441178936162
0,0709558201857933
0,0740585003920552
0,0737489037939194
0,0759124848778167
0,0719409569738824
0,0753397790922037
0,0699460117213067
0,0767139408434516
0,0721169093735724
0,0753463332482359
0,0720575897717429
0,0767154707488189
0,0709603105166541
0,0767740160329865
0,0718214648812539
0,0764281405584355
0,0740646057102353
0,0743593094051151
0,0706147933365975
0,0759130836345587
0,074484804503962
0,0741565355166322
0,0683970594942829
0,0733455787508255
0,0742669566130835
0,0739093110135466
0,0716685659650554
0,0727689636974202
0,0708523597043072
0,0760403718909012
0,0718158588326873
0,0759204811285421
0,0729176868294746
0,0757637102656263
0,0708550893864853
0,074456548065335
0,0707057706094888
0,0734398488800635
0,073002110412069
0,0715499485050917
0,0682622330910213
0,07293470058676
0,0707665651459836
0,0723973321432493
0,0726932192001056
0,0743462298027061
0,0714639791667658
0,0754628410412105
0,0702255211441949
0,0726370187438911
0,0705655536696282
0,0770909682722854
0,0730939175108094
0,0753772159801812
0,0736255752701571
0,0731955195375962
0,0720736691226747
0,0751212862231101
0,0713160921969036
0,0745520629664653
0,0742451032364515
0,0773676442366184
0,0713248259235066
0,0765327198428247
0,0724621805958549
0,0739279156366054
0,0725578207730186
0,0775955823977072
0,0738297162498286
0,0775453914777914
0,0728813852806072
0,0763506331208446
0,0746438153102051
0,0765267086437271
0,0736511607377066
0,0773356116356167
0,0727094795320916
0,073203080045095
0,0711406479971019
0,0754522742070365
0,0742872299055833
0,0748825269060463
0,0722183254664507
0,0760377465468732
0,0708709070960459
0,0771401067101842
0,0734500687741035
0,0790655711805805
0,0728092698173102
0,0742249166340093
0,0741962708727558
0,0751718440924376
0,0713173205397233
0,0783161736327265
0,0734249765713763
0,0778457091491194
0,0704645121370264
0,0746163240100332
0,0742546072984329
0,0752343065619529
0,0724458606035248
0,0767951115133841
0,0746047481718577
0,0778788856414042
0,0742050778663974
0,0768843066737702
0,0747065726472417
0,0769438455662825
0,0738136538694263
0,0743833644979098
0,0720518016043292
0,0784730985125026
0,0763201309091473
0,0748085610720654
0,0748796139990063
0,0776298295388948
0,0749040407131491
0,077972924549783
0,0755468237514396
0,077233207610797
0,0759708735132955
0,0784562418604125
0,0737224891556997
0,0779306219862984
0,0735089264939926
0,0769976678822675
0,0724735881145432
0,0784305688404034
0,0765086901960707
0,0775597074737022
0,0762707031526429
0,0783991747281086
0,0743347727783834
0,0766913050505376
0,076122317137443
0,0817506384839803
0,075500611151851
0,0778604871560835
0,0768143301294515
0,0760159514251543
0,0767340031461971
0,0805274924432013
0,0748311156987423
0,0787323750679717
0,0767690183444355
0,0790456398465347
0,0769879402486657
0,0780717360242018
0,0769159722609079
0,0812300018811495
0,0757571872264055
0,0782631865309141
0,0772140375982297
0,0806743702719896
0,0778583026877212
0,0806709551354552
0,0767373034384997
0,0799615029557939
0,0751963501295903
0,0803828654279828
0,0784611497641576
0,0806469664620774
0,0779456626974227
0,0817333480845581
0,0794276878300808
0,0797609125945065
0,0775356187053284
0,0806227299903473
0,0769041625867025
0,0791227445911808
0,0776810801620641
0,0820030197760652
0,079252437739314
0,0838752077077186
0,077788776930688
0,0824086911991006
0,0804436305956618
0,0816926106177399
0,0761370916963869
0,0785354013135242
0,0794968192454969
0,0833059909186504
0,0783801651328704
0,082817616232453
0,0794586215407293
0,081781139706864
0,0792374338945389
0,0830464731336839
0,0805407618464866
0,0840390740264764
0,0813885949703145
0,0828678850595778
0,0804052181606176
0,0852278618923803
0,0812624497696632
0,0835317573908223
0,0824319920842735
0,0839415278802809
0,0810432651999129
0,0827685873725355
0,0789791118765939
0,0811967033441763
0,0802341885144095
0,0847941615537486
0,078444928819158
0,081883252002948
0,0815799594044792
0,0853385257452992
0,08195846164225
0,0840380944604186
0,0833267024876563
0,0852606475344769
0,0780654043735457
0,085640440169887
0,0838422825503398
0,0860124266246795
0,0819389469831568
0,0851245717038641
0,0809383530621086
0,0864324540142051
0,0842691641145469
0,0863899788607799
0,080987668817717
0,0859948582639947
0,0806742564851091
0,084429151808386
0,0840714215860632
0,0863145622777655
0,0817941397297967
0,0854591731444434
0,0844517407762574
0,0854207548091753
0,0829365246969871
0,0886724744839698
0,0829493911530126
0,087618551576954
0,0838936323440658
0,0861565629978099
0,0826153168852649
0,0886832307826214
0,0854279986444095
0,0889315046377941
0,0856559170301853
0,0894877487498137
0,0861074729145705
0,0892210920683712
0,0869943380784977
0,0912082380864337
0,0839425204266232
0,0890570600423986
0,0896471376143682
0,0950771571341458
0,0880396847910526
0,0946647460444934
0,0886101494960565
0,097380971590857
0,0916199395633451
0,0996121628207803
0,0956623843699594
0,102429902576975
0,0948391180523407
0,100134811316707
0,0991494514800237
0,110258194426411
0,106439051997354
0,113035921509166
0,0947262002044429
0,107491733155965
0,104407355430318
0,111911936585976
0,0983829168511194
0,112331291760871
0,102282427560445
0,112170039820423
0,107177346005065
0,111715592457566
0,104171723422119
0,117026214372886
0,104371712100187
0,112137932619305
0,0961201547653329
0,112381830150175
0,103324071122896
0,108470379576559
0,0949083960671727
0,105179081485562
0,09364160871303
0,114803305618888
0,101387655788352
0,117567981009763
0,100382014653031
0,119311472890413
0,0965192477737593
0,118898073922683
0,0939726982229261
0,112202324690877
0,0910855401026019
0,115973394200538
0,088960929679778
0,115529624344625
0,0958313342970825
0,128088077731715
0,101901179377047
0,122307948855362
0,0949690148743888
0,116645785373271
0,0944330427330407
0,128791106562838
0,103082343084736
0,116042277469028
0,0925411545871373
0,117259080080385
0,116213774814982
0,113669039249733
0,101942430598548
0,106545377925674
0,124463793021821
0,100390264172213
0,114593925594826
0,0948554829547911
0,124608446672255
0,0866983084001471
0,122414620478359
0,0934834087987372
0,116224972844104
0,0946257077514222
0,115577333502367
0,0978439305545757
0,111756585656196
0,0989260627807648
0,105658769668661
0,101987200102112
0,104438349538241
0,101687768658449
0,107643516675608
0,102263589204752
0,105337818918118
0,101586039747713
0,10589578996714
0,100613784908408
0,104718701078247
0,0996927837334029
0,106667823315923
0,101030803759944
0,105834358484115
0,101429778195759
0,105230880239729
0,103628638879452
0,107336395980598
0,100771297051466
0,105533828927337
0,100485549371855
0,106948883468432
0,102685267491966
0,106149269921143
0,102835567121703
0,105169641273303
0,103063866711513
0,105441052134681
0,107263472798278
0,106827393212085
0,104404451783941
0,108317622904437
0,104540736176418
0,108884903095123
0,104789495435988
0,10943373290925
0,107542845505315
0,108864801335451
0,106856448304982
0,107099785375806
0,105331003260287
0,11023633410748
0,110799746280472
0,112033485468352
0,107624755642862
0,109461140980638
0,107688717531174
0,111263845763087
0,108944497246089
0,111739845969489
0,109504383444174
0,111516488153376
0,108833750936109
0,111649591868194
0,108877585430087
0,113091680042566
0,112234878382885
0,113235711344137
0,108922037578031
0,110261399707129
0,113013884965961
0,113259860043982
0,112186556507751
0,116366114980029
0,112857080467323
0,113318310530818
0,113297317219481
0,114436528560714
0,113248573760605
0,116401042409754
0,114761652288973
0,116440297699843
0,112218319328896
0,114156546680065
0,114438421405077
0,11557989828948
0,117083778143333
0,118873728834444
0,114778750970685
0,119471676965197
0,116049525614424
0,11845562534081
0,117124347234711
0,120024887774311
0,118661762214521
0,118625788442689
0,119342961660351
0,121125347373283
0,118981562082223
0,118733381436946
0,117439987289192
0,119933771355443
0,120765141295839
0,120062176023645
0,11710227435531
0,120281008881082
0,119267037085725
0,123342940376647
0,122278799193014
0,121550400114468
0,120145234704798
0,123233567797521
0,121185255179629
0,123692153219124
0,125016955607314
0,126108186249751
0,124032931146078
0,123705234501133
0,123639925801495
0,125936197609858
0,125302077990819
0,124474407464903
0,12452070625562
0,128212073417042
0,125508910330367
0,127644917192362
0,128255292001971
0,127849852030108
0,127046702929396
0,128619728841864
0,126504008912911
0,125607424643894
0,126573908428521
0,127178056716182
0,127125650234067
0,129067795804541
0,127109198277856
0,129020186639289
0,126808020195251
0,128793708274677
0,130429890397315
0,130983574959915
0,130604445782469
0,131387711891989
0,129168452428491
0,129203047223222
0,129540155985
0,132215597629811
0,130587235468769
0,13051046829389
0,131076758015909
0,131488875164833
0,13106398253093
0,132352188997326
0,132641574001951
0,13412767135933
0,131691454556585
0,131890640080061
0,133995436764432
0,135282337012866
0,130880762603353
0,132411986205745
0,131420004580425
0,132390715628671
0,133968717445429
0,134352853893784
0,132975012354116
0,134720323671882
0,1325840103676
0,136243195007072
0,137052677483222
0,136499362988818
0,135397837886359
0,136247043701004
0,133895585553348
0,135603945418617
0,135436374378845
0,136683066143535
0,136111629154236
0,137291182437696
0,134982270693016
0,139287459300621
0,134704771562414
0,13781276459912
0,136943746233746
0,13628346418489
0,135284511004851
0,137287170170459
0,13588494612761
0,137786786267325
0,13682583964577
0,140800284023302
0,136733756787805
0,13695443120274
0,136250986559079
0,139223084616663
0,137741087608189
0,13749497807486
0,134869781757344
0,137375131105066
0,138408712058527
0,139845567793556
0,137110636470563
0,140994022225467
0,137710021222087
0,138829584516955
0,137546306073696
0,136490821261607
0,136234790350982
0,138661221056021
0,136788496860936
0,139401026726762
0,136876772380084
0,139338783401781
0,135763783382278
0,137733150543381
0,139206440078069
0,137840318252237
0,134682998235494
0,135642233860379
0,136400657573418
0,137705833991964
0,135914250244627
0,137816345210936
0,135080892145091
0,136840468718762
0,136644611593976
0,137520474995216
0,135861114977671
0,139067768007806
0,140132356129573
0,138504057245329
0,134663150922592
0,135029761723591
0,135709763474971
0,137950141082028
0,138221215977035
0,138024833816956
0,137378484467939
0,137997916860218
0,135099294691159
0,13894362372515
0,133712021981766
0,136410771086022
0,136802255342689
0,138005248931198
0,136241262095293
0,134622801869461
0,134930462984449
0,135358317239611
0,13310869406873
0,134527099385315
0,133297787009849
0,132862740338542
0,131350102423603
0,135092366660097
0,133260296442833
0,134083296309686
0,13447281769603
0,134418396875124
0,13054650764222
0,135890737564907
0,133078866776124
0,132761473636009
0,131466081921341
0,132294690063597
0,132208050293654
0,131668296526673
0,131523922217015
0,132257574781721
0,131115180912413
0,131374889439234
0,128703270323043
0,131502943557824
0,129986203005119
0,130049564388837
0,131665208119677
0,132234855499035
0,12896727840268
0,129314217709323
0,128768883441612
0,130271791225047
0,130822037699868
0,130162953666889
0,125487097489181
0,128648429017487
0,125256574040481
0,128263411652251
0,128289139469835
0,128259290463869
0,126805612673522
0,128514534198794
0,123586175296785
0,126281863525868
0,12693596938427
0,127356888535163
0,122695856900551
0,125003265936988
0,125476391371605
0,126039346797303
0,12295481714906
0,124262521017095
0,123470347210806
0,123305726389557
0,120755426227103
0,12432910872821
0,12386162512447
0,122846834071555
0,119985211654497
0,122317738128608
0,119008667308025
0,123853945150279
0,121218212477943
0,120599537207316
0,121350452850908
0,121575007098902
0,11895617492961
0,121915193861854
0,118378710369809
0,119732246728215
0,121102383529815
0,118361366670947
0,11670203803172
0,116803499371261
0,117469461648108
0,117397899603618
0,116887980658728
0,116753829934981
0,116902060283735
0,114626468754987
0,112040236130383
0,116610181485032
0,112868800661406
0,113459321987316
0,113407686103926
0,114407223839444
0,111627116901062
0,114672703399476
0,113002906534079
0,114108236482169
0,113078790411488
0,110819534199783
0,110140029604207
0,110909240539522
0,111390706925938
0,109228755124591
0,114786530985223
0,11182511698642
0,109106319679264
0,108215904440622
0,108954526516
0,111036292003709
0,110381040712294
0,10701011631836
0,105785901710208
0,110789766404178
0,105246050049409
0,110825718252271
0,107067376345015
0,107027548540529
0,108028879673746
0,107210617472016
0,106386814622553
0,107756338589166
0,106279356479484
0,105465803769456
0,104184527508322
0,106179016092262
0,103365318955305
0,10347139302833
0,104159643645098
0,105650949817568
0,10357338385192
0,104689762560271
0,10335076774317
0,104711141446617
0,100602931272508
0,102965572811494
0,0990545677692853
0,103045114463009
0,101288289238098
0,100549134202685
0,102072894494044
0,102473119630234
0,0994344210694765
0,0998279856720438
0,0987989790634218
0,101641687937637
0,098173524382738
0,0996175690575884
0,0979691742409653
0,0992946104857386
0,0969903315172338
0,100382193922753
0,0935015547073879
0,0993540678002423
0,0937681261695151
0,100538242916797
0,0923412988249974
0,102883588053997
0,103310038983319
0,101282256167037
0,0954763119455927
0,0964278077595177
0,0968004121354572
0,0973230731227339
0,095677673122188
0,0951452243429364
0,0959354422848613
0,0939667396256983
0,0935979316787437
0,0958431132718767
0,0953323236852583
0,0951104528197021
0,0946725452133719
0,0924109274328217
0,0921243549470164
0,092502360778711
0,0934345786749504
0,0903662602947114
0,0928061981094143
0,102478759706208
0,0938960574947414
0,0977551401438448
0,0906279625389495
0,089048114025418
0,107568211380847
0,0912078603339083
0,0949108364112409
0,0880215971515194
0,0959438946698709
0,0877848972736535
0,0942118678318094
0,0861695026625846
0,0950706394174487
0,0916988521933106
0,0917016671599408
0,0942496112827047
0,0929768915690167
0,0884458531804952
0,0891423984033099
0,0905938409850772
0,0889885612647767
0,0894063666323499
0,0892368387011726
0,089649445317711
0,0897582240748843
0,0875740954581534
0,092605183118888
0,0851045913402233
0,090723533258985
0,0894406029703664
0,0900646625125127
0,08749852507456
0,0926867792486468
0,081744656369771
0,0889073947559964
0,0957494963236423
0,0899594443616143
0,0896982392443141
0,0826714516658235
0,0882378044328383
0,0864110294592067
0,0882426822258307
0,0856158057844449
0,0888456174051267
0,0864777687806052
0,0912587699415714
0,0893246289774601
0,0899519904105496
0,0874493709276054
0,0900810223719194
0,0860166935124037
0,0901092485994138
0,0842966666135384
0,0890768913352322
0,0878550220203371
0,0827742050290793
0,0934499962538407
0,094497318701811
0,0974637568198036
0,0884432774032791
0,0935152379196449
0,0850278745150817
0,0899019413652786
0,08755585996235
0,086889810437607
0,0877976751937366
0,0854948324091249
0,0894794703963264
0,0889082842866286
0,0882559871279143
0,087664445261151
0,0884397621484943
0,0867381014081393
0,0863936211715564
0,0854594902723915
0,0890686845355654
0,0866958517768279
0,089297870247314
0,0840704266218434
0,0946991295569815
0,0856696134291263
0,0962046377300234
0,0680791403204846
0,118578333138179
0,091379069449903
0,0985884670258159
0,0872217546177281
0,091812755759518
0,0894890728062202
0,0877359253479415
0,087814575715968
0,0932706952671523
0,0874262044940773
0,0915109861747598
0,0874154465021116
0,091108273827887
0,0926956750306819
0,0842233038830239
0,0888899585280451
0,10946018934975
0,0930411395182127
0,10042702065258
0,0800632163830537
0,0976583147354879
0,0993467080370909
0,0920436773468689
0,0954596819630093
0,0907249157729875
0,0934082982943876
0,0913080658593452
0,0915513259458578
0,0906798381867366
0,0963897877354553
0,0903807952092469
0,0907088147833847
0,0938941775143802
0,0906039351388675
0,0971407001153994
0,0903866500286883
0,104134338335917
0,100143524151557
0,0913872830301192
0,0985699324439288
0,0952738546123227
0,0963136660696012
0,0933975539819865
0,09809252591821
0,0890241853743919
0,100702488552043
0,105888667880295
0,0976186454455085
0,108217028781841
0,103645715463128
0,0968428294227714
0,101557149562938
0,0962079668276052
0,111492857420276
0,0818594774005646
0,117292354394778
0,103633780536517
0,11404709578838
0,114588249324585
0,0985962856868307
0,106751938485821
0,0984764810799872
0,105966899272426
0,0923839972982207
0,128195313879917
0,0933707884531068
0,121684001309902
0,0880082938646759
0,124398132370682
0,105671016856894
0,116306800653521
0,104498113528819
0,111741538979607
0,101981051989081
0,128334605332503
0,101250494563751
0,108603941239747
0,1210086291797
0,126006928895543
0,138904356251748
0,110883989398564
0,10498318232748
0,142026928441163
0,116948208707091
0,126647696642691
0,108790313826762
0,130071633751295
0,109632069510768
0,122922559878576
0,138626987747949
0,124758647005893
0,127425680153771
0,127924669428999
0,116051478896299
0,142979778480929
0,128600262053276
0,134022279800566
0,126380654621152
0,139279747781977
0,110675359942262
0,196608312319295
0,121134162506814
0,158789220099414
0,138471332560082
0,154080519699353
0,143496511976347
0,149691147446552
0,13670735723801
0,154358922497269
0,152189570608296
0,1569809138635
0,13270845878508
0,169894991489352
0,167039605555924
0,1530548664867
0,163254051675866
0,151098875391614
0,147933659001392
0,185611144145964
0,191380874569549
0,194598556768722
0,168269588791899
0,16826318208159
0,189337112969518
0,175320728115736
0,179625274921832
0,179376539477467
0,179988965531613
0,184795105807599
0,181415618885664
0,203810189800299
0,189065324074618
0,206830702625035
0,189937267926032
0,19926226223952
0,193888009671965
0,239186687024854
0,237385187763695
0,208518363927611
0,250958651044176
0,234513511971391
0,242912555823172
0,228655085984696
0,234026822427363
0,243054673297041
0,243995642586774
0,250012583601952
0,234069939647027
0,28083935934494
0,258990494161322
0,279129936725924
0,278966418036696
0,274220831292741
0,271543199520478
0,243917804022183
0,475436306904699
0,294115995052286
0,333215274507401
0,286743932025638
0,325632572930686
0,376088943140809
0,333319977351675
0,328816843865976
0,336714241181443
0,33096847783267
0,353078895951004
0,357375337424453
0,357052819457332
0,37284129849929
0,378918386455427
0,358537968093708
0,395933486825808
0,419193403559153
0,443079972315428
0,420102857555325
0,402586610824883
0,424463882143467
0,438831645111807
0,426487266497287
0,453873844291509
0,426020058987028
0,450234642805892
0,499868056340792
0,469540935340838
0,477878062435781
0,464686674148369
0,536128167597815
0,454533938646275
0,571092883878402
0,510073854522074
0,535797652760569
0,518209905247576
0,533152084786204
0,533629574628788
0,521815424513344
0,575186317220064
0,572000454132474
0,560826555249699
0,585725846445995
0,580791121370573
0,593778998568514
0,584598595544404
0,605311049976048
0,585719227135482
0,662193690720031
0,59156050517386
0,864048628919756
0,636228840863338
0,659363390549841
0,634009788755472
0,636076610400637
0,689614481947387
0,654174309849258
0,693673060872166
0,692738805826034
0,674399984310264
0,693862526924646
0,681966380372577
0,688470274708008
0,670471082019388
0,709049042445402
0,655221955499952
0,745148478393505
0,668018059933416
0,733251741178898
0,755423368183311
0,694224146354564
0,702735084530067
0,696235498235118
0,686049864305096
0,701484996608582
0,675886955300921
0,695012397403671
0,703538047694368
0,669346101771183
0,690101286949538
0,627793619268096
0,685209488150011
0,684969032304198
0,647296818049803
0,651861236170173
0,61745662077236
0,641433840307457
0,597628888700964
0,63259822586316
0,663459483513358
0,592139256542678
0,59178794106009
0,571600127014547
0,573597786025542
0,566495264137162
0,548596400902486
0,540175293529633
0,543884318406972
0,538929978568678
0,533654465628367
0,515240932324259
0,519730148422706
0,490754639337909
0,504471712599105
0,489148212069507
0,487149197140865
0,471099294112418
0,473375562787657
0,458927960625969
0,455006486789768
0,454403514424612
0,443197409314883
0,434557443763868
0,439025549327208
0,428012339563382
0,42446728019685
0,418667580597229
0,417351844191999
0,405501776218288
0,395788176798115
0,396671015687243
0,397410836687987
0,385363455438069
0,379536986831807
0,379227733197971
0,376198418574708
0,37335635012574
0,367009834297937
0,370140600088339
0,359485164431848
0,373359914898512
0,32255742990142
0,442582403207165
0,362383742208226
0,354872349646579
0,344025142462123
0,339462250642658
0,341461972878847
0,317312120503207
0,382249827801993
0,346242718555463
0,33227991853868
0,327607974898681
0,3127502656151
0,332724943087365
0,32652327599804
0,310894466113686
0,331670504386964
0,276413450451849
0,359371017135217
0,3190227560221
0,371702758466453
0,367370038297832
0,324381403812155
0,294739851094985
0,310579725953103
0,338494385636398
0,287448791041213
0,312164643089418
0,273341673033315
0,342258356900677
0,298734898631337
0,292744998067922
0,286512197404956
0,279614868213936
0,302061336941614
0,312274115870786
0,280170528834023
0,29697204080042
0,308676500388226
0,279100816849161
0,317946513010181
0,328317924336054
0,300185691942337
0,267433786615155
0,277731978290944
0,269586461625577
0,264521447224958
0,32559186960115
0,266153829994691
0,291080903131994
0,261922337533081
0,264965784176874
0,261648854425636
0,279539757944567
0,268845641278261
0,255846511308906
0,314141316767503
0,239271173647462
0,2924523809342
0,249226014893126
0,296852051010306
0,28473342639698
0,270235498460123
0,238860856694666
0,280101993848964
0,27786916040901
0,252586360649445
0,27626345713204
0,245601679404798
0,251996271735896
0,271098264187539
0,237320567314005
0,269439391689246
0,258576647247061
0,25216751633929
0,274115319123274
0,280646239230365
0,292339727134112
0,250109842810469
0,237176657140871
0,243736050055693
0,235789456058721
0,254786605839331
0,213843083827209
0,285559508386808
0,238441147955454
0,218983751990744
0,288158182434134
0,235393070887228
0,232728046980974
0,240140695573703
0,233221184452137
0,23161865557331
0,238759681153157
0,271207491039514
0,238366547723615
0,246065866212008
0,257361068596048
0,23130704635401
0,237043918333122
0,226154134956137
0,235905799283805
0,225278097886524
0,247657638358005
0,231983276195019
0,232214358273841
0,236339874723826
0,224564539115014
0,238290799054696
0,265120188620618
0,207829648898101
0,279005910646181
0,210494021386326
0,299575227627359
0,235014211320393
0,234532829184901
0,229993148578476
0,224315006133761
0,235522047108712
0,223670167205877
0,229351057537886
0,26963080634781
0,215821912682177
0,246421026260958
0,220497140076729
0,244886897596595
0,213466527220123
0,263327611765763
0,21104097502509
0,300388971579692
0,257063635446929
0,246541300417666
0,241684078970737
0,222485170282644
0,240281818637413
0,233980161915011
0,229956544175565
0,229935336484683
0,222715341814765
0,255097007732908
0,22539317416379
0,232921677772222
0,229153299521107
0,232155371057084
0,228760696000459
0,230098498597402
0,226666488128477
0,226850921096796
0,225701264650358
0,23164813301088
0,201348951585377
0,305284740532413
0,22568145228257
0,241175399551897
0,224640976632202
0,235642927281247
0,227227806448865
0,22289003511486
0,24018457472464
0,233981472839306
0,228152770682874
0,234048078480418
0,224238451116405
0,232221396338352
0,219175150769188
0,263287940250416
0,211063312672894
0,253389665454096
0,201752466862571
0,264240180802806
0,252518698985291
0,232662213625452
0,248349677516798
0,226047667748986
0,235311871009979
0,225175448038918
0,229378953575541
0,225296982349026
0,232747422963169
0,224125586521283
0,23266253847287
0,22454778875224
0,227785503276157
0,227181661581311
0,220972945836453
0,244879149457309
0,228124739455842
0,231801957316214
0,222846698510272
0,235344099291905
0,216544965228503
0,248065429435805
0,235585584288097
0,231124869609539
0,233666817931027
0,228551798658896
0,240405326044615
0,239820645689489
0,221285414398303
0,233786840630446
0,221933650013014
0,234785601298021
0,22026730357752
0,231499528795592
0,254538973539775
0,226984445544226
0,232030847845673
0,220249473247423
0,229193984144789
0,223733944430679
0,228183010170632
0,224556948855032
0,231096764593931
0,221805645839601
0,229423479233983
0,224507661502266
0,225983452176174
0,23585347512939
0,237634429986249
0,238522309709974
0,226555177688019
0,229801617572092
0,225545237177005
0,224445262838714
0,231130189551819
0,227870517324529
0,225438593268596
0,227516535714885
0,228529483875273
0,217953369085471
0,253694522379167
0,214727194227346
0,237038011399922
0,222925413791614
0,224485243467597
0,224868809293715
0,221309274817498
0,219586405499607
0,219266902591497
0,225989431722746
0,220205171504212
0,22346189698979
0,22091032804804
0,221770853701416
0,219731720536027
0,225670877468174
0,221552087743175
0,221477065815336
0,221462977512548
0,22044481397916
0,224855881217568
0,217962500200809
0,224591530138896
0,217796352542217
0,230497200130424
0,227156292855391
0,232196107747209
0,225921852662185
0,222855860585279
0,224830723151363
0,216443338173167
0,22359069092196
0,214352799143572
0,222638039922356
0,219058718617043
0,225104380979105
0,217328315606675
0,220080492771311
0,217006139985179
0,220056316441657
0,215144247159798
0,21877049572937
0,213821206352488
0,222915110894478
0,217161393954697
0,222702802758696
0,218539889324897
0,224596625451131
0,219650810857232
0,220752371857195
0,221715850600787
0,218871059098208
0,219633777513062
0,218934728483296
0,220101429444388
0,216877278000067
0,216549780823872
0,220520972478885
0,216483279106815
0,22047488616849
0,218376478450998
0,218752598120144
0,214683352493245
0,217153638304657
0,216999713097453
0,21799745447478
0,213783841588394
0,217345544980472
0,213824788449787
0,21757534572259
0,215991117458723
0,216634136806115
0,215987602263776
0,21818334510221
0,216294703684413
0,214233296483048
0,21530525796792
0,216508181173182
0,216097969005123
0,216100636918894
0,218506606032772
0,216278471829551
0,213415472360435
0,21743324029451
0,218235743518912
0,218394457064621
0,213379936049898
0,213922418679837
0,214309708702204
0,215924316421036
0,214945985047002
0,217396896782099
0,212430691693494
0,213615355679634
0,215294021438955
0,215195682281756
0,215512744590813
0,214118736685657
0,215295502632721
0,215115366561673
0,215047056690535
0,213922077482842
0,216993165067907
0,215271082876956
0,214905943808176
0,213973425373452
0,215880864399813
0,215596475670541
0,216526626883238
0,217182903396564
0,216391272657882
0,217043715486918
0,2166902147287
0,214194635654079
0,214866675252337
0,215202075775369
0,215897514578159
0,217594850658171
0,216194531633351
0,213448938670422
0,214124694293604
0,216850644751464
0,214456325935937
0,216562508106818
0,213756597556346
0,214496224248001
0,215382522043754
0,216856676085265
0,213726305975829
0,212999274024263
0,21342672290562
0,214570442781977
0,213116598179994
0,213887833244325
0,215221273910751
0,213227155887481
0,214326067240891
0,214804053950338
0,214702769003009
0,214949555027383
0,214135563302897
0,214155901123157
0,212674647010584
0,214853304094667
0,212081108153245
0,213610169987054
0,213506167290546
0,214519228958593
0,216462408298883
0,215795363447198
0,212542941279204
0,214507942832925
0,212195834406308
0,212829586093045
0,208761097719398
0,212802528648072
0,209793719771704
0,21083963104605
0,211039458567098
0,21061987867669
0,210502923369823
0,20899393781687
0,209262199577186
0,210573234960248
0,206461849654493
0,208795895615372
0,20845984859024
0,208489922586711
0,209288738644752
0,210176099535048
0,208729301839954
0,210374691495731
0,207784831063846
0,209596159923334
0,2087464607179
0,210169112893095
0,209214410520189
0,208487167521877
0,207051977927659
0,206808513789098
0,207855748887748
0,207291257663112
0,206152727876722
0,208989056771573
0,20655454374689
0,206452978317488
0,207124120827434
0,206641208980345
0,207331377691248
0,206735770866147
0,206868683482564
0,207767401978936
0,207012891527964
0,20624769629443
0,205020571023665
0,205410357647163
0,207740158330211
0,208068250024739
0,208380937205064
0,209704946470137
0,20930622863872
0,210183356691683
0,210975596331681
0,212992440137932
0,212504050900887
0,210842059673734
0,214045552506564
0,214127969203509
0,216524057577753
0,217162725357452
0,217170851548926
0,219094238515339
0,219439854051666
0,221929623609556
0,221864439798576
0,223179573575747
0,223826969941318
0,225563090989381
0,225518614846386
0,225584456227057
0,226692359318856
0,227392688301795
0,225086237514906
0,225636794594595
0,228784123776465
0,22867114927313
0,22621623747059
0,22665206729002
0,22328160568076
0,226063066426244
0,224858209197042
0,223627682220409
0,225478834723937
0,223915336194728
0,223767835919302
0,224208843795796
0,223542239749802
0,225679740963978
0,226226271563632
0,224232756999744
0,223921292822019
0,224152043318151
0,223638805999294
0,225220002712336
0,22640809663065
0,225476582096215
0,225344954678305
0,226083708535997
0,228057196885084
0,227325983161758
0,227317380080923
0,228953407108003
0,227483338193777
0,230424634736739
0,231982544574096
0,231942814257992
0,233304928134244
0,235963725867457
0,238595417858402
0,237099152053769
0,237538939457776
0,237561640786815
0,237560876996213
0,238247867802642
0,23675108634387
0,238722516308804
0,238338037241487
0,236522330994297
0,237261552104998
0,237378304056892
0,237757221187374
0,234741480165685
0,235815873411892
0,236420225046155
0,23562639506225
0,236005249616981
0,235313824359614
0,236663774954226
0,238088123435894
0,240288171962065
0,241033070750998
0,241444292389171
0,244245129255384
0,244368146883812
0,245457356213502
0,248319856690999
0,24576144605361
0,248920681536614
0,249009444682648
0,249378156248166
0,252021455452774
0,252990560456935
0,252947086926393
0,254047071873395
0,258373468412495
0,258132864251398
0,257561920990381
0,261187877405902
0,261652685376965
0,263095618192726
0,264537621261564
0,267455782614151
0,270414162855254
0,272587484392652
0,273392219625182
0,275504541219255
0,276352031377391
0,278790989102379
0,277375328305475
0,278023648001922
0,279776489235858
0,27373119622527
0,27560069984866
0,275487279391566
0,274985098547333
0,273409916672922
0,269549378093888
0,269427516786203
0,269233821384261
0,268532235401661
0,265912969004075
0,265300117371331
0,267198584440297
0,266468150872421
0,26229278354501
0,263314057194795
0,266947004944945
0,264053530672471
0,264392637163377
0,267980859312709
0,266243900181235
0,26555447644279
0,269195177397786
0,265850690356545
0,268745094715792
0,268557087921033
0,268925380290128
0,271447457990751
0,271590822865205
0,272431654270344
0,273123150353904
0,27182657746653
0,275350568053203
0,272191946911655
0,274931260918012
0,275601716197177
0,274207766471502
0,274243912954519
0,274958446531243
0,275331901747416
0,273755744998063
0,273390177702099
0,274078700013161
0,271769344036381
0,275174547907985
0,272769709133777
0,270112389132219
0,272696572497026
0,272439965511085
0,272029383873561
0,273970961925933
0,269246539699086
0,268520276994142
0,267004922430297
0,269349141486467
0,26747596089757
0,266558171866972
0,266360687032876
0,267690615870766
0,265464681471202
0,261998745480226
0,261399573269291
0,259724760188379
0,258216846537605
0,255500167690438
0,253821491186467
0,250570402751074
0,250288923836
0,248535360950066
0,249299244999109
0,249713066101565
0,248320477994388
0,244303401409053
0,244386929858532
0,249398955927732
0,249747179134973
0,25096762437109
0,249753436806282
0,249667779316977
0,248120428137289
0,255792040339018
0,254022360399443
0,253648267019596
0,253889108500199
0,254937601004732
0,256037526275729
0,25552745621581
0,255702585357062
0,255812132738435
0,25302218960467
0,256174049916116
0,253605836640233
0,256766380439426
0,257766435067928
0,255365570751763
0,255553937638932
0,254687445556097
0,254826316718984
0,256501025522087
0,253344970354664
0,255470625698946
0,253902425986039
0,2562724973235
0,255150584573763
0,256786380276549
0,255881573205816
0,254474899571292
0,255911956324175
0,255870833271128
0,257956574947253
0,258195580220404
0,259333664063168
0,25820211170677
0,259833983277951
0,261158975931902
0,261488288189001
0,263608680267372
0,26287494648511
0,264483590738354
0,262701276982096
0,263799649012078
0,268768686620622
0,267191770694465
0,267763665280279
0,270520284945571
0,271287034013127
0,274158216438697
0,272752138936719
0,275971787261608
0,275262903833818
0,277630911129415
0,276525417909842
0,27804802326616
0,278678828711781
0,280111340535232
0,282530315481053
0,285229894300013
0,290896763516118
0,290660684925541
0,289421501466346
0,288832338931865
0,288343216497179
0,290136717812451
0,292820895566471
0,295245369821972
0,293764573776569
0,294764483423875
0,295724058623832
0,299624140526242
0,305050082600888
0,306584568588309
0,30783085359117
0,310441034491932
0,312702442784392
0,313147362127485
0,317082637457551
0,318049259605324
0,315019818972887
0,320617911326948
0,317753133640402
0,322234746335156
0,326294045597106
0,323889192640675
0,324162557036031
0,326136298734562
0,327561107718876
0,331986950952625
0,337237996003235
0,340264794880711
0,338149393593932
0,337350856383809
0,339646651109515
0,348067099396209
0,346421694426964
0,352048351429389
0,352673639871509
0,356808988255354
0,354640031298072
0,360165045081693
0,367590284572959
0,367586712130786
0,364549779585367
0,369516340155797
0,371332271623834
0,373265203615003
0,373259846688025
0,383276389345806
0,386668193937637
0,385922979628195
0,389648077992584
0,394725611478518
0,394345322404235
0,400630133241
0,403845155947643
0,401994838350027
0,408013432475688
0,410767420238147
0,407276368255813
0,409576961664346
0,411388689608382
0,421117320774907
0,426491648313885
0,423660833638745
0,419370964969896
0,432172825182115
0,425699697135867
0,440960236485988
0,437394635588549
0,437096539192117
0,447348045570074
0,446698373418355
0,451061611688987
0,454686347014108
0,452483847862351
0,460344006535467
0,461528678153425
0,468657508277625
0,467654502729605
0,470834591685968
0,483355638639347
0,480544884592757
0,472135630590355
0,494917938943388
0,499387608143075
0,4942766818476
0,494949037985778
0,49807843350809
0,495558190390124
0,502991769581577
0,509005371471746
0,506609115775493
0,506507580449129
0,514029132258207
0,519086426426754
0,525766334365336
0,523255991955237
0,540004639717488
0,550645306174747
0,538775777849422
0,534810933304216
0,560886945860274
0,55275379282411
0,559772159755637
0,559657069041107
0,569219258827453
0,575773781238088
0,569976821185561
0,559504688642085
0,576019018374751
0,582331909878203
0,575369314659818
0,573512047350639
0,570090762525468
0,597123960122384
0,618163741295475
0,596577184244625
0,608200585423963
0,611023165058231
0,615657432846712
0,611327798317384
0,623054943015432
0,615590882711037
0,632868348915774
0,648864757038589
0,640695892225475
0,657701981487378
0,662367470564357
0,627843214707367
0,640142984101673
0,668949306856614
0,659974859053531
0,677817336124129
0,659292436588391
0,651538518554617
0,66612529214893
0,666661808367258
0,681518099421881
0,691580883558058
0,703595064112504
0,695845243499315
0,687539162036527
0,682528352618471
0,69801721907019
0,700158643300994
0,695326444813229
0,716065198481156
0,753899444104535
0,702565345398049
0,698061558393888
0,743577799164454
0,734790018579524
0,745978209906556
0,738533529297192
0,76159237292732
0,787688302533898
0,774382390728907
0,758585087292513
0,775037954956758
0,797849863826812
0,762762509315321
0,781968137412231
0,773042636981111
0,779887385875334
0,78784788110775
0,759156964862856
0,761141747602415
0,782907337703687
0,833511750329837
0,810549759747043
0,778235269260387
0,81721339800478
0,831185546149197
0,810930676300655
0,799908065280228
0,818889621541512
0,848948097900576
0,826550484792271
0,836404018755284
0,854482296036397
0,865004888189921
0,838507588024118
0,817354903074924
0,895459951390782
0,889853736456675
0,835643385180591
0,910195060611748
0,865805358928378
0,822244479032514
0,900670512803387
0,880076886359354
0,898703936489267
0,959112754264113
0,939865546890814
0,934061620921944
0,974529815742137
0,926932167834123
0,917318217400006
0,883898438732726
0,949647451355851
0,991909464467012
0,9000721145569
0,957590862426132
0,961926286809728
0,965169120489376
0,989338259255035
0,984526286832259
1,00482181575737
0,904881273755451
0,920969963314655
0,974199860975036
0,990538936485336
0,950951030910769
1,05675970110644
1,02543585416214
0,942777340597711
1,01351413659303
0,913598935526722
0,957022833721469
0,952894244768131
1,03247189551158
1,02502487175113
1,01527772865641
0,964374758023185
0,91685902226965
1,01059500342529
1,07265555510619
1,13723931092661
1,14813643961236
1,11385783685538
1,07065153903473
1,06988432683218
1,07151786741118
0,918926065745527
0,974050366974296
0,97226623827683
1,08523005950963
1,07268967003145
1,09636994578952
1,26148071999753
1,17093334245469
1,16231082489144
1,11196559603862
1,00004780284539
1,0878305047769
1,21213804103303
1,15131730220998
1,09234889159098
1,11919852935151
1,04119243550312
1,25489671055882
1,2627325337754
1,10884972303819
1,21945440572834
1,17394823620123
0,990609683792458
1,3050828431756
1,26452732525822
1,0803949961813
1,09422534467179
1,23535287503042
1,23461671157707
1,36574694254395
1,27802143552535
1,27843963755731
1,33714099099984
1,28382609119388
1,14786555991408
1,06105942442304
1,10198432933726
1,14309205895797
1,00610876111058
1,47364184945647
1,56814614360563
1,02046220498827
1,18577125898354
5
1,85609981044139
1,04101865619161
1,08534412343322
1,45274555918008
1,16383390005217
1,51401544633308
1,75039442063233
1,41174816364115
1,22429818165004
1,1518220642393
1,17919267489926
1,54354342503765
1,01046412186743
1,22586508649864
1,36584466362472
1,8249136827383
1,39981418601951
1,34224342449453
5
5
2,17695876270589
5
1,07516018720798
1,32878356143215
1,96366779902613
5
1,15123027909688
1,23165213073539
5
2,71334722370819
1,72969066404023
1,15360097749437
0,810320712734176
1,04608408981442
0,835613383741277
1,16576737256359
5
0,660588273888675
5
5
