3596
4000,36533379555
650,420452594757
1
2
2
0,00751191060017543
0,0109324375929486
0,00883295610242547
0,0114829180370643
0,00754088531041206
0,0134559114959749
0,0158559238591825
0,00732559745735392
0,0033821932845546
0,014333090963339
0,0119018834395175
0,0106693866594589
0,00975308167028228
0,00695729674840411
0,0103893429200352
0,00936942112049766
0,00755975133084264
0,0116819697826356
0,00783236828228614
0,0114925126483367
0,00907493960204792
0,0166688235436534
0,0123421313851588
0,0135423203941634
0,00751957590529788
0,013060553779278
0,0105820553888234
0,020781127552513
0,0111963770721062
0,00666541891353588
0,0144055974232299
0,0129821878600455
0,00966413459907301
0,0116737678886196
0,0160941585214142
0,0167492714021052
0,00848057817524922
0,0124109623662612
0,00824934241747039
0,012228573174125
0,0102649100086178
0,0189790983151191
0,00836505135354584
0,00745758131340869
0,0158627950817965
0,00956567065534194
0,00962963172978645
0,011595569080897
0,0110080105159373
0,0134610511251992
0,0134421241583029
0,0180960296711204
0,00986248215237646
0,0133082388129845
0,0138416273593061
0,00915234948636987
-0,00128463984191389
0,0142263544519873
0,0177621367647001
0,0196355606535549
0,0108862909142633
0,00985974513812489
0,0132230344134099
0,0131917519198639
0,0143319157975301
0,0113289707788372
0,00991357342044584
0,0184566085667363
0,0147488162662167
0,019924484250505
0,0153950993952883
0,0173545505211099
0,0075795078254431
0,00882865282988841
0,0156566325323059
0,00803570708970821
0,00622847816023012
0,00863131600950759
0,0108751296046957
0,0197638423513059
0,00423121842828728
0,00768865952942884
0,0118270750856945
0,014060704540631
0,00425172255603897
0,0124667720222874
0,0114412120990913
0,0106731317404163
0,00553949195900146
0,00969252515209655
0,0178008555413912
0,0145664691151555
0,0115234188092248
0,00645165290007055
0,00688391000741373
0,0194766448308705
0,0144820510505587
0,0120968426749073
0,00845245371112889
0,0169455668979346
0,0153578868744394
0,0132118094774983
0,0104475850218664
0,00684148306958817
0,0234604768810756
0,00978424357071622
0,0109189455659798
0,0113954714151483
0,00960523373499602
0,00941590813306756
0,0045422923262238
0,00576724893638918
0,00918073846723729
0,0238639932619077
0,0152392234280641
0,0173897845213375
0,0135736048670503
0,00983115458068448
0,0098136413458066
0,015602088078448
0,0133830502573652
0,0105310106830522
0,0143397232274171
0,00854612742040795
0,00740605890843952
0,0167226603321525
0,0161935039519391
0,0153531228443922
0,00683777041174522
0,00741184361183858
0,0123709335718611
0,0126307242382197
0,0154808262425022
0,0124416965448325
0,0190172001804592
0,0102657639243967
0,0106839703512689
0,0214843534128753
0,0178503118009607
0,0125398233910451
0,00244506319237677
0,00918809852928951
0,0149103320645432
0,0112006419474769
0,0123812386079038
0,0136916766813538
0,0126253351229821
0,0129966469055504
0,0117430415068596
0,0142685734666469
0,0166952922865693
0,0166016946223012
0,0130864217200072
0,0129332807725907
0,0138140445862893
0,0213572881729189
0,0137496213041027
0,00629914226388733
0,018060893218386
0,00921416438030637
0,0171408437706605
0,0116932688662907
0,00768816769323286
0,0138078789616439
0,01089220759218
0,0114855556446968
0,0138569870267875
0,0167266854965891
0,0164389576497551
0,0139537811909337
0,00951710776860994
0,0142148364565233
0,0149237118772986
0,0130008262986228
0,0131544145522815
0,0189518986003323
0,0192239834564524
0,00756513067794519
0,00997994325979029
0,0119497065889007
0,00764783429019335
0,00901797836747461
0,0121289318666939
0,0184119356240435
0,018798179497869
0,0195474993387337
0,0186867395294118
0,0149383305607761
0,0125010363843463
0,0104786463732953
0,0187628075471998
0,00992540152206093
0,0111523511523092
0,0077992019670821
0,012368101522863
0,012677236554367
0,015155614974653
0,0185363689986051
0,0145534347085414
0,0164569316825425
0,0190481570503379
0,0158622801618156
0,00866847292653837
0,0137328307090652
0,0197516292808923
0,0183019673101359
0,0180434815794037
0,00942753340874888
0,0178486833619543
0,018440674964786
0,0138278138718473
0,0171236982327816
0,0220995085320728
0,0143197849092943
0,0140505373905185
0,0178696429993691
0,0137304411610808
0,0231613563587449
0,0146475740043652
0,0196713713166439
0,0159158820018653
0,0204535301336078
0,0167762084263273
0,014428430378013
0,0197739984646539
0,0208900525433026
0,0207015119698495
0,01598144814638
0,0202680264441212
0,0181923532397292
0,0177249857424599
0,0255271214202428
0,0247015131445211
0,0204028940888247
0,0205431231653518
0,0243592018615637
0,018307591284512
0,0171274092274111
0,0297089190561372
0,0216435853229572
0,017579503023011
0,0190940146372512
0,0239226076023017
0,0190337380684869
0,0201475394073977
0,0178080828134793
0,0155623805361017
0,0151450973728968
0,021671881391851
0,0246205827580151
0,017204137392688
0,0199511434948275
0,0164457044020038
0,0214490928788283
0,0167749210714067
0,0223432219792401
0,0204897598191634
0,0241429087565237
0,0256807840944048
0,027647064033695
0,0252207378526028
0,021740854829729
0,0222571419047287
0,0315777135558401
0,0265883815115945
0,0169229204668176
0,0201190808918524
0,0279618709090367
0,0244320567788929
0,0212426104814626
0,0186028794313775
0,0305556321652237
0,0244901418029084
0,0291474787829656
0,0193126426896696
0,0212390937248746
0,0196376492484386
0,0255768533993684
0,0260975050139414
0,0295404564538559
0,0295121180747237
0,0281718788810143
0,0330170877891967
0,0241140545289653
0,0216417724044696
0,0254969959007636
0,0334411051237945
0,0292345102499899
0,0307291720365432
0,030097933182588
0,0287117963309567
0,0375222390457538
0,0254286154118931
0,0323931866563688
0,0296430116062319
0,037303255502762
0,0425648693503662
0,0398540451954628
0,0287671990200064
0,0383532375992022
0,0391722662098016
0,0399225400149867
0,0404382344916985
0,0412883515649221
0,0397783403893405
0,0448873349873981
0,0444060449983973
0,0365247861689514
0,0357748672251812
0,043812457254859
0,0475134041042062
0,0528958764039306
0,0450256902150149
0,0456614881515007
0,0367747428267349
0,0412913239099179
0,0456431185556075
0,0525351651611606
0,0479184501517423
0,0549941300137641
0,0618629887354625
0,0572162999337954
0,0556942948520269
0,061362704015923
0,0577213136273669
0,0638941309792513
0,0666048211058655
0,0691027706752723
0,0744232203473567
0,0692611615310503
0,0695953088241287
0,0747882331543741
0,0751181152130043
0,0793865249688821
0,0742616714656813
0,0801736643984834
0,0830447687171723
0,0759802943306982
0,0833014394362564
0,089160638808448
0,087494854511851
0,0910172465896244
0,100787647179338
0,100364896935336
0,102441846409223
0,114472181924923
0,12184087468795
0,128845781916553
0,116088440103226
0,113216157428963
0,11890981044251
0,130447655847048
0,135235169105814
0,133534362496476
0,128672538764762
0,131821073309885
0,13162650251729
0,145828570003866
0,15007382233114
0,158628909506426
0,161408179217788
0,156396696941107
0,162125627128748
0,171611870464194
0,17450555802244
0,172458725239348
0,181452309479407
0,186558774589593
0,186824091809665
0,187363007640458
0,198611680907561
0,197132123633268
0,208648430294225
0,219487038794178
0,216467275322991
0,203728236189064
0,212768962828354
0,225772662688049
0,214472194580839
0,22096826436789
0,228395542275634
0,225850409829319
0,235476114374593
0,23801949298632
0,250791226700083
0,240732567869544
0,251722569711722
0,264652273467838
0,265766785596695
0,255446561778343
0,265881981479917
0,270872062411672
0,270163865819751
0,265418276308215
0,267401630399083
0,292946729768446
0,296879934273646
0,30291729843455
0,277313373286152
0,285478079990123
0,285868327664375
0,29406105404832
0,296010202920003
0,301199965882558
0,30373763935439
0,312417728058416
0,317474364943007
0,339032717480603
0,326409576280726
0,323016530935785
0,326161482919769
0,320790874241739
0,333250108251671
0,336316097300962
0,333315036807662
0,319373534799365
0,336717016658132
0,343237966441248
0,34507169090095
0,353748376611837
0,355983917923388
0,370931435533576
0,363155260942548
0,354774333215014
0,375618603615414
0,374301282373531
0,382532473220215
0,382310284475783
0,389838774380315
0,372608226309579
0,389438551989439
0,386510616433068
0,382002982386997
0,381062354202037
0,395888785107294
0,393286069661715
0,394546323960081
0,400561670010278
0,400239070686012
0,405524209943252
0,41302717332278
0,425053963543057
0,438815347692957
0,434449705078323
0,428796947414011
0,421971563907295
0,424057920060861
0,432500584342752
0,441263313246985
0,420077412027439
0,43075118278
0,44444272756269
0,443322545001757
0,444907169873399
0,442888628122663
0,459401670328464
0,489132708891642
0,46836344541371
0,477775871264231
0,475368165150819
0,479540827868488
0,50431706839359
0,501799207507006
0,496231930481945
0,524300250355142
0,488982091456967
0,500410277833197
0,489476093392305
0,502197272175345
0,510754517999478
0,508405981185304
0,49217476579168
0,500123438733643
0,502758559763256
0,544400591787357
0,540156489904932
0,546771895114866
0,521775629394982
0,548927567704317
0,516009080451169
0,539432938919522
0,541366720687599
0,533834886440985
0,550043888891556
0,547452573566249
0,538902453342444
0,565702640200831
0,555330875136404
0,569311343156011
0,561519147637761
0,572814180749849
0,587349366498315
0,582634116776045
0,592356703072919
0,62371030511283
0,611737004206922
0,616397337471962
0,587354633879787
0,610783137691266
0,587300816303309
0,603814032000461
0,596356960126403
0,611701146927065
0,63601213816842
0,676336274646867
0,655996695361231
0,652109346134321
0,630990791154562
0,646184017122976
0,633835016139846
0,655401093420097
0,665809278006361
0,681731000313953
0,638202126827063
0,6330394489933
0,651665823910448
0,674346841038843
0,663889096175757
0,680764716003828
0,664923307704576
0,669270211330456
0,662689088779539
0,721664811840755
0,684725649016755
0,749554514256701
0,712560918150705
0,728299095550249
0,722768122717399
0,695679433033086
0,693015698867231
0,709517394762032
0,704076358978908
0,737494396053087
0,715097941286555
0,752123862701753
0,72578903120152
0,728131065107908
0,747787852062872
0,785577521230682
0,769467730181742
0,773094098437388
0,761996779431668
0,768822745710591
0,781305840095018
0,763608375995632
0,807433984618089
0,790019255098589
0,76644587410548
0,789490842053496
0,732913426141391
0,827318509536513
0,81944163825972
0,817561811958483
0,769746279715771
0,839907433309478
0,793853064181108
0,790413237356321
0,801266556791191
0,83582612821347
0,804809512382806
0,873998128023822
0,860970616484291
0,857205232636756
0,837742569479028
0,82268154076411
0,816494335104833
0,885730113292159
0,845041365084329
0,852650835163621
0,863635236507158
0,934417801605886
0,861299315142884
0,924602821140093
0,909062786015836
0,926556038371202
0,888297281911214
0,87478966494365
0,892265542535139
0,91125323600235
0,828773455289116
0,968303460112112
0,952102757445586
0,912442958753348
0,923347053184029
0,984703449008695
0,931696121672625
0,949589059681558
0,926697878101416
0,981323660462908
0,911310427604096
0,939349673242202
0,938700701814045
0,963369392042818
0,957444829501014
0,966773242725499
0,901817565480355
0,951847873494534
0,960483513776262
0,992880463403111
0,932729282767519
1,02404813435767
0,979299193550012
0,992512747401136
0,957938747494433
1,00475349370298
0,946501445512655
0,957964909094185
0,988623382692345
1,08014295273025
1,01488326664245
0,964638486886404
0,983403138239545
1,01852164586414
0,957907629323807
1,07070903762651
1,01742006340189
1,06291979398159
1,06002908556858
1,13690954571358
1,06299638260077
1,10786478165135
1,07362140984692
1,06396080990713
1,03162101264367
1,10288511316116
1,06235741383552
1,08364025367767
1,04326907484683
1,09768990757573
1,04741837516489
1,0697382846801
1,04701212402599
1,19408637725431
1,03330714094523
1,1082408551945
1,13427288830023
1,15773759674521
1,08514505730157
1,1645358879381
1,11290460544154
1,09518937116674
1,06832921401531
1,08395209329708
1,07110935776678
1,17207705315481
1,14553116002175
1,21620313163881
1,12465939107388
1,18380729034937
1,13284711930427
1,2049845543201
1,16023709661311
1,15645126143253
1,18985391954307
1,17678183218827
1,05671239346699
1,10000384701883
1,21517417649206
1,14200522434539
1,13232392906041
1,30864620548459
1,1592920000175
1,30345139799464
1,19348382806867
1,18600725156668
1,18784432007642
1,20343081803654
1,14086663680745
1,14077934359637
1,15172388767744
1,34673525240855
1,20400033528199
1,23793532655599
1,29352839007101
1,29042905766985
1,10939962660951
1,15059520687609
1,17858993106067
1,22324647671337
1,20767364457074
1,28644401693336
1,20541933694745
1,23907556606676
1,12048371861851
1,20034878486596
1,22123527882567
1,25900433309479
1,21367832203229
1,29642540758024
1,11921921689609
1,32534155865366
1,24075528621524
1,25656767373522
1,21983485602808
1,21880672585852
1,18308515717315
1,24234936006072
1,22461834185465
1,40413428880374
1,18933022049125
1,30844562556859
1,1867438092852
1,29271945762548
1,14086977517085
1,21291571183138
1,21137220641017
1,32975537034449
1,20567139387784
1,1420723229571
1,15329397216101
1,32567739808101
1,17877685188349
1,19981834405718
1,18055944832738
1,28750363523365
1,22866077514926
1,24699154189566
1,17462553584497
1,32792344164051
1,21068784232252
1,19226684472272
1,22595954255149
1,25985463884536
1,20392778884313
1,39912417432702
1,23578658931153
1,19066612159408
1,18829436938297
1,25201974001309
1,1993772519512
1,25623401972343
1,25144331162273
1,31879040101654
1,12849399787856
1,21343950054645
1,14773459589666
1,1808949318546
1,18521073472063
1,23120197765971
1,16887326255728
1,2678320523604
1,20714050796657
1,30373581114846
1,15155919249053
1,22540936697363
1,1846073951875
1,25452803054567
1,26600799105079
1,24769899027393
1,16082111589108
1,26211771453136
1,16052940807945
1,21380059889556
1,24250608985791
1,32762202928095
1,18105215289822
1,30052150700023
1,23067286610636
1,21860995283162
1,20497974250111
1,21383305939109
1,15637180069965
1,27197200231765
1,21234358388837
1,24793125958709
1,22037178232527
1,27627829058113
1,19667908121226
1,21678695311732
1,18785993983094
1,34600264308315
1,20542016163426
1,23532354422202
1,1487746171915
1,22621485272237
1,24212565465052
1,23522282719623
1,22458176504131
1,25327140517489
1,21150657771112
1,22722206545956
1,19378265347668
1,22708168324678
1,23384170989825
1,21215362259105
1,18610858977404
1,24082735938085
1,21749858153113
1,21170160256546
1,18259390605238
1,19855413901752
1,22726360138605
1,23042431990857
1,20121496296947
1,30517454430892
1,21707020086624
1,1994875968271
1,1984181091289
1,28722657351409
1,18867473782268
1,33643895123313
1,25207231453117
1,17420150892521
1,18694031411881
1,20362026742105
1,18460117467839
1,23088719702631
1,26439615823783
1,29436128702779
1,19306761466223
1,24381808582246
1,18396184747047
1,21054181064683
1,20175958485481
1,18138558542726
1,20273600895049
1,18853206056625
1,17489699173132
1,18769064283998
1,15882563688015
1,18752206610928
1,15004107554452
1,23895681876781
1,23903422879436
1,21122667897963
1,13317437825292
1,1971804603825
1,22363757449308
1,2016171028392
1,15373514383035
1,18681946386269
1,15593815170506
1,20372067795608
1,17944664585823
1,17434038575608
1,17827479449537
1,23654152719777
1,14594655244064
1,25458663803588
1,16624699377159
1,15383224622382
1,14398183505473
1,21709373661386
1,14983389206744
1,18746025208911
1,0907611726439
1,18746850080686
1,13237135769495
1,13165654134781
1,11429377907079
1,13765393945577
1,13189877565563
1,157550680841
1,1144675994477
1,12943074356517
1,07875912116743
1,15493922363629
1,06704459122239
1,12001156387404
1,09014219930158
1,12477595129011
1,06645325907968
1,15437610560264
1,07020510886535
1,14673433776136
1,04536664514433
1,09399547316877
1,02395191069089
1,10675537689986
1,07245240442508
1,09356841350681
1,02461934291842
1,04971353165666
1,0412392015552
1,06918022950795
1,05448215997679
1,06036624502919
1,01781357382076
1,03888753998099
1,01589928381336
1,0266301766802
1,00358216437137
1,0110811671835
0,982258055578309
1,02236799527891
0,971071483778906
1,00335228984737
0,989261539609229
1,0046174345015
0,9951003736458
0,973597941933905
0,931070488580478
1,0062559905292
0,932093187663056
0,944874969609351
0,9655557428444
0,969986323719777
0,947868127685022
0,938712109373097
0,923591426400047
0,90178854124356
0,924883118419658
0,996324414713019
0,903565453088987
0,914013015170599
0,875743514525486
0,888425857712892
0,905067009529029
0,912718752416653
0,890697062654768
0,877332382587026
0,875697261573566
0,87937081473418
0,881082302751576
0,869679546712622
0,837674981917517
0,852197101732082
0,843330628682719
0,852177211767481
0,813295122920072
0,819612495002588
0,796713499796263
0,830263288299673
0,787976666832392
0,812799735538657
0,805120662205623
0,833348006467787
0,778775452938992
0,813328082989869
0,762509825288728
0,798208821056939
0,768518367312221
0,786711311470165
0,737452369908401
0,749564117119785
0,764582538714136
0,761843731024816
0,752593021968299
0,777531971820925
0,730414612176703
0,733900832758451
0,725194596712829
0,732930692264319
0,709070907197717
0,728157416943765
0,688986724547455
0,702511748307604
0,692162526720014
0,701545987236315
0,686940807996348
0,705158440050624
0,665025412762972
0,68683307514965
0,661926821508073
0,668629096563906
0,645673108596554
0,643553033385086
0,65672182058911
0,662008978798075
0,649392252198928
0,636586534741349
0,636046640457471
0,645616597698343
0,627654002381517
0,629449842918021
0,626160807729077
0,610678628274617
0,622096632588423
0,619953523007481
0,599853089842368
0,608710114014099
0,591049028841624
0,604018233156274
0,579463096843555
0,585035359089435
0,580090107150877
0,581823105720298
0,565541283578357
0,577211229364929
0,566668903805201
0,553318594489523
0,54763980022757
0,562432483104415
0,550300682555159
0,548729705249267
0,541931811763861
0,544828466817906
0,526179018963201
0,534034468394524
0,529927666739466
0,524864734306015
0,518461958807253
0,527308620537034
0,50706864484725
0,519212569515481
0,502584471044615
0,502740771492712
0,494006179535945
0,500030957836608
0,489198566211149
0,491161607799356
0,481526674500952
0,484713997039032
0,468487557888592
0,471629593747352
0,460379452157566
0,477342073714993
0,463704675634615
0,472335376983819
0,450607362836173
0,461439298428122
0,44928418625911
0,451459540238559
0,4483930336586
0,445197116184484
0,44128817516915
0,436953560965333
0,436457333449479
0,432317213900214
0,426142772424935
0,425908478052426
0,418962029821787
0,41809002351773
0,406433026787362
0,411661998572409
0,411689799184308
0,406912763809247
0,39901920782891
0,401524820207614
0,39271064570437
0,401361090244103
0,394850608085694
0,388946502253981
0,382725563778179
0,390468433140719
0,390404002008538
0,385631867920624
0,38042287979839
0,374458277557109
0,364941617528048
0,375005970330113
0,369690425064866
0,36337370628236
0,358467669890324
0,360097612361489
0,349686743688566
0,356908323618119
0,346900942317049
0,353758952820024
0,345455294278091
0,342303718585385
0,344026881272929
0,340163624694645
0,33487603166706
0,340638767703616
0,324967167024723
0,330228984538354
0,331202199569953
0,326485384827005
0,317620298694968
0,323922301448113
0,321238543697597
0,314074228887413
0,320521347544696
0,309097533381759
0,309692197714208
0,310056555999229
0,30446248941976
0,305456246807867
0,300483298477698
0,301435146576981
0,291793957552543
0,293263947025926
0,286981990853625
0,289752870700716
0,285160964494131
0,281695437862622
0,28479728225678
0,28455225529596
0,277433875437931
0,277621322312144
0,277791202611528
0,275437578718953
0,26800497848615
0,266536332245674
0,270867822454502
0,273292766155486
0,262590123592427
0,263713012782375
0,261856922073443
0,265376799287311
0,255145867535676
0,248303698304428
0,25090522623685
0,259227201329951
0,250684357268051
0,248838587614494
0,241876731963658
0,247111437011135
0,247017018862847
0,238092930801631
0,240761536458869
0,241729645177091
0,241100952382607
0,234741226281333
0,227229390545069
0,234034806881859
0,225669671975525
0,22519918721194
0,21797681555594
0,226295520294838
0,219085041974371
0,220677367089273
0,220222041860486
0,212774654045521
0,214313530330285
0,22172909751769
0,222728010433858
0,216265380307194
0,208766967929578
0,211257949421576
0,202055680914803
0,212424753824363
0,2058567694681
0,202499235946285
0,197683957209795
0,211127469833566
0,199704685500744
0,204243588150631
0,201769399586038
0,201509269320339
0,195160789270233
0,194754633126456
0,194567107005745
0,193878659695463
0,192685027487441
0,193208027307176
0,182292439199849
0,192338707934125
0,186540927049768
0,183416328550284
0,18382761000988
0,182023054213832
0,180227236290256
0,180672752263989
0,182553753140131
0,177287739392529
0,178266306900135
0,177902878737069
0,173680259828924
0,172257436202821
0,168796296104773
0,172206697709098
0,171713699447774
0,171485669844287
0,165747972496345
0,164726566841781
0,166885234568526
0,165798991260599
0,16531845672201
0,1678435029865
0,157975977779395
0,160990124377741
0,159357135637469
0,154978655897942
0,156739712750299
0,160079227394717
0,158937637270676
0,157279439329209
0,156605007199835
0,151327845198744
0,149405761064169
0,151074741156778
0,146581701907027
0,149465426406411
0,146874155095253
0,150624749218026
0,145205619692594
0,148861416129342
0,141191099974104
0,145173733465414
0,144184864686818
0,145798672425279
0,146713214224593
0,142019820851506
0,138618282221991
0,13731534584858
0,142084502933348
0,141021300851707
0,135865162540855
0,1390797442612
0,13648964595752
0,130745296335271
0,138187791855574
0,130688556792466
0,13053325216032
0,130662216488477
0,130045349450101
0,132819102942732
0,126355716680378
0,12916171468843
0,127092594178112
0,132257114191594
0,127115289153279
0,121922547664368
0,123036271168149
0,129517920957686
0,124572691637379
0,122957464517264
0,121457759341662
0,116990323536329
0,121151444858129
0,124387220944887
0,116087838498627
0,114282758470542
0,119741236636046
0,113652469502531
0,115517814437799
0,117984560707755
0,11521025841595
0,115133008635295
0,115431049458581
0,113058236647851
0,113768603593182
0,109623492861966
0,112532913357586
0,108176574665803
0,105973200363053
0,110531093600196
0,109610536908183
0,109036345393278
0,108394118637247
0,107359346564336
0,103216869204532
0,104573609585354
0,103180788396961
0,102514183329826
0,100187278149107
0,105973010711996
0,101151827881525
0,101795139044503
0,101406215976045
0,100470035300806
0,100053491127454
0,100906519754101
0,0975687996459395
0,0987621142922853
0,0997914668958535
0,0981278436032588
0,0952064369657622
0,0953579153075208
0,0946170879579165
0,0964989191613564
0,0938875616198096
0,0919141341139579
0,0954883959688649
0,095921648074201
0,0910452622236883
0,0921025448575054
0,0908616372532231
0,0971490325423237
0,0948000084984262
0,0909577726142765
0,0887558970080342
0,0892129084928073
0,0922146723480137
0,0886419939499808
0,0893098744951963
0,0905609179926582
0,0865908063871327
0,0853794039810325
0,0876600288874581
0,0890033918084705
0,0873649027197103
0,086043638919412
0,0856434566546346
0,0842693372352187
0,0846391261518429
0,0852925180545518
0,0838115187766823
0,0844960381986325
0,0854475823311251
0,0854507103820583
0,0824049692790665
0,0811752229314297
0,0831235731426279
0,0823653318438252
0,0848840062123965
0,0821874550119363
0,0808721164696095
0,0806404611090166
0,078353252177957
0,0775816694246762
0,078008706641099
0,0778840777442302
0,0818365009225612
0,0812187503371562
0,0756370065929049
0,0790801314675711
0,0755167888320214
0,079239644920646
0,0773058759967906
0,0762881584920745
0,0771249204836001
0,0748746536392596
0,0766779968130818
0,0775126709572792
0,0743108434271264
0,0748443065274889
0,0746648040268458
0,0774105733101269
0,0749921065268544
0,0743828036182649
0,0775339574796122
0,0723649824768662
0,0700643799715014
0,0738747268504273
0,0716240756963057
0,0712525807487657
0,0672483727049123
0,074779693226858
0,0712312971430877
0,0751200208645202
0,0693679314503119
0,0715019050348098
0,0700353522968466
0,0703896482875518
0,0729386468774612
0,0689850471392852
0,0683811123753222
0,0719118234650416
0,0655404403320253
0,0677889381841787
0,0610902056162821
0,06759988927797
0,0687029277710876
0,0669376563844424
0,0676381548494775
0,0672645792504271
0,0660477363868771
0,0621444590164359
0,0624077230897593
0,0640995439613262
0,064585674977629
0,0660887022617513
0,0687766152109839
0,0654419036731664
0,0653469981564169
0,0691609690591669
0,0656500033348715
0,0643184378438337
0,0675745198522205
0,0635517200765028
0,0597459952879671
0,067254829351841
0,0658029077805491
0,0657204612696994
0,063440290592893
0,0624196844146316
0,0624881780282161
0,0599692203613852
0,0650479993414102
0,0619154424210916
0,0600228513796604
0,0619813866362439
0,059309122135636
0,0637524429051856
0,0623293034893272
0,0591018604357027
0,0604089876267147
0,0624568589002609
0,0615799060784758
0,060408908622599
0,060501148129696
0,0609092760384436
0,0614722263434621
0,0577574430384235
0,0592794424705819
0,0611449249124539
0,0628130140919439
0,0615304072290039
0,0632146741586349
0,0579582085730766
0,061616648405175
0,0615749291171199
0,0558759123867923
0,0571098936511627
0,0581889075108
0,0581216444592924
0,0592260886544479
0,0625501464673645
0,0598874038299873
0,056420918954931
0,0581958635065771
0,0611697777794081
0,0585096658443349
0,0551835599482842
0,0570821571013556
0,0595581827076836
0,0572102110644253
0,0581514561160039
0,056556409623615
0,0563885157571717
0,0580836172121067
0,0583472787804305
0,0572169527787664
0,0562899820861663
0,0586192027740882
0,0544139325832541
0,0554604727541678
0,0541254653537122
0,0559709498864184
0,0566190094709086
0,0569328361096732
0,057945960125871
0,0560918604321922
0,0537999004184038
0,0531267041457345
0,0544354290983187
0,0527054391977521
0,0544080463561682
0,0535126802586127
0,056694767645123
0,0541336240680569
0,0541704610514902
0,0544297870347118
0,0540089208846383
0,0550680201342615
0,0548402994846881
0,0549909115486393
0,053531814511059
0,0556281165064356
0,0574814637535017
0,0507255029698066
0,0537174686739651
0,0543099136159209
0,0531260216279687
0,0551328531410958
0,0532182351006191
0,0533272174437782
0,055839022364099
0,0538877875125303
0,0546271457869363
0,0541630830439332
0,0536089862833285
0,0540368020664589
0,051979722457049
0,0544021937245648
0,0541076094416418
0,0548707900906361
0,05545282436231
0,0497067456388352
0,0528840575304054
0,0544051728599865
0,0532597778395205
0,0517975077655444
0,0532391519545368
0,0516653312003652
0,0538218034775951
0,0494824813856317
0,054150738404271
0,0524775801217354
0,0500265956409173
0,0508729805491338
0,051897624655289
0,0521687758246206
0,0473927079460162
0,0481973378447676
0,051358116038579
0,0525122764462634
0,0537068676853463
0,052377733312265
0,052592572257476
0,0509028752232144
0,0525608643524366
0,0512961212748057
0,050752757266402
0,0519153901235318
0,0499868601247717
0,0520339909339969
0,0521397726037544
0,050925684589406
0,0506390133895155
0,0541940706887463
0,0495961519128988
0,049231662908485
0,0504498252856874
0,0495008803740232
0,0509146884277536
0,0505021562659037
0,0498636982611044
0,0526080387584238
0,0510652491163361
0,0505631166115035
0,0533900755746463
0,0534612719942902
0,0533901143283662
0,0517096098573104
0,0486055518458355
0,0501698831445955
0,0516489617781076
0,0504595935465605
0,0519734303415883
0,0493772563199269
0,0487455902194473
0,0493672864984372
0,0497448388243962
0,0476533322772636
0,0508588627943952
0,0544081788167368
0,054603090578965
0,0494941725778766
0,0487925162207011
0,0517494482454471
0,0518645542439793
0,0534312794017849
0,0516125603268901
0,0500983818225775
0,0494225706602055
0,050824248031278
0,0522468451108384
0,0519408554302409
0,0505827424123026
0,0490531885461339
0,0506158165507462
0,0521683052970809
0,052720628174818
0,0504014728737598
0,049908828378275
0,0512090069533429
0,0532462585224802
0,0531793535828066
0,0506561439021167
0,0503120642726609
0,0528654400992478
0,04993691980265
0,051300035198457
0,0497475128941727
0,051384495246147
0,0518112071821974
0,0527762484965068
0,0518016590267392
0,0526381964348427
0,0529398876169305
0,0553116554014679
0,0529060148936675
0,0515576712856952
0,0541436391837579
0,0507693538572399
0,0484157525280743
0,0506282882052996
0,0531431835193993
0,0535489444529535
0,0518303207400193
0,0516627830183533
0,0515421332973809
0,051795496509296
0,0502697638591791
0,051369609538209
0,0530433036089767
0,051586325182977
0,0530808830478962
0,0523159866293117
0,0531007260882685
0,0534278543104291
0,0549280212092154
0,0524174911450731
0,0518485552948204
0,0514534010483702
0,0534105757723238
0,0539129620455706
0,0551901783893662
0,0562636562564594
0,0528305774007072
0,0537247658792668
0,0507684251455352
0,0520410927715908
0,052593987253327
0,0544448029159888
0,05467604636745
0,0513998660662965
0,0539374063280212
0,0564128276553339
0,052985861834119
0,0537601331610607
0,053538387812661
0,052169442012657
0,0517460469657338
0,052929531117067
0,0535367186376295
0,0537981143252229
0,0497083045194729
0,0535675035955029
0,0557655897751782
0,052866975987119
0,0517932869078006
0,0523036595660669
0,0546188571745745
0,0547210430217107
0,0546538391511011
0,0548542047772907
0,0554569275021725
0,0552305216592148
0,0549609945428026
0,0582038799479831
0,0565719744291722
0,0531725355714712
0,0528479996592895
0,0562448210364469
0,0555639342107335
0,054395347758353
0,0551138820728466
0,0539184664084994
0,0546839719773643
0,0551610230828027
0,0525162824247943
0,053955375174143
0,0555870040836469
0,0565169433029723
0,0548237575202282
0,0554200320379925
0,0572625056402023
0,0541808386852329
0,0557948622043728
0,0600716393076943
0,0554370880343029
0,0575420748217332
0,0575840762103219
0,0540040550026536
0,0563868418807237
0,0588848681138744
0,0566443088695874
0,055361952688369
0,0542748202874124
0,0553273158505166
0,0558436517244642
0,0561955445731454
0,0548575364017509
0,0584305513213009
0,0585666590305365
0,0571882364316932
0,0552039114012213
0,0558179322399793
0,0554868593623833
0,0573794501562838
0,0570214059225604
0,0562840900526514
0,0585316852391669
0,057070719040621
0,0575197067089086
0,0581451757598419
0,0573513696371928
0,056810245467896
0,0569658757495447
0,0584105014075886
0,055860833653488
0,0591078155018439
0,0553488522766502
0,0558357333906425
0,0580532898386473
0,0584207117059424
0,0590167248151544
0,057400772671196
0,0567929415866953
0,0568254224246743
0,0594299636688478
0,0593654763435351
0,0596734818486758
0,0583653295101968
0,0579012142671941
0,0605814639362459
0,0585256456508929
0,0602031215166627
0,0595198759131371
0,0585538249291723
0,0586995591024397
0,060669804140118
0,060472300901871
0,0604379785434572
0,058585286364229
0,0594227186487537
0,0608851996520353
0,0590323715217752
0,0609220653330489
0,0633843482140961
0,0620420555692169
0,0617459293747659
0,0617737075826373
0,0618982788289374
0,0613634973994279
0,0622574302937142
0,0623863033452268
0,0600379804866721
0,0620167591218475
0,0601621626917345
0,0601278917681266
0,0621300357391943
0,0618224524444969
0,0627232276400224
0,0629249002599572
0,0626347495264277
0,0615043036990916
0,0647593962085082
0,0645419776972715
0,0615238439773942
0,0637461884773206
0,0644954741448685
0,0639041502088555
0,0641583801177134
0,0631469582193075
0,0635993042823244
0,0632811763431556
0,0626998790920522
0,0621220916043074
0,0623836856061015
0,0653794073140606
0,0649910865922293
0,0652630050609446
0,0640376068808449
0,0616259406419358
0,062974337108031
0,0649529854703239
0,0633359045249699
0,0638030473717019
0,0676955367994023
0,0649163064260156
0,0617781326565369
0,0648469856302412
0,0662277790118296
0,0674772459271061
0,0662918893222044
0,0674228570739706
0,0642173991349491
0,0633840904234165
0,0676393142832815
0,0667356794839056
0,0647399947249078
0,0652116147105274
0,0648734255494614
0,0674237935445328
0,0667618003364958
0,0659536529640095
0,0686725743210265
0,068226188834353
0,0712154978084412
0,0701487807840545
0,0654299772952166
0,0703416739089779
0,0669332955911313
0,0669076014820633
0,0713396141011319
0,0686653459135586
0,0676573828206107
0,0732101981153457
0,0696427818038271
0,0694772338551939
0,0713239986029936
0,0683677338696872
0,0684030643647146
0,0735689693716719
0,0740940934139904
0,0722041698327778
0,0700046884184384
0,0721821741200412
0,0673476618480945
0,0669682946729556
0,0722808205381708
0,0689137752747317
0,0685932467670796
0,0736070112955877
0,0682483718839517
0,0699675959029206
0,0690604985294802
0,0740320528778023
0,0731583514607114
0,075493181543041
0,0725709084687133
0,0737840874479382
0,0712408683952029
0,0725883294868842
0,0740846613379797
0,0770008881188644
0,0714438391118406
0,0771054590106574
0,0720889277168714
0,0743221336462539
0,0731996189935293
0,0727374838264143
0,0693965983608587
0,0736070497976256
0,0727704631934284
0,0745175106711648
0,076541062551672
0,076028193258313
0,074785889640064
0,0783780098212313
0,0752445010030017
0,0738177233711875
0,0745311455127611
0,0723867717954217
0,0775117001879368
0,0774624390589049
0,0768600641455657
0,0730175061583928
0,0823023777767953
0,0705138570113789
0,0790729965295734
0,0724572504919597
0,07729387863143
0,074690560337849
0,080883478884607
0,077097032789699
0,0777538443894679
0,0738775029548888
0,0788379510817322
0,0760410888734579
0,0806908033524119
0,0794915023032731
0,0803095954040166
0,0769099794901263
0,0767450867017522
0,0764282342298951
0,0777982942292206
0,077697783898741
0,0798693118171089
0,0793634379816968
0,0785058940505548
0,0790632130918611
0,0815646774334691
0,0786505530850454
0,0792805251805604
0,0782717109049075
0,0800044723869514
0,0819652016108531
0,080333978261122
0,0775830751194386
0,0811583707842123
0,0798101342286387
0,0801596319300246
0,0798148368986539
0,0823053830394698
0,0806020731789845
0,0846382549816691
0,0835712139817739
0,0807235062493927
0,0847234432721032
0,0856186130499126
0,081493902691616
0,0815741170612972
0,0831869920584907
0,0844966745784394
0,0841066740389745
0,0864270732238547
0,084665531299606
0,0858233884614812
0,0846033821120474
0,0836176011307193
0,0844623852892342
0,0844750721128049
0,0853376469699216
0,0876543720622585
0,0858908969924716
0,0874381470277448
0,0874848322504259
0,0875448701572163
0,0847574027018506
0,0871987789014064
0,0865164933094726
0,0868882975154844
0,0864938466269632
0,0869066571598734
0,0880427931197385
0,0887285151084555
0,0874942308849044
0,0895987258126092
0,0889021969651109
0,0894707164053792
0,0895585284729708
0,089923680957439
0,0891594544529912
0,0913586895358912
0,0906209798385406
0,0899470285443328
0,0909155283622467
0,092108280045456
0,0904158636657502
0,0894583311127673
0,0902516153785784
0,0917447155446427
0,0923434185004825
0,0924011258097685
0,0920288400525439
0,0916140637453189
0,0904267128964857
0,0936801607245265
0,0942599671758086
0,0937843504253034
0,094596209584617
0,0952975877710613
0,0930099976297621
0,0921407564873016
0,0922697004735637
0,0937647546857946
0,0946036190098509
0,095822254834936
0,0972593653075309
0,0968811822017554
0,0944793720987589
0,0951535814934741
0,0972884109800282
0,0987475922875752
0,0972834724720308
0,0963392823505711
0,0981377355332714
0,0992659707379513
0,0981463079236229
0,0987131894634975
0,0975047078132344
0,0995950813670233
0,0990280161477056
0,0971263404233363
0,0982763741141425
0,0989600757233854
0,100391259388851
0,0975050336353344
0,0987887702421397
0,101644014403077
0,099037858627954
0,101319204475258
0,0998521375566218
0,099431435923304
0,0999533715980464
0,102032307104357
0,102662035036304
0,102316954012559
0,101483906358757
0,103612188302409
0,103302684878225
0,103560744445887
0,102344433138351
0,103236632358223
0,102343880460722
0,103287255560477
0,105360695952435
0,103946734148585
0,10280535015746
0,102473478325836
0,103075742157827
0,106282562446
0,103197030050401
0,103571888940216
0,106470227416553
0,104782684448572
0,106567803607464
0,109592121914711
0,106885222142196
0,104904160674996
0,104869532093393
0,104227784627997
0,108239476255873
0,106855986358718
0,105157799486408
0,109024752539822
0,107433807886611
0,108006754880205
0,11003823337137
0,109412794831998
0,107605362869866
0,110242177406332
0,108731489739447
0,107124812435546
0,107596281886507
0,112000981913947
0,108700761023143
0,107522077556527
0,110939572822707
0,109589607890832
0,110346504261506
0,110376172658039
0,109781574180857
0,111473994473603
0,1106202628212
0,111143541128436
0,110697755594788
0,112049460988554
0,111448117656036
0,110203203272394
0,111055211603573
0,11177201729382
0,111005532622243
0,111220277812056
0,113101482630967
0,112322522384741
0,109599371355993
0,110812145794808
0,112278162335819
0,113193382315184
0,112641844529577
0,111408033699682
0,113714005036167
0,112773299074504
0,112034797893698
0,11334679583614
0,112455087961912
0,111526321400452
0,11137430000418
0,112558389688455
0,111730061900932
0,112343052813395
0,112863160617545
0,113352052638424
0,115030935133501
0,113819492709347
0,113169857929262
0,113606727279471
0,113375595286532
0,114104642119686
0,11025843884603
0,112286274274954
0,113102412494684
0,111823378342964
0,115057814283637
0,11515681875182
0,115373243743872
0,113674455488702
0,111385989005549
0,111399027277502
0,114005479995876
0,112490971852268
0,112418336637433
0,11450224717931
0,112020699301763
0,11429328593556
0,112183704035348
0,113345831912548
0,114465264688619
0,111143687122301
0,111765424466251
0,112103589081263
0,114093818714417
0,11365800785055
0,111985370719781
0,113328288278716
0,113734860312907
0,111089703250743
0,111412343558262
0,113658048464099
0,113572534202616
0,112086279189753
0,112323865661824
0,111971275748074
0,112446133659541
0,113521730655204
0,110915879335751
0,11066944687272
0,111879468388311
0,11122418225913
0,109996293075164
0,108897524426477
0,110666808983067
0,110734378950704
0,110434180749427
0,110294901430645
0,111060794933875
0,109531879195079
0,111544304010076
0,108326239167617
0,107484648396511
0,110863534012904
0,112821959246481
0,111483792561941
0,109280359495735
0,10862922892999
0,109901689305565
0,110082699136368
0,10585863916971
0,109927030116649
0,108827619725238
0,110606101413789
0,108894060562158
0,107735798825859
0,108809060016548
0,108083678537201
0,106857798030843
0,106676710070312
0,10620954359523
0,107266127163858
0,107969996656326
0,105994600557109
0,106292421328911
0,105498635135427
0,105911112043366
0,106345455923494
0,10544685002272
0,104958651723634
0,107979394611297
0,104989502698546
0,102411434792954
0,103437460423984
0,105266708479122
0,103863475119324
0,104316477921351
0,103515478207892
0,103364636116735
0,100470734708874
0,102496417259433
0,104138730954953
0,103943356783462
0,100915353717287
0,101994736675771
0,102608169198435
0,100654071043666
0,101790779741274
0,100675006046897
0,101776844646808
0,101724237338431
0,0994575115296579
0,098727912546339
0,100195725718528
0,0989209628580718
0,0993752702697325
0,0976151010504693
0,098781823361092
0,0989976063709703
0,098461759944731
0,098093448115674
0,0994268912828073
0,0990376676308136
0,0960980086700735
0,0972186850686956
0,0958470807987218
0,0959001665925681
0,0955607645965238
0,0960408751457139
0,0960101544340006
0,0947567982570289
0,0930923760175318
0,0948866556862156
0,0963415385283391
0,0926881041857528
0,0933574397182318
0,0932895627037871
0,0952588647124214
0,0953147567143497
0,0937268566192431
0,0937151647789973
0,0918349332697117
0,0942798262308257
0,0926133725129778
0,0930320861986661
0,090696376088669
0,0918225400644693
0,0909539373290105
0,0914018467326402
0,0873028521631661
0,0895899044782973
0,0931553966195163
0,0911395230087928
0,0897073450275527
0,0884188698180469
0,0893529850226178
0,0891134366540259
0,0889350312092523
0,0882609853749443
0,0891375410140364
0,087706850037455
0,0872317057057682
0,0873986812687097
0,0876662662280326
0,0899718397060915
0,0866815527133423
0,0866309490526823
0,0854566233297045
0,0840984609764547
0,086191227006343
0,0851009237821047
0,0849407316003049
0,0859139066275428
0,0852357277548874
0,0854610792750523
0,0855423923613284
0,0841067301122817
0,08381110524993
0,0836376488363616
0,0842197413698516
0,0851912639872096
0,0837590754014016
0,0834984771059274
0,0824852890716471
0,082586821703393
0,0822260193157705
0,082465563295514
0,083490627615848
0,0828955890432949
0,082696392672589
0,0807780723651411
0,082076474718534
0,079763784798692
0,0798230905355641
0,0781484416945659
0,0802736366127222
0,0793282378023998
0,0808706640967816
0,0790781231215884
0,0794009012068648
0,0800825224122271
0,0804997913998077
0,0800856173489359
0,077173577166236
0,0802490963108399
0,0779153701000393
0,0796433938846241
0,0788112380022258
0,0794949431426409
0,0760866710337389
0,0766296098407611
0,0764315149310218
0,0784481065332568
0,0766145846025179
0,0764359363365782
0,0792571980883173
0,0781504073810658
0,0762414724669971
0,0751160614886617
0,0781306191398333
0,0770938874053631
0,0746824344654799
0,0740960209569284
0,0760497645362441
0,0775468771722513
0,0757208452619984
0,0740571008000595
0,0731308174539942
0,0779146622197816
0,0754154280741414
0,0764504106872349
0,0749894563528195
0,0753351932198265
0,073792755624999
0,0733172436475376
0,0733194701006292
0,0733944804339051
0,0717734762918295
0,0744354862033282
0,0743160305132365
0,0737675534507731
0,0725323177820086
0,0727150129464387
0,0729916848309462
0,0731723704915474
0,0739845466103626
0,071919491713913
0,0710481964870909
0,0723617785524717
0,0737279735429872
0,0706239308712746
0,0723227881974809
0,0718396392905985
0,0729135717736517
0,072937693079214
0,072425131546056
0,0731308847652939
0,0727616133093534
0,0730017850578276
0,0729481405299373
0,0722749385971137
0,0706209955204288
0,0713144667762417
0,0728326120741149
0,0704818494551877
0,0707774412958648
0,072592023840677
0,0718051652395829
0,0715723184305104
0,0717616479802989
0,0703263129751058
0,0704701611150443
0,0684917550326907
0,0694336398641574
0,0727150894071337
0,0697467824540284
0,0743287240896498
0,0702010986990952
0,0711977954107018
0,0701829437390144
0,0714488840548242
0,0705652147702565
0,0717461653825428
0,0701025847995918
0,0710594848253081
0,06974094589031
0,0700857418954779
0,0707607294734665
0,069282658043632
0,0703994765158292
0,0711089345413212
0,0715133437503841
0,0710542862996238
0,0713657216023128
0,0713814512779051
0,0724508315656184
0,0726459706789768
0,0700107350418418
0,0695415222855668
0,0720123640393437
0,0721423803257782
0,0735443201404745
0,0717007929595233
0,0757695419126543
0,0713317539081091
0,0723691860852839
0,069323296402274
0,0765789374051464
0,0735352763772646
0,0730545339223388
0,07294606735412
0,0695426221101533
0,0698787755744244
0,072590583203323
0,0731798916552582
0,0718455592253417
0,0715548779875408
0,0712060529239856
0,0740169513948508
0,073727516486305
0,0729315121129221
0,0728487336490642
0,0738201564496098
0,0756253879227463
0,0726768578092642
0,0749999712641542
0,0738772418261136
0,073252169662582
0,0756454130481823
0,0725420758895459
0,0732909287371872
0,0730890699033965
0,0763553796621236
0,0745926361807326
0,0748320071908018
0,075924278329981
0,0768972284237095
0,0778102549712902
0,0743237718364033
0,0748312576784378
0,0766100119991294
0,0774099279258399
0,0756627212635607
0,078544942106852
0,077927418239677
0,079555360404903
0,0784958644101135
0,0759492330634942
0,07853785185596
0,077448620615614
0,082007955423989
0,0781866337025454
0,0797564323957111
0,0793388731598871
0,0767504123774758
0,0796640979942295
0,0815169513926075
0,0789022049704638
0,0826087675497624
0,0817262827978678
0,0819903511825162
0,0812497199747489
0,0823818672428188
0,0831766989118537
0,0799286598479268
0,0839370509953273
0,0830607459112099
0,0847974528698973
0,08410697028109
0,084001920428714
0,0834723107414216
0,0877051790682282
0,0857558021402091
0,0844070153808889
0,0864475354622007
0,0870387746101625
0,0856473995441409
0,0875613936191839
0,0887293330233048
0,0875812835929829
0,0877653613005844
0,0901722565493666
0,0906532911834267
0,0893297250419627
0,0914955631278315
0,0922414943683071
0,0962345662412674
0,0963279565343907
0,0943526920251716
0,0981022102021749
0,0903126747394319
0,0960208174018912
0,0965939443493686
0,0964400858672876
0,0967457667847376
0,0990787387655287
0,102576514334042
0,0998964134893702
0,100547406367923
0,103547666388022
0,103191397304088
0,105952834662588
0,105193124084292
0,104544720837658
0,106442207282095
0,1083076516243
0,104759918830037
0,110502380730668
0,113450902407616
0,115595139924829
0,116221924838608
0,112046034035961
0,115964995450184
0,114587802017052
0,115663405647449
0,117907876998194
0,12324475926371
0,120559416585816
0,123182507743381
0,125196469486729
0,129984089760324
0,125389864994674
0,129453625670922
0,131150066926063
0,130088855067872
0,132439256048447
0,141152136954794
0,13881080297123
0,137221095042156
0,138951330433811
0,144092966646089
0,146141254346675
0,149717458349694
0,146581839797496
0,15121635099699
0,151971937003985
0,156196248933087
0,155701147139628
0,159604791173859
0,161051253145482
0,165754398346594
0,166219318586325
0,174074634500136
0,171992884677354
0,175202106266031
0,174440953264544
0,184741408493746
0,183424673914729
0,191174850888934
0,18535564933572
0,193575704197747
0,194974571905624
0,200439066752661
0,204300902910444
0,210652328762658
0,211925308451124
0,223349582375819
0,220321714310382
0,227080374481205
0,224647872086014
0,229193631138772
0,234754789865814
0,24585986070005
0,236159559740653
0,251302656512326
0,249294872426399
0,265308588704373
0,263161596301518
0,279077078753713
0,274781632246207
0,278766624206859
0,284567894169809
0,291209464222518
0,291946245918847
0,302627826795057
0,301690676934602
0,311337967236537
0,314860582734435
0,322337189599355
0,321429331653202
0,347413395135743
0,343027551189444
0,345407038008821
0,351723459397861
0,355437802501231
0,366544048405839
0,365850029611132
0,369927719812389
0,38212473027379
0,385071639966932
0,409115695466029
0,393758891609513
0,401479651353489
0,408539937151821
0,422291217694005
0,421057240643745
0,435950863576983
0,436757731192629
0,446594705829755
0,446108500745478
0,454847169495073
0,464134116674255
0,466734560973527
0,474089153015044
0,487061584691409
0,485960368198666
0,485266146340312
0,495211842574581
0,495353680845989
0,50965570171853
0,514182095620473
0,514474536638827
0,539157584126346
0,539403751231039
0,587407266038039
0,541310287440365
0,547401570349351
0,550488148001721
0,559500642772832
0,570853728098558
0,564611037760122
0,561260207231265
0,578186472905062
0,572088793954713
0,581623048021025
0,581676110003565
0,599025558907253
0,590908765552973
0,596146976208667
0,587769850715753
0,603633871039064
0,606339662243764
0,595814624932076
0,611415353840194
0,594522264365292
0,58569864222316
0,599337908557154
0,595112798789638
0,596392391473395
0,577440203513806
0,586632585154318
0,594480251460379
0,595392992235371
0,574400605635269
0,570453558899903
0,567986192860669
0,566351281881776
0,546510063275207
0,545622111365341
0,541945995264223
0,536116508230882
0,538491066980739
0,544339180368689
0,540398839681825
0,512060478955763
0,50364969408046
0,497071867181915
0,48812348615613
0,48740530093598
0,472842092319855
0,466360512069393
0,471603609558701
0,460636093942396
0,452271831320751
0,444855441470263
0,435027332977172
0,431350447565331
0,427279657955704
0,4185944483526
0,413379216667721
0,408907712434455
0,404178181023099
0,396420099470602
0,386161454082993
0,391072781738388
0,381383155413912
0,376027943748176
0,372887871117609
0,371975067992455
0,362017601343216
0,355562919947081
0,360064980818182
0,351235610348736
0,348317357455929
0,339145491850944
0,336356049066883
0,338110655494115
0,326704370798507
0,329031137015602
0,321343081296932
0,319002255094045
0,316965166322774
0,312869137431479
0,312257440430454
0,310445327406292
0,31089698503365
0,314947306387844
0,296662438524925
0,302040941713623
0,299045703703898
0,29401135882631
0,290779103532224
0,287870243970936
0,290210471275532
0,284365666760632
0,280479013297673
0,279028740340334
0,27404292945969
0,276136050299498
0,277172027652215
0,268712284549703
0,269417007067385
0,270699035235215
0,271284613397298
0,267184481870114
0,266246793556654
0,273583585148253
0,25959108382245
0,254558656502716
0,267453206473033
0,251080981443036
0,255162931575592
0,252701990226332
0,250726147026351
0,245766462945337
0,24993582676366
0,251148610157548
0,240563328369282
0,247093037274336
0,243811977056314
0,239451204357662
0,239018878346197
0,238061754913075
0,239575999797521
0,240010552836464
0,248172778661709
0,249417514642882
0,235731445004828
0,232843573663684
0,230321828404623
0,231473509996976
0,233890267979273
0,229852131037326
0,225487972407218
0,226673095843984
0,227219300674602
0,225880481156972
0,226775454932718
0,225399125864348
0,224572018309856
0,226078000171724
0,218494528397714
0,224393688924212
0,216387445239233
0,223241546350732
0,224113308040974
0,224302040231665
0,217382825791056
0,214656586970284
0,225662110896849
0,215717851720721
0,213236527100603
0,214100864067843
0,211205689246946
0,217529119277927
0,211783244011206
0,208596989361598
0,211644501186426
0,21088827751401
0,209293609613757
0,219266706216891
0,215335586574347
0,212423367276765
0,206269870734139
0,206793377421007
0,202643368003944
0,204063689334816
0,200935038341338
0,206021543931652
0,209239552125204
0,202874169614753
0,207969167852803
0,20320182506015
0,203349241168525
0,203074116155756
0,202206245310294
0,201524118929769
0,20085716911003
0,207146176805345
0,200709290081578
0,200889117506375
0,203224916631722
0,198978357725114
0,196133240778177
0,199517764681336
0,200751540645361
0,200078884167164
0,198450832297646
0,197312025132668
0,197606823295563
0,195565128857446
0,196112647732301
0,198723606241815
0,202419212452607
0,198160797932368
0,200249882655407
0,196095911946963
0,201019967700426
0,208252778291327
0,198812577731089
0,200618558784134
0,198410565632724
0,196509950205199
0,19687067894419
0,198606762466234
0,198240659423624
0,199267470315437
0,201010857242164
0,198704599678229
0,196122052864657
0,192387961038378
0,201805967013671
0,201974074793758
0,198528054441978
0,20702950239328
0,199662549678615
0,2001921856018
0,197016261145074
0,197638730296322
0,198067765566267
0,200842735398104
0,199479296213326
0,197477030186515
0,195301219216475
0,196799396834339
0,19835041362403
0,197856770627975
0,196464076877468
0,197873672789211
0,194927191808386
0,196989087826083
0,194023078321114
0,196248996634389
0,192581048626248
0,197445766953868
0,195883013181704
0,196134625319663
0,197393255904794
0,194564451107958
0,192910482395652
0,198739043748584
0,195437684812967
0,200165185972744
0,193806692453476
0,193958320324017
0,198248145151496
0,196148740367056
0,199477644206804
0,194650150415789
0,196782353354591
0,195512239709202
0,195635981945735
0,196120069006082
0,19298727433204
0,204638452202009
0,192273687790341
0,199563037064325
0,191275200436535
0,196951011575274
0,195196088563089
0,194622430846763
0,195603446230385
0,1979874193289
0,195078395956485
0,198232155583734
0,199831893327207
0,197808974364681
0,197811553303814
0,196705093873705
0,19534627227401
0,19369673064975
0,193891474890282
0,197532602734274
0,198365674706516
0,198270332001701
0,190647317399155
0,195543465298997
0,191110564694624
0,196547375004873
0,193763742005391
0,195265420670536
0,194204910226743
0,192719958072488
0,194505456381761
0,19578009298885
0,195283570709588
0,196851883996415
0,193193684674247
0,197999328862213
0,195127930069518
0,196950986104515
0,191064356907198
0,193846374282679
0,194657650980396
0,19648208561915
0,195192235085503
0,197229925943495
0,195341550441091
0,194922822642037
0,194697543084925
0,198658747720975
0,193836548211473
0,197106909034264
0,195615499638143
0,198105174263685
0,194463355447276
0,197372772668602
0,193603802449607
0,198316083308759
0,195337853657065
0,197427453198616
0,192955448671234
0,197493018687098
0,193396145949402
0,196133628107969
0,196689007612474
0,190134313382733
0,195339511795904
0,192574508598137
0,193183290345361
0,193393113439093
0,194187681559366
0,192711758561701
0,190365509440432
0,193628299924788
0,192934228868492
0,193106774648254
0,192481792217718
0,192985764866296
0,190912931148193
0,190237578251665
0,193138761466472
0,19315421011802
0,190679882814924
0,195126601776799
0,191389781461535
0,191333944007031
0,190849827465294
0,190572769094161
0,190855486464981
0,191973057194702
0,189653171508536
0,190749756637899
0,192784651754932
0,190632365780258
0,18909336639667
0,189233883650989
0,189505493762839
0,19051173428497
0,192211677171889
0,191671605113524
0,186506414497447
0,18967702339745
0,18752488084092
0,188799404427118
0,190629090258309
0,192515881002791
0,191134403246688
0,189582042650559
0,192159911273425
0,187694723395654
0,189225589238163
0,18867027849984
0,186239759427
0,189728635315373
0,188830036045328
0,189465070320101
0,187842395093158
0,189160947591139
0,189047335423254
0,188935217722965
0,18757283135181
0,189676045456955
0,190102365864508
0,192925866127069
0,188699750721419
0,188854294508563
0,189478167440763
0,19149282787072
0,190265669280018
0,187762313556996
0,185717691608633
0,187237222961321
0,185938151808531
0,186354746975327
0,187210275010906
0,186818664617935
0,187192050744392
0,18781899845645
0,187149442163121
0,186074588861689
0,186816336285777
0,18742945433023
0,189353039840772
0,187222772360186
0,186397399336654
0,190252339643709
0,185709130614226
0,18558686796842
0,187278518299852
0,186914640980573
0,186813533258146
0,186886720550353
0,18788116809687
0,184947715105009
0,185163420745199
0,186991756541147
0,183409188389091
0,186796610919543
0,188013146782339
0,189605640525906
0,186876578198622
0,187540851611885
0,187988023231239
0,18755270993929
0,186158929406593
0,187260253411272
0,18433336770255
0,187138028444459
0,186532297283719
0,183780079518316
0,184811088071591
0,186820665572936
0,186566533338366
0,186670456096272
0,185928278991476
0,188013676391683
0,190442118742006
0,189177163731103
0,187763997840456
0,187428876889609
0,185981051357982
0,185787186054932
0,188159658456858
0,188143399284806
0,186874216832955
0,185787723410554
0,186658485868923
0,186578177284712
0,183643093978617
0,184996864163825
0,184955165587223
0,186070001774814
0,188096118130237
0,185349452901246
0,185671343322774
0,183421874760989
0,186118977239562
0,187416810888188
0,184399082254531
0,183254459092759
0,181823648566444
0,183832046140598
0,184475548633228
0,184548439730736
0,183560039452936
0,18389839395216
0,184944866689841
0,186303832934442
0,183774811265105
0,184330799716681
0,184058712933227
0,184166741791063
0,186540680301128
0,185026803039875
0,183303451666778
0,184871652289267
0,182806114879208
0,183086265076778
0,183589881175716
0,182123991045951
0,182348606655764
0,183419104097983
0,180686415505108
0,18295795966576
0,183127742162997
0,180559400112793
0,181479371122893
0,184444110165894
0,18217207998426
0,180240250130471
0,179947071674655
0,180253639082661
0,182177876955415
0,182828978703921
0,181241848675319
0,181503975534281
0,183560904870673
0,17961241617903
0,181085951892292
0,179621963359503
0,182242855569623
0,181879208783278
0,179443053447541
0,181425274134119
0,180541115797661
0,179795470018358
0,178544135417968
0,181456095639484
0,179404523341257
0,177812861856404
0,178943220975589
0,17913522671151
0,180013750252017
0,177946156260908
0,178679616302207
0,180027283425995
0,177705038352254
0,179880191136291
0,178387985125328
0,17944620307442
0,180351446420439
0,182247087028515
0,181041770906516
0,181461813685005
0,180893070642445
0,182672138108781
0,182398059887849
0,184414846404491
0,184393165355021
0,186170419438567
0,186153164184207
0,18571715917311
0,187600831417003
0,18692285337187
0,188673931557186
0,188881603386449
0,192343321314172
0,192991618417948
0,192609763738492
0,195932726103095
0,195348415892313
0,196956971352157
0,196950256330183
0,19598967850829
0,195202381775646
0,197498926588796
0,197512709235203
0,197759296252585
0,197495896705525
0,196986171672509
0,197046802093675
0,197624320165191
0,197674774724436
0,197168918967466
0,195054939412377
0,195152004378777
0,194970748682604
0,19422288090426
0,194549581582834
0,19628652552461
0,195934931354777
0,197105761614087
0,195908916021323
0,195480939076399
0,197000505555878
0,193759521441433
0,193519470879086
0,195165123725794
0,196041802023078
0,195825787493542
0,19691825990453
0,198476057910645
0,198992059245085
0,198186250380749
0,198657006854227
0,197937320977134
0,200389226833752
0,20007215706647
0,201962226303619
0,202026130966387
0,203317717255627
0,205630322842643
0,206899723023238
0,209372457571957
0,207958621806226
0,207550117445146
0,208136853642235
0,209153541097291
0,205891976717937
0,2057830878176
0,205986186071715
0,207946572844146
0,20495628345442
0,206451810964176
0,205323780339412
0,204166317868016
0,204661206560747
0,20439634938957
0,205101906702611
0,204697300649431
0,203221080897781
0,207092689484529
0,208328604509357
0,20927255190989
0,208489891671258
0,21121743595532
0,212348305332666
0,212981496717969
0,213379433509701
0,214767133120381
0,213847828636594
0,217267501106817
0,21724623129265
0,217087392769089
0,218018986014662
0,218773393423552
0,22007605279262
0,222485465271405
0,223606632618831
0,224458638733819
0,224077337530556
0,225781773057726
0,227335641819038
0,227181989649627
0,233986969028842
0,233935089614701
0,234062103827488
0,233724711852188
0,237090200480321
0,240285426299264
0,239092459328319
0,240906806832023
0,241000780851841
0,242965227008166
0,241240752249041
0,241871272652933
0,24204807583222
0,239239080299845
0,239523835425852
0,238414545005832
0,236558172239422
0,236455758286772
0,234774316990254
0,232503913694175
0,23081494718597
0,231620596904215
0,230796073932308
0,227603181582598
0,230660796806557
0,229485251882942
0,231899684619297
0,230628505782208
0,226923928462534
0,228459613526044
0,231197811129607
0,230431377474535
0,230926215151192
0,233668203506858
0,233536268947766
0,235234241233197
0,236587648767841
0,234969087551365
0,236282145961588
0,236810391713823
0,235796518194671
0,236786875287624
0,238823081644721
0,239904071604267
0,240451907019596
0,242143730716784
0,24156171371827
0,242184659270554
0,239604761069889
0,241244118499805
0,238827687301901
0,238187669031706
0,241331696729785
0,239759909429441
0,239593684550707
0,24102261638325
0,241405599245038
0,239504797080931
0,237448086114117
0,237031873507072
0,235322595754245
0,2348786431034
0,237171367599796
0,236134508642328
0,233319510344283
0,234968060595214
0,234646151408426
0,232402087942534
0,231401384507962
0,231449277862334
0,231092093079354
0,226154940690392
0,225104698546574
0,223627152877253
0,222015403801929
0,220408669860186
0,218030123577117
0,218566696866831
0,215524403271052
0,219591509870221
0,215471364282764
0,217248210909171
0,217558520766975
0,213346636791375
0,213884989407805
0,213055845739012
0,212526976519607
0,216396051504078
0,219213449416592
0,218414255598037
0,221040735472898
0,220901819988649
0,21905070030737
0,220189421372886
0,219217544815348
0,218603511930597
0,220743117883377
0,222571581558328
0,222288236635831
0,221316683769664
0,221040475387849
0,222151011372947
0,220208403244206
0,223002944270197
0,225148626256532
0,222210086455077
0,221385682128929
0,219755692831415
0,220839955997551
0,220690142293115
0,223457863885613
0,221806343397692
0,223453513470712
0,22476656416148
0,221362477406071
0,222666921113538
0,227305879690515
0,223964948546597
0,223103742063777
0,223603976871183
0,223569491445924
0,221205155335073
0,225941504072889
0,226317850998081
0,222484829250396
0,22796691718156
0,229273472096815
0,227347500325447
0,231555532919312
0,229883600433913
0,228912398884566
0,229262055949309
0,232424369801616
0,234592833732964
0,2356877721834
0,237808569203748
0,236876526588789
0,240004726769724
0,240532381311001
0,24228009570969
0,242230769004264
0,238986253325415
0,241156781987566
0,245156883802421
0,249365818215341
0,246744151127795
0,245565552565056
0,249995371771059
0,252745657367569
0,250198092787482
0,253550668295159
0,253112282941332
0,25506292157129
0,256137127426629
0,260578498657669
0,258663945892583
0,259462618747703
0,261794297103272
0,262459116007525
0,263915968130532
0,263625584405083
0,264508512618489
0,267458908750921
0,267983577840692
0,267791499046909
0,269772823370023
0,271953500771906
0,276697837062737
0,278555677937712
0,280280548728152
0,280493526001998
0,2821404301475
0,283413211384206
0,286821413852703
0,289640474219071
0,28559543264874
0,290135901101805
0,292922944845532
0,293349973975232
0,291661919843751
0,298315558342867
0,301742730127571
0,29973711301653
0,30246485933834
0,309431316753181
0,306061176695942
0,310029880848866
0,308952726651737
0,310183794950695
0,321191599260153
0,320122003038955
0,32038026508295
0,321754743934603
0,323568694880265
0,325805187862059
0,324576164262952
0,331837809805312
0,333437624707474
0,3347463286616
0,338580971143971
0,342125273482481
0,34386816727392
0,343346131583657
0,348000080481357
0,351834105348341
0,347478178777539
0,354734172587608
0,3567734267759
0,361375169583015
0,355925803589635
0,358030446842349
0,364937994661772
0,36366158886928
0,369187205433686
0,376469426730153
0,377842927827408
0,372733600067588
0,378511944440759
0,389230896684456
0,388771154605214
0,386643103217193
0,387977153359441
0,39492347981106
0,397446874128073
0,399071642605167
0,399975653538318
0,402934266775396
0,410915157819344
0,412876146962511
0,409378495167231
0,413313523862928
0,420662324566726
0,426589201682379
0,434768731978363
0,428643946353309
0,427865377506997
0,433564343625585
0,42934767067819
0,43576417002968
0,439339529694911
0,449447150925668
0,444936510650134
0,448535172395403
0,45198215289166
0,449497404878882
0,459099296672728
0,463261558869684
0,462496939788938
0,467825005451384
0,469855632911168
0,47696692315079
0,475748489831249
0,480250919405502
0,481415490716918
0,48415713877798
0,493224518296675
0,499041550058841
0,488718434239374
0,503339230207651
0,510315861124302
0,506373181735774
0,510718290618631
0,515147785206715
0,513802233107318
0,516674137723077
0,52201695990978
0,52644690758291
0,525503026672798
0,527246767240914
0,538457497451699
0,540829256784827
0,543000042703877
0,547604442213952
0,532209498446891
0,552240243571474
0,561967179226241
0,557970830233094
0,567259843039157
0,577071951993458
0,561642039570975
0,573339131132246
0,594408261602227
0,578115302603257
0,564542388304485
0,586193683482372
0,580641021768358
0,58513099204563
0,596248449616645
0,573097835278083
0,605189201838355
0,604947705684695
0,601016292766674
0,615631875601965
0,615172247832999
0,612363946807057
0,624899718878166
0,613531751956287
0,614201384330109
0,641642129167413
0,645242042672148
0,644494319858515
0,644809551495974
0,642232134444228
0,648151487374681
0,659457909279211
0,644154003053775
0,65281986470888
0,669474890684013
0,651398122592608
0,657794489894058
0,693191779861963
0,699769487903735
0,676456416088677
0,685508524892966
0,685555339342036
0,683528419304806
0,692941506094351
0,680291786103539
0,707467087224776
0,721694354387902
0,745375336279155
0,753437185586983
0,726400492500924
0,699692385343551
0,718955545541393
0,71281673869778
0,724858195764424
0,725691748201353
0,723727823175612
0,733882864480788
0,759567081228118
0,776001311259256
0,742106548504366
0,754463875041636
0,74194514789584
0,764437117913796
0,751678692934473
0,74288693532075
0,767367255552608
0,761402479381302
0,811492711522385
0,82127356277566
0,793324061289614
0,767610405117877
0,800201787360478
0,808460425836041
0,768141165410904
0,7759768042845
0,79156280529539
0,83910994246936
0,855187071931253
0,847447407190288
0,813065567451518
0,834277931804506
0,901245548461066
0,825663209614812
0,809400394354227
0,806314013748167
0,846029979891304
0,872864979750993
0,811428089143112
0,875836574254657
0,87809285268027
0,888130109246172
0,879269278308373
0,876941611638641
0,912311322376883
0,844823221438257
0,873030788647839
0,946249186190269
0,956709535805677
0,851579422817881
0,863721725170554
0,949679655801848
0,922927399422615
0,901866899940975
0,909092514907413
0,898838525492071
0,865056431926331
0,894171539452679
0,934867956380126
0,923731465445189
0,87629662613126
0,856267602841499
0,867087908485309
0,993287249938847
0,951969111746776
0,909921066893438
0,945063057092144
0,969678787292596
0,927448169014978
0,949430589640747
1,00840436977178
0,990858135128389
0,927636494102276
0,905769291868525
0,907338592655873
0,912295796604652
0,983659169109797
1,03137156975501
1,02776977088998
1,10490430562755
0,986650411735991
0,951184712952654
1,19817236901511
1,18209828835911
1,01716131717106
0,977897744260683
0,915742423518701
1,21509325359045
1,06200179025352
0,929092068932415
1,12277258725593
1,08681128988747
1,1080953893532
1,22353248141899
0,926801117484275
0,985663163552444
1,15517824286275
0,962453291251603
0,881858065714503
1,15128328219493
0,997361517937577
0,913752008047215
1,26609594870574
1,397173490938
1,25678088648724
5
1,11565805489687
1,03663348535247
1,23244837291709
0,875643376773052
1,16532975157814
1,41093734399973
0,857007967924402
0,861938488352345
0,925476160975534
1,09352221089728
0,778188519549865
0,942276688347016
1,60167967090299
0,89911064874124
0,918422295964977
2,20977432406532
5
2,56071623273373
1,14949036533328
0,969990315311488
1,23719564739784
1,35406098013452
4,05416817216758
5
0,983492717602488
0,853117296528074
0,881708780902772
0,966064144541961
0,958543845879035
5
1,39881690655969
0,855728487130141
1,48807329870096
5
5
2,52336439501195
0,820626881626887
1,10141473467087
