3596
4000,36533379555
650,420452594757
1
2
2
0,0108901764310183
0,0228906243839994
0,0149039765376479
0,0128517205356046
0,00855694579243667
0,0188675011236186
0,0142504253484318
0,010122597520833
0,00777367795969317
0,0152026862008617
0,0151357265896891
0,01557224103141
0,00281347236461936
0,00875282767127298
0,011462938178119
0,0095679331672287
0,00430177384459624
0,0150715571668599
0,00821681210108315
0,0117951410746723
0,009064012293272
0,014446946041249
0,0134317595184876
0,0192398927531964
0,0169348301968666
0,00804467182769904
0,00703817613096874
0,0180317606206576
0,00785961187513622
0,00956024433287755
0,00285152828691165
0,0109502673146784
0,0170650166737979
0,0132522105575526
0,0140571333439412
0,0187042259244691
0,00422501744352024
0,00596390099320488
0,00538374343066153
0,0228201472834565
0,00951730810793234
0,0141198575324308
0,00979674721910946
0,0126541304084211
0,0165860382869095
0,00588206747230919
0,00856464462976692
0,0118779860712664
0,00919427039780694
0,0115516455932717
0,0134003352961769
0,014254844351608
0,0150266726702018
0,0198981086001069
0,0128534022547035
0,0179520423189081
0,00495899863014566
0,012277621818572
0,0166413835266872
0,0165678838905547
0,00700905019430317
0,018208336167692
0,0237057113258296
0,0170553339693796
0,0077455629427297
0,0106532091580661
0,00500780005801266
0,0177150132428633
0,0134385226659152
0,0223233558673992
0,0181018547074744
0,0217996493825557
0,00673396642460827
0,00831487024291345
0,0061053509389108
0,0104437171830422
0,00550096457376847
0,0102158801514101
0,0123582929227126
0,0200472886620353
0,0131846551996616
0,0191609149369007
0,00937480983906444
0,016633589347261
0,00861046107889262
0,0191041478007159
0,00357900048770235
0,00801166374742644
0,00512642947437496
0,0167625127379895
0,0178597225112831
0,0146636430349496
0,00538596594005051
0,0118607804233628
0,0115188778213151
0,0176996298523425
0,0122867058018667
0,017416125891869
0,0137459946848876
0,0162947611942799
0,00878095801157283
0,00891784570365051
0,00994525076535814
0,00590890970803177
0,0295205355183153
0,00668058707976258
0,00994476585127749
0,0142655357738657
-0,000486861488789342
0,0192136685359816
0,00295644454752769
0,0107877100459414
0,0122321611332131
0,0228970238874115
0,00860871081042231
0,0220313992542815
0,0115495009371438
0,00731856506037336
0,00274569809859286
0,0207928078058278
0,0114670546352867
0,0091620207530758
0,0244441635640346
0,0125343713358176
0,00549602196167163
0,0149026412327188
0,00687529357032603
0,00803301469887555
0,00850237212764743
0,00674151245629987
0,0166503867214997
0,0130290837472077
0,00992815758253807
0,00998766030754494
0,0188966603611169
0,0132513797456437
0,0170023375293206
0,0184853586093668
0,00498478134014682
0,0206950307637674
0,00952418163016716
0,00796373827701292
0,00865824746153202
0,00911793271253724
0,018034845237775
0,0212671770581081
0,0133433712693091
0,0090904956468707
0,0054710876906352
0,0144123451092441
0,0161080370276023
0,00836350886045064
0,00799774320143189
0,01367015861889
0,00497497566412887
0,0171199767797712
0,0144386282773904
0,0102740461997713
0,0236320418230696
0,00887748571541447
0,0246666153238209
0,0158738642217115
0,0148969040760165
0,0159297613307493
0,0129584386038863
0,0118299643912842
0,0139354190140095
0,0228344896607477
0,0172866629633325
0,0170974508910237
0,00575857782244245
0,0146609327786064
0,000172194050075206
0,00623539144168684
0,0144589937740446
0,0130174282908453
0,0177997994268881
0,0132785740359226
0,00604165391151723
0,00487087737119969
0,0170340468582348
0,00948816454451103
0,0154344238158775
0,0131145368250792
0,0160991427955793
0,0226640335453896
0,0150633916740238
0,0154486966350813
0,0181560531556976
0,0105245027857594
0,0165948623188755
0,00654680077843962
0,0144166396765318
0,0109016807783931
0,0189446795210593
0,0120638600098357
0,0207150528263875
0,0213039305714247
0,0136802397286372
0,0200152229699319
0,0182334013990571
0,0125533385524679
0,00933110231091445
0,0130592803736146
0,0201074840299531
0,0192241576573529
0,0165297729154967
0,00608864005222465
0,0206411799413893
0,0137134032673957
0,0106291314092813
0,0134893297047506
0,0188267103786621
0,0211587509634447
0,0141049947180038
0,0193643685748288
0,009154039865588
0,0178926220364264
0,0143882306336573
0,0197585943994386
0,0106909076328361
0,0186536177137462
0,0190746750182177
0,0159103724671067
0,0190975419267915
0,0258735651557319
0,0220618440356061
0,0187388126008973
0,0189486671779803
0,0164654080498065
0,0186583546691895
0,0238343760274212
0,0214663756691135
0,0216884758708424
0,0159489711077641
0,0190977863621841
0,0217402750667152
0,0199296664381912
0,0246482820635739
0,0173680796822168
0,01867802681691
0,0199653376052417
0,0228487520187426
0,0159007125970719
0,0217498401263522
0,0159095699673024
0,020369706136283
0,0196244014247839
0,0225320679320151
0,0211332419953354
0,0215190740022789
0,0271529589174051
0,0221709570066652
0,0218672481209678
0,0164372661902066
0,0275499782977386
0,0281518985665046
0,0219244224780092
0,0185301731860226
0,0243548066173994
0,021918056438419
0,028331345351231
0,0223237137102597
0,0326554430136774
0,0159345439176196
0,0242560625038599
0,0217282258642232
0,0158388859982721
0,0261763411482306
0,028345328332284
0,0204023776549142
0,033248124367276
0,0173277788762566
0,0479018356663328
0,0234389792283822
0,0243596935785226
0,0217055974159336
0,0245403861198503
0,0228943012685409
0,0315984738498952
0,0260730263444924
0,023183439212001
0,0291955837704019
0,0175196817464462
0,0380728755440834
0,0229203703890452
0,0270216584061096
0,0369376321161618
0,0286018975974458
0,0318947656250884
0,0309252029155097
0,0345105918981205
0,030623655118206
0,0339878400196189
0,0251610235194845
0,0380438966813391
0,0287279660048013
0,0385708214977527
0,0308089767268084
0,0383901187584597
0,0369004932221684
0,0383304466666647
0,0333679175182999
0,045851514981844
0,0380510733467957
0,0397290335463116
0,0385566672095871
0,0356509323659103
0,0360210364300743
0,0411046419770667
0,0441624694483766
0,056529151377601
0,0432594615514772
0,0513143771071924
0,0401774677847467
0,0432936777074511
0,0468600705965978
0,0552184064503467
0,0442142669194637
0,060659790292447
0,0630600847894707
0,0545392220269642
0,0540209426531682
0,060146449336115
0,0541187592066942
0,0568382593798578
0,059328920932982
0,0709864726344469
0,0714492612168923
0,0670913279326297
0,0627120918381543
0,0762408285951428
0,0700681637440646
0,0710031413400357
0,0798991317990677
0,0750479825206909
0,0841066048076004
0,0838346425193505
0,0821024327707913
0,0830395458188569
0,086030784305072
0,087662727075684
0,0925840461545518
0,103613058960111
0,103035550218406
0,10626186307949
0,11725511449793
0,119184293589113
0,10836375230013
0,113621075021457
0,117611875658807
0,121943193257111
0,120903385745304
0,133714564371828
0,12335669799384
0,138093550154041
0,129950888207735
0,141090842920598
0,141446362798643
0,146208395144793
0,148804359411817
0,153767538484531
0,153052410800855
0,160726255110625
0,16868816487598
0,169584817501887
0,174272991250332
0,186668161069996
0,192433214790493
0,180723241229779
0,183540806507656
0,189860735454879
0,198437877046384
0,209720809977985
0,198361164433095
0,205792832711936
0,212895442709791
0,206404398904258
0,216391858326934
0,211705073517279
0,21930757751876
0,221690629237237
0,230368413588916
0,233867560730237
0,237589743671707
0,233416597606917
0,245877176783158
0,244873638319097
0,253076121169337
0,252645432275491
0,249283662152636
0,256496432295898
0,259072430413302
0,263911045683157
0,269631428747351
0,275728931848478
0,284063036043287
0,285543544733747
0,272444717807385
0,282153143569072
0,264131085879778
0,287418004886861
0,289682045933137
0,280978042194126
0,292284830976754
0,30380819263001
0,293469167781521
0,307360695175927
0,302354825557644
0,314964445361149
0,31797323329058
0,319495240289762
0,328271885408283
0,322382122687604
0,321297629669269
0,33276943525566
0,323945829117531
0,336327378812282
0,337853149189335
0,336841143158985
0,321776350892598
0,343598100885359
0,338536067832185
0,345980677009501
0,366643718598465
0,363862515015225
0,367585637810798
0,35767226399732
0,35487020973575
0,365351860414744
0,367806031594078
0,357044521776068
0,372839148335436
0,379176795908074
0,386130153103088
0,392999220491397
0,377683772638318
0,384303490691219
0,397414864275813
0,390689082068406
0,399742540925098
0,418283393904521
0,393398121674107
0,398684010504746
0,409162979728273
0,404024761136526
0,408550463061627
0,418892659201084
0,423008929983748
0,436126395544065
0,422841312311096
0,417542363168408
0,432519256589605
0,419708957371519
0,431795641080072
0,444382485629929
0,447565963551701
0,45757831972329
0,459808551449741
0,442964523894969
0,449906727406383
0,478235439460264
0,484262323986496
0,486969922529641
0,473690960347096
0,469645618699144
0,467594138939101
0,461186743790386
0,477745184897091
0,483745095904441
0,479475534333934
0,490995296204201
0,497242767745724
0,478038356728131
0,501248162747931
0,513599191255976
0,50305722550295
0,502130858520279
0,513316485980785
0,50928014503777
0,522163209814558
0,523423893883555
0,53460804038344
0,514964096114211
0,527404176990854
0,540231627135991
0,533995940283529
0,520321435736775
0,537900639172331
0,539488940428063
0,545871771783115
0,563620958409054
0,572811335510745
0,571673028198938
0,574157479288944
0,578439342215766
0,565021409722707
0,586140925151459
0,623317618410736
0,590843410326689
0,570988074541486
0,613936527951341
0,611641179224696
0,601321163038696
0,601396397718756
0,563177479364139
0,594040863218625
0,594794599155821
0,62314733525023
0,608660554259553
0,617188404979946
0,624437219331456
0,634858604704592
0,643728154592584
0,618563197573024
0,632301324099881
0,638465813277275
0,630229629079504
0,657722343744272
0,642552258707843
0,654508154868289
0,650313366942614
0,667191901796799
0,659709722835819
0,688086593921354
0,671914272793204
0,675704686872054
0,665453677664523
0,669101387843361
0,662797219885785
0,686723365655697
0,676839750362713
0,686352528613183
0,707129908259706
0,750013515735132
0,739262396621027
0,713427124477034
0,71594392997938
0,736077162799785
0,710803873028239
0,72180891452278
0,710619248258527
0,711390972210935
0,724399954659129
0,762685820981972
0,729072849141996
0,740219501925617
0,748208584231363
0,764542410365617
0,748254648515454
0,780089026740505
0,746116489429271
0,774228120602169
0,764561923387871
0,791616528122557
0,783748029282688
0,799706292238852
0,749417102551141
0,778539875989314
0,802331612246911
0,847502560317912
0,78882072333545
0,827939863331128
0,806843176340259
0,817835275407201
0,787193658013245
0,794355718980849
0,83992250417503
0,799141819647499
0,755714730851286
0,863387712229389
0,814462598006813
0,87263236264818
0,812687903984817
0,827275940910864
0,808913570768154
0,847362879064235
0,861127732602982
0,92840423613739
0,857614772764938
0,872610070265747
0,873998863553892
0,870085368231765
0,867223240796734
0,923487952495837
0,910715135677906
0,891939790175812
0,891253452511399
0,94282738550126
0,897387441666219
0,932778966321918
0,926202270878401
0,910998165333942
0,873730632692686
0,898557904641385
0,876247131164579
0,902315587578383
0,918643853275646
0,916333391850947
0,925104878372192
0,902185018381164
0,966877311090092
0,947923356564608
0,923181237304011
1,02945132173793
0,96217378789821
0,962435454375331
0,981147762644691
0,9883166938746
0,949320635979597
0,977984892531457
0,933247282484541
0,960941078659183
1,04438722329505
1,10183672385638
0,98930933568136
0,978195980326098
0,992346058399028
1,04695944281466
1,02960394585628
1,03464583310696
0,965857908932158
1,02504914414534
1,02098916508903
1,07133792296772
1,00098813391488
0,983117958979966
0,996583161176615
0,985967765072423
1,0335207351137
1,08480379503678
0,998680932978149
1,02602033640938
1,01508918189308
1,04437605770418
1,10519303083925
1,1119182883402
1,01733605758557
1,08683577946318
1,03356797428712
1,10713714768428
1,05143103138113
1,06643542894057
1,06152818114614
1,17237846273742
1,08786997118507
1,13340315793793
1,08449365335356
1,07244262652203
1,06949333033061
1,13416065564006
1,07578149641468
1,12184422385334
1,03996836494787
1,13339421438708
1,16465109317136
1,1214784175596
1,133573246116
1,12611795030641
1,13442254966057
1,21998809420455
1,15760833143214
1,23968326600302
1,06614872409596
1,12558332565725
1,02682512407458
1,09503168617461
1,20876358827169
1,192149693107
1,12879970658402
1,2101835395707
1,10114710456584
1,1352195109747
1,08832102638688
1,24085303239735
1,12089004855083
1,14884536121385
1,14938995260356
1,18245334603037
1,11181906752251
1,19284267899129
1,14936213634652
1,18171978533284
1,07676502814649
1,14205338799126
1,18083188835182
1,11512076357887
1,14513821607681
1,22051165958034
1,17836220111002
1,16682574063131
1,06007901371101
1,16516723974283
1,13112974537563
1,21812044172821
1,14794374038937
1,20125831626445
1,15731843100773
1,27753907778371
1,11917063798602
1,20711747732782
1,24287986892148
1,15804060082088
1,17696267884733
1,17457166149304
1,15668078179235
1,22804501732566
1,12975438825984
1,13129431793357
1,12134208990908
1,22588501188374
1,15039268043306
1,17339956581984
1,12103123681906
1,19309102715477
1,1708473825981
1,24268397518905
1,14669211115031
1,16045712450224
1,18115882871038
1,11441427599442
1,10849578127398
1,12316168994317
1,18738044930445
1,17920974624791
1,14028024102106
1,15518992172031
1,17786960538803
1,23344754018189
1,17679646630124
1,20243466342992
1,16517796507462
1,20587045625575
1,15821000390429
1,19128585090558
1,18139650174374
1,24195760654171
1,12754426574062
1,17555411957343
1,15044833553977
1,14980104737798
1,18311414375014
1,16219387647977
1,14425693307694
1,16570515064991
1,20380322769329
1,16677208839536
1,11608436302573
1,12675867185519
1,13679248192714
1,19821323770681
1,18968866686814
1,19253178250567
1,14201815822968
1,23346580769033
1,05130749288199
1,16615232885846
1,19552657546247
1,17017475276574
1,17368772511764
1,25333072718141
1,20632157463524
1,2130745123888
1,20695665253562
1,22433001558332
1,15707488280549
1,18431931535592
1,14628682400252
1,17316345353185
1,11064290471806
1,12525274138378
1,19624283962182
1,19000019288367
1,1212188540838
1,24072422902995
1,11117356516289
1,19111233444708
1,15533513302025
1,22497405946275
1,08104381997002
1,23425204686868
1,21131140598916
1,2507915109904
1,11580295679359
1,21032750876369
1,15984267779217
1,16049915091313
1,10643619217117
1,18194304695512
1,18784910631427
1,22939134701479
1,14049185329861
1,24441394592697
1,12941669575113
1,17785800182434
1,14862285229059
1,15006013359871
1,15962504455317
1,21020220653088
1,12736307162145
1,20122059402707
1,14838627949021
1,0894226694837
1,16761347202528
1,24707433984076
1,15908744435902
1,21571645843052
1,14317262029498
1,12986401992407
1,12522845249964
1,17834952215529
1,11940573725288
1,15122875143556
1,17768149047151
1,17976112347311
1,16617018458793
1,14268190331796
1,16257584886182
1,13394175185104
1,0949287272272
1,15315351795299
1,12922170634798
1,1049093638954
1,12080081129934
1,19402686994701
1,14828944087766
1,1692381347501
1,1224944676271
1,21973098757588
1,12628781910303
1,09237501605772
1,12994793084676
1,22445428152439
1,1142094463448
1,13902079923364
1,12222541665454
1,16877535360275
1,10052105176507
1,13640743695297
1,07630817749885
1,14396475708213
1,10405764446599
1,09846333258302
1,06099859677564
1,11823212909377
1,12727198119869
1,13883780994074
1,10332904947847
1,12273519206972
1,06976657644557
1,09404018378021
1,12268268168547
1,09773529920802
1,02549757212141
1,06472384311288
1,05153927418736
1,11692546326402
1,04922251836531
1,08872463284356
1,02297870181849
1,04304585059904
1,0270149391789
1,06689438759326
1,03509391397946
1,09578238906106
1,02124239259893
1,05492209291381
1,01997077265879
1,04813129863884
1,01461893097841
1,03252308836373
1,02574222855783
1,0645306305676
0,996738812898153
1,01039297567283
0,993386570824971
1,02840879118604
0,967705314405308
0,980656026151699
0,966709833261114
0,96421906627182
0,966188596203383
1,00248845171861
0,946417119926584
0,968070234810358
0,957261957930033
0,970319614157811
0,935445613598096
0,939904645898144
0,932614748105846
0,955952639083173
0,905125727430361
0,920564769328236
0,912299271939516
0,937897246306561
0,928507167172938
0,949072251612481
0,907421354885508
0,900163326185146
0,862009433990562
0,900380716210946
0,86577691480537
0,900990097611659
0,848779319757717
0,873368218390683
0,861794105836214
0,882179072899682
0,826443830357933
0,851746515686944
0,834807717248937
0,840781526714488
0,83534171769855
0,830564372858884
0,815414042376912
0,835239269129475
0,80228279712357
0,857886958905944
0,797185385285997
0,82651632883601
0,802180363058182
0,798379142056447
0,776678285060639
0,793615986131586
0,780286462827351
0,792000755949048
0,773215276565103
0,768319242452956
0,757399379256366
0,768679436164928
0,753025863179717
0,744121586986823
0,735082470299556
0,764804062326783
0,730426155648521
0,746072662597388
0,714773905749702
0,739100894483988
0,70855519209969
0,712287755821924
0,699931076202021
0,70439611265963
0,685313812904931
0,69743872362928
0,67669568477474
0,685029342245727
0,668876664915082
0,686737093513697
0,656819598399012
0,699561091133586
0,664370971340712
0,660307598756498
0,63772938644209
0,661964970411685
0,646176373058739
0,645249671800514
0,631707863710372
0,644763551433328
0,621266409285064
0,626238829339722
0,606758334458295
0,636469191895412
0,614206324170867
0,612056156156939
0,604644721348116
0,607075403918243
0,591947880830345
0,614274699907616
0,578863260180124
0,598815275203226
0,567062864136972
0,577200392460121
0,56513763269776
0,567286528165014
0,55968093973492
0,572223636044484
0,555810871294643
0,562005998358745
0,547802123105234
0,545751940743833
0,541063904202779
0,538879978176107
0,524149395623682
0,54077857706097
0,529746518078321
0,531233058203496
0,522299348939046
0,514564718713045
0,502500671573472
0,521733454970885
0,500035434406611
0,519014702679366
0,496455631455039
0,497232039637529
0,506348181601688
0,493246925117236
0,482800690221055
0,477515392834016
0,473220581846848
0,481572867584943
0,475583150600351
0,475462820818067
0,470707335866434
0,46287413282842
0,449174294882066
0,461834464142888
0,451920191480837
0,447409675702089
0,448090175233066
0,445199819193838
0,44254088336287
0,459372684819141
0,432223907277821
0,432063880301732
0,419211178149527
0,433492707759493
0,415867907593199
0,422314018978459
0,424774314421368
0,410036496147082
0,416361382312543
0,413544912867803
0,40550821713384
0,410316070485897
0,390953555029317
0,398696672198759
0,392316874361813
0,395112297068683
0,382742848720489
0,391101145241868
0,377296898116452
0,38824258636916
0,373090123264527
0,376027230175966
0,37324932983675
0,36827820476425
0,366098320627393
0,374062057566059
0,364701185822512
0,367162210807455
0,350178115898108
0,35900928392168
0,348212324337947
0,343571839135656
0,351899112361792
0,348703018946261
0,336905855442837
0,343250955600551
0,34148114838786
0,33615557531064
0,332072699704815
0,329383315364424
0,323550195439841
0,329367038530519
0,3214211693414
0,321156293824548
0,32040259180525
0,316617290445846
0,314484188075651
0,313840099382175
0,309931722135445
0,304938628490894
0,311726738126386
0,306066212265785
0,30163409121453
0,299453881478975
0,296983092907888
0,289876480268681
0,291598229102061
0,290036690446296
0,289219801839915
0,289915803430354
0,278817278985556
0,279286866959618
0,28354542857886
0,278508013606543
0,273206380930543
0,278730348323402
0,275457959659885
0,267817434413792
0,265709902857024
0,265099622029409
0,2662620714672
0,268566346201806
0,26203372730494
0,261017307217819
0,260802024680841
0,259514877495433
0,258067072420675
0,255837755392096
0,255851590628768
0,253167334308143
0,239847650810782
0,243821605580463
0,248671246938402
0,244353565594714
0,242482012515617
0,239169920444885
0,241243792360435
0,236042641662409
0,229158421923403
0,233207622466662
0,231558949341449
0,23352964073679
0,225098369199756
0,229266006667565
0,223982076746367
0,224117993550612
0,218676648919402
0,220472684813119
0,211791556043495
0,214860885564365
0,211771091320171
0,207753875601402
0,210508635277302
0,215020837066295
0,205736999311185
0,213467529366291
0,213258884887542
0,208520220045496
0,199652833185477
0,20516930076585
0,198340021959701
0,201708133735001
0,199475188269536
0,198038523216395
0,190223872518564
0,198208591344714
0,194918495285009
0,192445576386281
0,196005794398148
0,191787920109467
0,192297356671401
0,187885830750076
0,18598501199725
0,184355311286436
0,184313470563841
0,185455064368328
0,184696909339863
0,180189866726101
0,177413867263913
0,179179452510564
0,178115206134265
0,176496714572137
0,172115833258308
0,173680907509003
0,175449297725108
0,177068494270818
0,173235509978047
0,172411110029949
0,169433441665647
0,165887131576146
0,169779958180602
0,170168492379121
0,171771003382665
0,161380350472709
0,163982516002628
0,16063200940956
0,158583478478655
0,163937975169968
0,159763863298019
0,161824540756329
0,156925696607721
0,154736213525729
0,154279266173851
0,151463635878886
0,151469268630794
0,153756608604064
0,153390891557131
0,149746640401277
0,141372686717231
0,152349500370691
0,144969875569818
0,141582705632788
0,142232858345615
0,145692429800643
0,138069561263599
0,14273720336429
0,140527463182748
0,143717777220755
0,134990405553873
0,138145687991382
0,138508614210354
0,143054841706671
0,134196206312024
0,132771762919105
0,134232160827444
0,133517522266637
0,13245434469536
0,133840273430321
0,132470524712489
0,135124936369672
0,131065108810931
0,130410906051669
0,132139436554581
0,127431559203031
0,127221190967303
0,127636835581527
0,122608377403873
0,121819870381421
0,121750079162656
0,126084277874355
0,119055810827941
0,125512965176581
0,118718348967741
0,118841758862736
0,117960852862093
0,11839800233474
0,121078479751481
0,117285997129052
0,119177459867086
0,115498318180721
0,117107909529623
0,114418083202173
0,118391462111778
0,112410223800813
0,112896211004197
0,111839051585044
0,108663688233469
0,109559589868754
0,111311380107873
0,113355954982371
0,106043413826409
0,110425260319964
0,108683885990125
0,109453492711936
0,107067907850145
0,106557974145599
0,103825153151109
0,110617530263313
0,105751504040367
0,11098175922984
0,1028360916695
0,104063310526195
0,105722574723657
0,100947944752358
0,0979899447267378
0,102119409834731
0,100497135646805
0,100072901563823
0,100208304783676
0,100143615254711
0,0969187321007484
0,0980961828127433
0,100671976982484
0,0984774962394868
0,0974677018875347
0,0975989667621601
0,0955071553986128
0,0936348452225733
0,0891585335546669
0,0935828507764182
0,0928457926410945
0,0887508748598733
0,0925810279848886
0,0870456377126963
0,0920132737645374
0,0911034853170785
0,0870381650195049
0,0870482354402512
0,0885399264963014
0,089044662133441
0,0862563351111086
0,0851982618757633
0,0869725565427357
0,0859972990328945
0,0848967872140267
0,0865707613984962
0,0859784868759042
0,0848708377142931
0,0860365997042458
0,0840693084743656
0,0849245563060405
0,0839558930683304
0,0838152564557223
0,0842363602786961
0,0809507386226344
0,0842131314131913
0,081663452378253
0,083219295265719
0,0815398608325637
0,0800611505028652
0,0825337812469233
0,0820811943752661
0,0774720285082379
0,0771908787780431
0,080146866287953
0,0761117195517165
0,0806863769981538
0,0807597926869629
0,0789560203766697
0,0770791081568605
0,0754130115908638
0,0756965501721589
0,077255615321893
0,0775392205497481
0,078838008855798
0,0762546034027542
0,0745331468673861
0,0768611524374402
0,0725514840800777
0,0709385330754783
0,0722903238694324
0,0760591554057306
0,0709158854779196
0,0703036452573724
0,07400315145216
0,0724984733978168
0,0729357254613486
0,0704631740493855
0,0726957968389724
0,0689602503027788
0,0714816697145387
0,0717773253998004
0,071265526359929
0,0698428284391137
0,0695375170719448
0,0656029804076346
0,065786263726958
0,0702192005947078
0,0663329440825481
0,0715744190146856
0,0657836376564457
0,0693112760168603
0,0667571494401464
0,0678515445226334
0,069344873262197
0,0690216752912638
0,0674907211843829
0,0655458140985766
0,0668609192252766
0,0714984050732511
0,0625205707521679
0,0636870608594242
0,0617785913528937
0,0641904252031818
0,067954081204661
0,0670588531935364
0,0638718857792339
0,0662914633389753
0,064669130734574
0,0601368339293001
0,0615662257086586
0,0643606853509278
0,0624585109696417
0,0619088127641222
0,062225105647091
0,0631672682071842
0,0616147363308615
0,0624564911289503
0,0603552010216493
0,0634147593521417
0,0656788824457387
0,0639058088951493
0,0579037483173443
0,064331485691371
0,0624443928840281
0,0622369187361555
0,0599775386361828
0,062792234943227
0,0619201907669886
0,057698613342843
0,0631998974862161
0,063169094870434
0,0565007905493984
0,0596934730395998
0,0607114165237175
0,0612941524680929
0,05915457416107
0,0580515624877078
0,0540542168194132
0,058435479776872
0,0595072315511783
0,0590205188362486
0,0607245860352016
0,0605668410560436
0,0572804523059614
0,0598552899391458
0,0564074059223181
0,0588692558755633
0,0601897332702123
0,0587331979539852
0,0584559552472256
0,0597727707766228
0,0595634564909524
0,0564802058460314
0,0566689681146542
0,0578315223621567
0,0528289171721153
0,0543332088757615
0,057518503713159
0,057279864834221
0,0564114655447085
0,0551891258905779
0,0550585876285139
0,0605479294740502
0,0548252930781832
0,0537113555841833
0,056681370999466
0,0579007609075775
0,0562571287883239
0,0561656567292712
0,054579911619803
0,0533181804559944
0,0533340655296285
0,0553145012241304
0,0528781904640819
0,0505287919107563
0,0553317147648732
0,0525486005559704
0,0542186485754444
0,0552844010100799
0,0552707394841545
0,0534267618771167
0,0541011320440084
0,0547521158458948
0,0540833628417743
0,0511915508406282
0,0503091188724532
0,0501220051661085
0,0544363027944619
0,0537992459058002
0,0519106044593145
0,052865302852973
0,0525986008830159
0,0541313588754471
0,055957652275844
0,0568805672913256
0,0532796920779782
0,0514306245550847
0,0510370131445709
0,0499770573235629
0,0508215866307919
0,0516564530765834
0,0491462199749043
0,0533287250687963
0,0533570034505886
0,0516706726065168
0,0521770874911841
0,0522989833498041
0,0491356598599774
0,0512120881217391
0,0529912154538033
0,0522608591046659
0,0521091479924877
0,0516415825162045
0,0525768621179062
0,0505626949750865
0,0517605796629165
0,0499703288078733
0,0520450444849938
0,0539918368734298
0,0488842112838494
0,0490565127602714
0,0507550281046633
0,0523918406352107
0,053072505357856
0,0524549619314779
0,0502349864489102
0,0493899085000301
0,0482843071087939
0,0509061774317284
0,0534574109190793
0,053293109891924
0,0481387220181382
0,0503500988046231
0,0513313902172233
0,0482461790077879
0,0470507915988484
0,0527532257411194
0,0514512803655452
0,051630741153804
0,0493649748738776
0,0506474711503259
0,0490973494616933
0,0499532659953901
0,0475399849719103
0,0488417897195305
0,049601444441859
0,0507646023234446
0,0507275940123728
0,0487774206516842
0,0457484994860895
0,0499271050211094
0,0517562364363035
0,0491220443176068
0,0493359956748004
0,0499515430272518
0,0500077833785751
0,049131580234184
0,0506892058409369
0,050584676524751
0,050360761228662
0,0515645887427179
0,0473222402265113
0,051942066857771
0,05118981758333
0,0523117729763359
0,0489286654087114
0,0494013263047009
0,0497343349619974
0,0500487290498823
0,0493510806891385
0,0526858187883717
0,0484514188490479
0,0492075786383392
0,0484788723079222
0,0483550938142164
0,0478799359331614
0,0488764550488707
0,0488879028951254
0,0523482981909981
0,0490556045501068
0,0472506453015572
0,0492276770553441
0,0500621832518056
0,0501311208658307
0,0501968635993206
0,0491462716146165
0,0494657404631732
0,0481709508350061
0,0512408189805
0,0499785705098437
0,0508791699782458
0,0489778747741547
0,0491774549210859
0,0485986082043892
0,051889019610008
0,0510013743156635
0,0479640973699839
0,047174446361294
0,0503786366195371
0,0493250378336186
0,0480142820524148
0,0468264195493838
0,0517231771594179
0,0477826054631129
0,0497038070818001
0,0500173347860128
0,0506524964824503
0,0507170646216994
0,0496667174538392
0,0487872055306189
0,0512565532282473
0,0495516942360435
0,0525058229556996
0,0542937646501991
0,0512034778954421
0,0504096306290577
0,0485394866890256
0,0462430188907781
0,0513102199461263
0,0521865878237004
0,054955060362114
0,0512731100520287
0,0526588404749133
0,0521243776562169
0,0502888236822281
0,0510386901390172
0,0477503573340759
0,0501605715167194
0,0515393308273934
0,0497038269248034
0,0515025067948788
0,050600032251382
0,0523136638079856
0,0529822666279954
0,0518619102974778
0,0533231098435701
0,0514941254982703
0,0512937926176086
0,0505628282205128
0,0506382225693361
0,051512805586022
0,0469810543798814
0,0527501997941095
0,0518036962793266
0,0502646743523898
0,0518725539227465
0,0519577358749263
0,0510521716076276
0,0519430174626163
0,0510897986443112
0,0525149425009783
0,0510957248497178
0,0531561719219172
0,0511645940759416
0,0526778814102019
0,0504880235991211
0,0499242564525063
0,0506213961089451
0,0509621098140702
0,0489892254754741
0,0543479884245997
0,0518097164803442
0,0530944137361272
0,0518371202400234
0,0519898428789235
0,0531783896138818
0,0531326490775322
0,0513643197256147
0,053534636336997
0,0567520222602207
0,055056236198251
0,0546628921718507
0,0572081680815019
0,0547523494759922
0,0515898566037356
0,051527377704693
0,0533152341745185
0,0537038359995679
0,0526398563985439
0,0491585063476429
0,0539911851943184
0,0534729709455889
0,0549876286161551
0,0515810922629404
0,0527780102283302
0,0565071954184261
0,0534732249167236
0,0533539731481093
0,0546987625551899
0,0541880655991342
0,0520000064495633
0,0518546036226387
0,0554191698337183
0,0554165457478606
0,0578097320176428
0,0572872847757595
0,0552891825927237
0,0563713134277415
0,0566740658570685
0,0544036046198639
0,0548612229444502
0,0524445853574971
0,0525085598037073
0,0545787227550967
0,0554511872897744
0,0547891685674016
0,0545025181411535
0,0560279979410418
0,054973285669725
0,0529033788325484
0,0544794321999863
0,0537541597714809
0,0553716446086318
0,0549593038181702
0,0548332247744005
0,0589558551082104
0,0555105549487835
0,0563694567860029
0,0559918674460225
0,0533141090427576
0,0578339491363396
0,0551386927424155
0,0565303089033936
0,0560260019931659
0,0568425662182364
0,0573595963417983
0,0559319530351923
0,0564672986025099
0,0576205862245606
0,0565376151842616
0,0561011940662884
0,0546542461228222
0,053014811592594
0,0568473008636958
0,0571988554454054
0,0585358620166288
0,0570701686212779
0,0579245959935466
0,0584210463220136
0,056416653967406
0,0583280352723691
0,0587092973985234
0,0554583196067167
0,0584603223839613
0,0571889406178694
0,0574741735061131
0,0602341047855152
0,0567544133428465
0,056663802359847
0,056622546497685
0,0603130085710112
0,0603013817334665
0,0599729082889764
0,0610448681948164
0,0608262073453132
0,0592969353897237
0,0581929607007989
0,0581685118948827
0,0594566473215017
0,0603078560633533
0,0601796458479254
0,0585634946649862
0,0587871281880394
0,0596856114932221
0,0599859238782153
0,0581085799584852
0,0585109838894286
0,0612069175401606
0,0604871731722626
0,0595731697412165
0,0602181653609309
0,061078433635174
0,0614175226750682
0,0618961812717625
0,062013726639612
0,0629931021300728
0,0636294949062377
0,0640348579978868
0,0625753238405987
0,0602383099659828
0,0623369212131841
0,0605716946279271
0,0601772567308303
0,0625611288303076
0,0610910957712209
0,0646711207274496
0,0653127222652993
0,0596924233202824
0,0612805866419876
0,0609242081349588
0,0613101756475584
0,0638602324627102
0,0630914694354906
0,0633261034732317
0,0602034868111068
0,0643923426626053
0,0649850888517349
0,0659593969042409
0,0616189668614095
0,063756556522729
0,0640384197196597
0,0638073386039215
0,0658545440574467
0,0637306341888239
0,0618831373432025
0,0637222153160691
0,0629303694605985
0,0653118558379726
0,0657730713371477
0,0640425755639215
0,0670593058736739
0,0655747613169906
0,0654700290955258
0,0687328445912749
0,0629649024258959
0,069771571464462
0,0647408476134876
0,0647932130582122
0,0684974956761566
0,0667924499698112
0,0664308807884571
0,0730517527219659
0,07057176925536
0,0665365341734752
0,0675477958012755
0,0637776642057781
0,0669715889478208
0,0769843387159886
0,0680350157415048
0,0677597880373173
0,0692636716703031
0,070385975314309
0,0686497859546911
0,0675885078379351
0,0640201977049869
0,0700582282910068
0,0669075121926922
0,0721154886154784
0,0698303801868771
0,0699661409425729
0,0650099435417317
0,0719751631475772
0,0678088924687135
0,0733876310467448
0,0672923673522767
0,0703556543028489
0,0656844976259914
0,071111434271491
0,065907041771057
0,0743397195064797
0,0697686594371018
0,0760071225302369
0,0681719191217351
0,0729058461179031
0,0678895949383558
0,0726010693317232
0,0681388134278575
0,0764360925077968
0,0674161117722901
0,071497289045114
0,0692183378197967
0,0745584673254462
0,0701680418158299
0,0740485491232578
0,0718746568814092
0,0711722353453878
0,0735799161624456
0,069683223761997
0,0750261845946615
0,0706235298969635
0,0767081371501463
0,0657946145754445
0,0826162809891345
0,0678560043330144
0,0804186648328418
0,0668268459010833
0,0813674217716758
0,0671435490959052
0,0809352093271954
0,0686091749555743
0,0799546400825364
0,0709474744425524
0,0787049545774969
0,0766816097286514
0,0771859941612487
0,0761995607704233
0,0784513464132804
0,0760359853642211
0,0752219904225111
0,0753269062767362
0,07835950674915
0,0756736604649559
0,0787532621739968
0,0748807552451046
0,0781587405196178
0,0785119532003779
0,0809116199283509
0,0755160680026466
0,0791398030877498
0,0775200586177851
0,0773436333684581
0,0775887045567522
0,079579061861404
0,0767895324322149
0,0781898618658917
0,0768728064462317
0,0802371124928751
0,077644146374517
0,0779197095573605
0,0773590161657167
0,081894409600243
0,0794682013398231
0,0794738803291076
0,0798870133597118
0,0825743975257252
0,0789460851905507
0,0817302289369166
0,0793466868577169
0,0789145246063389
0,0814512736879499
0,0841718509908024
0,0810235341585303
0,0829736291050167
0,082269421083688
0,0829983684702644
0,0832601577220291
0,0841982117330252
0,0829091432938207
0,0840597546575078
0,0806301979251804
0,084569452899336
0,0829549533269571
0,0842709408326363
0,0825168733316167
0,0840304524598007
0,084117500025779
0,0862422570001061
0,0838335643385891
0,0850057888955434
0,0827810453605223
0,0848057483119892
0,0836956821925897
0,0852267249105538
0,0867809644342308
0,0869715449193461
0,085208192987008
0,0844955747152649
0,0844497011755918
0,0886069903046303
0,0874565355527864
0,0891856494874579
0,0900052002736649
0,0904856010210655
0,0891460750502441
0,0889657028231657
0,087548699231537
0,0891220209794151
0,0889791046466955
0,0879949284673024
0,0886918490444425
0,090175814201229
0,0868906710864653
0,0890344117587568
0,0894842695714662
0,0910159959273708
0,089207584679688
0,089362279203551
0,0877360336385075
0,0893711991229369
0,0904858383471852
0,0903622073158604
0,0901068696540315
0,0914151371649317
0,0924386375815259
0,0934147139269044
0,0921104908963551
0,0947651190509431
0,0948079941522002
0,0966749400525039
0,0956543607395919
0,0937212260585997
0,0923625516993783
0,094004292523495
0,0924133715881378
0,09573606049801
0,0970723265445067
0,0962318396079666
0,0949181511371694
0,097263325033031
0,096254161771216
0,0950173051957757
0,0967223288375463
0,0986067721195257
0,0984760507632409
0,0987453699439597
0,0954472982167406
0,096287679968992
0,0959623592525842
0,1002136119835
0,0995781638802892
0,0969024196021952
0,0967767762788276
0,0999907268395285
0,0990947430597544
0,0996847055334784
0,0997493470384861
0,100325984286356
0,099006402770405
0,0999136481557516
0,0988666159948202
0,100773326975128
0,0996731580587435
0,100756272305173
0,100828236870839
0,0991291281404511
0,0980982349221786
0,101648656502099
0,0997869155943732
0,102638035902024
0,103168246717739
0,10175837357942
0,102919394851607
0,104802504803671
0,103111472166794
0,101644623916094
0,103974944475685
0,103972207372698
0,102941550019977
0,104045459788019
0,102242994013379
0,105580437476439
0,104221727694852
0,102011226206439
0,104631438623219
0,106638075398693
0,104623246295404
0,105927875555836
0,104887927613329
0,103538827051009
0,102398462182771
0,106262636304017
0,105671245438363
0,106198065819272
0,105403522286547
0,104951510521424
0,108869629349584
0,108471245135386
0,107269124714896
0,106856445255772
0,106398495055228
0,107862355976096
0,104634304562454
0,109307358109665
0,108212041460474
0,105549063970668
0,107280869218509
0,10838612447404
0,107506495087162
0,109333206882311
0,109287253366027
0,108051034039332
0,105668203873794
0,108365417306786
0,108610194870042
0,109107370566604
0,107247232369388
0,107106353642289
0,109987564281072
0,110320321284371
0,108266315383592
0,109733760093628
0,108660704052586
0,107792648507256
0,109096433039272
0,11130539153832
0,109958060097748
0,110067210372785
0,109874475667018
0,112216287342502
0,111869101910192
0,109493222338921
0,109400799998383
0,108737838023593
0,110107752485748
0,111886324214277
0,106482273902327
0,108345738493957
0,108370658220879
0,108942707223333
0,11104422069686
0,112891203751059
0,111196183457597
0,108947739409973
0,108074169142824
0,109200909200488
0,109787313811594
0,109540470545847
0,109633687947908
0,110256864518741
0,109720738701866
0,112886666032052
0,109265931334928
0,108084415993091
0,108248818989394
0,107498845129816
0,108931934713564
0,108745841451464
0,107022411740691
0,108702955938417
0,111326182181179
0,10984489583044
0,108465419460418
0,107882488341165
0,109396110669444
0,111292168451604
0,108920545465201
0,108509446271799
0,107612134088204
0,108326067487267
0,109219998369541
0,107874969795634
0,108706235806371
0,106978374117538
0,10736775309361
0,107880018790302
0,104627962963416
0,10384897483444
0,106062480785351
0,105630331561661
0,106767912972196
0,107968330045451
0,106999656450086
0,107763146721987
0,106628935793706
0,10584747585871
0,10690877870902
0,108739939106639
0,108395630987681
0,107992358732095
0,106030988039663
0,10639072692508
0,106663220852384
0,10576595413875
0,104215666588852
0,104993959060476
0,103837390225391
0,104286541863326
0,106080842426254
0,103296147041899
0,103652866247473
0,103878575746411
0,101890846294887
0,103288381641941
0,104136363876179
0,10520854102807
0,10528202012507
0,102225236077022
0,102130803215265
0,104031028461916
0,104255407411399
0,102928611670017
0,100744112915493
0,103075110001454
0,105229133722841
0,101781115828117
0,0988490969385408
0,0997195381130361
0,100296882508985
0,10021773058881
0,100444294270035
0,100779908574889
0,0992434863764337
0,0980452909271876
0,0995597652869272
0,0999607247598153
0,0992240960280235
0,098334620813899
0,0979606183029458
0,0993232660319984
0,0987573845896884
0,0981137496564044
0,0950557405618645
0,0945147988586266
0,0978602990958488
0,0973684812372977
0,0949479814139308
0,0960722739030352
0,0952579725149008
0,0961605100310006
0,0954076650161336
0,0962332736118453
0,096255268676834
0,09543277746804
0,0937454536976446
0,0957378744549271
0,0959721700793693
0,0940436878028762
0,0934868403501453
0,0935626743557339
0,0928075757963767
0,0914833855052936
0,0906357216115156
0,0928914902664583
0,091190636840223
0,0906045696344485
0,090955554972392
0,092157402155412
0,0933930775233638
0,0905788504010373
0,0896655663937012
0,0901342194468703
0,0927224777940634
0,0923257073869729
0,089914924114023
0,0877427250843264
0,0893169771449328
0,0899427122329255
0,0892138928574262
0,0879256581381433
0,0872038186261772
0,0869215499268298
0,0889356561578747
0,0887230922705106
0,0884094036647408
0,0900022583168729
0,088290772504632
0,0888353932444971
0,0862271727220665
0,0862295416927885
0,0863144825909728
0,086351984219761
0,0852469636021139
0,0863809219391762
0,0858242852531121
0,0859334540581525
0,0853146841593958
0,082742757808
0,0830216834996657
0,08458270266981
0,0843246683185192
0,0843442648634163
0,083020581208856
0,0838578153818629
0,0822608821954715
0,0830261414349102
0,0828433861899877
0,0831538152532988
0,0841387016865882
0,0832086188287295
0,0802507819018943
0,0816867563192191
0,0807775593806913
0,0811418184240416
0,0819686655519849
0,079628184789088
0,0799248886852159
0,0787175677782448
0,0789166356037385
0,0797067938529004
0,0788159083944997
0,0795561024001756
0,079566877590912
0,0798865282264149
0,0776994274285575
0,0788500992649275
0,076836014930421
0,0769189935020237
0,0756703028103925
0,0794035135446039
0,0790328052107889
0,0793380354097433
0,075932117706912
0,0766114921342139
0,0762328778111372
0,0774609177343691
0,0784521646993555
0,0768325925640683
0,0756257140734277
0,0752597967215671
0,0770072594646481
0,0752287801955706
0,0750236347821729
0,0753663330028786
0,0751011053446438
0,0741899456260161
0,0771541622015588
0,0763423232235299
0,0737970879200505
0,0730709538010975
0,0743024655732627
0,0752323345302046
0,0743631460553546
0,0749927177113665
0,072837933796899
0,0739991564029476
0,0721830802059507
0,0727515095308694
0,0757097285219717
0,0748976872776212
0,0722771458672459
0,0720974965268113
0,0732242104790321
0,0715717643258787
0,0762728743098119
0,0739226820004423
0,0739603131312537
0,0728937858269504
0,0712056486889403
0,0705983360514169
0,0706087583805636
0,0708791595371793
0,0717273372436072
0,0707832057716337
0,0676417284556045
0,0703549673410104
0,0706767386505107
0,070974866597027
0,0699837308502065
0,0701068488164985
0,0698444951835599
0,0709140453634852
0,0697810513988628
0,0702016206247957
0,0696951990834624
0,0722604721319182
0,0705042661675891
0,0696976296586209
0,070326594577004
0,0711864898109988
0,0713854806752396
0,0688066151729136
0,0696462260567512
0,0699731422509127
0,0665900286070327
0,0687776556817005
0,0690358122038968
0,071533391907116
0,0694987022718275
0,0699103851691908
0,0700484101905976
0,0706133564072275
0,0692270482672427
0,0687726687808776
0,0680375864951331
0,0693220741001646
0,0669543597194567
0,06943886430485
0,0680898400430947
0,0675660625725002
0,0700995949868069
0,0680718653228504
0,0706354235272133
0,0690798809225153
0,0706316929843336
0,0683091586699975
0,0715457368167213
0,0693468295007471
0,0685220172951203
0,0676331111305758
0,0677270006039526
0,0680430642068235
0,066971417034758
0,0687340930369761
0,0693378551401652
0,0685949660612353
0,0682895630303849
0,0710075730353587
0,0688126013662037
0,0702254907507455
0,0690970340962839
0,0683975191026058
0,0658645862179633
0,0710999476810661
0,0694621650164264
0,0689893022915672
0,0686923508703179
0,0713708020842806
0,0709795200147153
0,0723754121363018
0,0660242317045478
0,0730775471569242
0,0693086175371831
0,0722665519181067
0,0680459660138378
0,0695379979062518
0,0698843676650975
0,0708578254998359
0,0699585075212951
0,0709513416727488
0,0719430099747428
0,0695904171038872
0,072134104094851
0,0720645872584086
0,0709525750074055
0,0674425818991903
0,0697430147887863
0,0707024173217034
0,0687783852847787
0,0687799997215268
0,0696340564962412
0,0716890960193826
0,0730124780647048
0,0723954876990715
0,0710389985754862
0,0697020180004646
0,0745164004666714
0,0715632504919182
0,0724813802466759
0,0717009040409167
0,073599547017048
0,0738571118299738
0,073716070122784
0,0747236362299813
0,0730212275456835
0,0743579095000909
0,0724395563519778
0,0731910957115467
0,0754735616225682
0,0744236711653385
0,0742522196844499
0,0744917118538144
0,0752401968405687
0,0759187737702572
0,0784867586955067
0,0750924288699131
0,0758564746554547
0,0749255670747025
0,0749055075321362
0,07740777888984
0,0775731926422318
0,0785036358507592
0,0782412442351296
0,0778458108361476
0,0801479848896168
0,0751182777821834
0,0797492705923729
0,0793348308011342
0,0791080418809921
0,0825061846213974
0,0804321495038175
0,0825854379595671
0,0821149885550026
0,0809126081006177
0,0801695393495713
0,0847449830029117
0,0833904717692611
0,084734316277804
0,0824051277125045
0,0853632855833221
0,0809595206983806
0,0866553607762281
0,088251637263379
0,0849110385712864
0,0856447002239336
0,0863322458864305
0,0857919604228584
0,0877338763452395
0,0873503334829166
0,086111145082644
0,0938135698679164
0,0912096625912653
0,0902785169526648
0,0908642260408944
0,0884224838903068
0,0933971513357646
0,0926484169941554
0,094329631875647
0,0937357583291379
0,0950923309151357
0,0969040943128046
0,0993611410437614
0,100083227456841
0,100104203974445
0,0981866346743773
0,103936041875035
0,101103361914539
0,104354202700004
0,103745573668899
0,106427944738374
0,103251341681244
0,109110493260138
0,10711046603587
0,114548208380115
0,110027697861423
0,109422187783831
0,11472159213907
0,111969249680843
0,113690456598989
0,113450960757555
0,119672092308278
0,118784836306596
0,119425013308082
0,119510970378908
0,122684958776297
0,124425847158326
0,127017226459955
0,123480117482636
0,127256203777524
0,126799759088769
0,13751239398811
0,132524615307984
0,134139807179726
0,136683496741163
0,138542377278566
0,138561801864362
0,144450765263379
0,142175470780897
0,147653385691766
0,148447416865248
0,151143350720062
0,152800635093083
0,152459012899263
0,156133898036128
0,160176059091006
0,159206190162561
0,167270911093087
0,16902363454774
0,171416542312869
0,172778070839331
0,18012267312349
0,173819432397325
0,186481990511799
0,179207028918221
0,188393407205038
0,190559031634618
0,195245507667019
0,200807339448271
0,201747930683683
0,203825161719276
0,210050047056806
0,214319624711941
0,217580147073975
0,218794850404096
0,225883063631407
0,224568623552494
0,238438708603226
0,237591551899543
0,247696236873387
0,240073340213829
0,252619490087143
0,254049166182605
0,267690777358176
0,266554525287576
0,267015225260684
0,27489737365897
0,281042949236191
0,284065406453035
0,286489949220239
0,295310364958877
0,301738874404461
0,302984584781243
0,305367645818234
0,311987068418276
0,338699295335297
0,338157797350489
0,33264666218217
0,338659058395195
0,343993711934943
0,348376200684591
0,358892549541593
0,360002763826316
0,366196601520763
0,371756268135357
0,389233056435188
0,395445116368736
0,386220856302003
0,399843437735585
0,411979786905136
0,407515468717995
0,414445989523409
0,430451721561858
0,42701680093449
0,431932008856325
0,42949321642703
0,443312470428715
0,453492791659342
0,459397868838124
0,472340969567777
0,470200745906632
0,479920611120871
0,476826696657443
0,496204761830756
0,493913058101464
0,494289819494132
0,501137094592288
0,521092734724668
0,542919270057558
0,570538760713411
0,524370285539444
0,522639033568885
0,535202123698718
0,533524271991346
0,540934806631244
0,550005723274581
0,551290610890854
0,555967147913747
0,564716738238767
0,572649643878311
0,564910516710653
0,578353546168717
0,571713433603393
0,576123354780162
0,584816207003118
0,582618758510089
0,579284202978994
0,588098526796545
0,583703748603845
0,578123996965335
0,570948817303958
0,581112017666444
0,575452380117311
0,580924505182747
0,561017885070042
0,579294533609224
0,556124431773791
0,561706450891844
0,545607241634435
0,552597495445349
0,564291370611164
0,557562829429764
0,528691383174466
0,538483300729732
0,523753997834866
0,523129400550401
0,516526567346906
0,521696887931513
0,521161480263219
0,494566196051748
0,475692528712972
0,478526579138564
0,472839332874334
0,475131613595636
0,471304240323881
0,460477689701939
0,454168857817446
0,450042260529529
0,431807773064971
0,434096706264686
0,426403507645942
0,411711228262269
0,405140547914252
0,407290666089138
0,396049978263457
0,393145675851166
0,384787992965121
0,385666341429401
0,376370530750431
0,37634643310875
0,370215224661891
0,363976310490439
0,355375443635618
0,356868376005303
0,346221110863305
0,345141943017707
0,338220856682969
0,339772197754067
0,332203800076594
0,329270298784028
0,325091866084338
0,319412293982628
0,318898919877169
0,317143366764463
0,31401206170545
0,308241556234857
0,302589310968805
0,304149154185385
0,299609896788338
0,294769666069654
0,299195795011965
0,301300754456383
0,300949386332952
0,2865999091357
0,280569024439033
0,286396687505269
0,276759006257772
0,279364476720276
0,282188936767064
0,274513982855753
0,269785655535245
0,269424161508727
0,269317777580074
0,266092920704831
0,267803420753113
0,26413630986351
0,25852474239697
0,258950401421216
0,255145328228784
0,256446271652657
0,270503009647609
0,26153543654437
0,258933242476751
0,246245826492209
0,259240231013769
0,249257687588783
0,248045915950242
0,241661173612096
0,242042836528974
0,238290784204548
0,245170778755769
0,238974078934409
0,229838128209466
0,235654413497174
0,242388496137138
0,233202514412741
0,230251121574958
0,236804966659524
0,233606471814405
0,229405398901339
0,237112643591665
0,228205338306972
0,231667503067664
0,222610304114385
0,219606409859153
0,226687285333795
0,220833584008842
0,22725784472469
0,222310558852915
0,218249411474154
0,219857015909421
0,218793186071813
0,219311851793385
0,218094969040134
0,215196978509337
0,217613461298552
0,214144883108497
0,215972633008267
0,212330838623225
0,21674802580707
0,212416762282615
0,214601092668991
0,210826298144129
0,208735055827063
0,214468739009128
0,211459456081354
0,206143185909962
0,205243891583585
0,206031664676988
0,210699505345569
0,202580529373855
0,202866524148357
0,203601100793802
0,205825018799313
0,208210578301812
0,207240355397017
0,21836995079883
0,205129994194237
0,196751432045523
0,196131707338551
0,194442719882261
0,198785641504291
0,19471374027964
0,197915851161569
0,204984826833732
0,194202376086794
0,200970413998353
0,200264631558072
0,197635300478804
0,195898938039534
0,195970922840596
0,193465608720249
0,191568275858946
0,196194699846122
0,201156158189212
0,189290282628532
0,196123287684713
0,193319026791473
0,19113967813748
0,188339936532695
0,194159849147593
0,189382599824194
0,189133266483711
0,191241942949249
0,18933759889402
0,193945748294702
0,190085309297898
0,18743977001645
0,197158579802961
0,191158127684208
0,19344713822709
0,18896222289871
0,192910175402468
0,198997922256121
0,190217293800606
0,190867855808404
0,190636952195865
0,192709130746519
0,190123039868067
0,189199146715891
0,195684309774947
0,190415028092446
0,190493255571381
0,188747189236859
0,1901190270072
0,187834118911808
0,192860786481864
0,195192354399448
0,190127263329141
0,199826255406623
0,189122542082214
0,194856838615243
0,19079805515939
0,190497632044151
0,192641311550034
0,187430207618712
0,188256327725854
0,187684482432877
0,189888498393756
0,19249133156751
0,188476366054063
0,185408027496991
0,186647274144082
0,189368153759123
0,184379946337278
0,189544236992248
0,184234082682699
0,190083591353772
0,188372794840882
0,185829469452683
0,188370950913661
0,194248217339411
0,187153741738647
0,188679111427617
0,183037721597378
0,18969371543708
0,18549848258148
0,190184244717328
0,184816448980514
0,185484081883939
0,187383637525732
0,18697922030536
0,182275983838967
0,185155238491411
0,192173276397502
0,188970134689458
0,190449092389633
0,190446114852245
0,182682343619967
0,197995675638096
0,179799049750546
0,189863649286514
0,189037142931447
0,18491764391981
0,184343776050378
0,189568011861661
0,188876744987123
0,188856348751976
0,183802222841667
0,18812266231626
0,189483442623994
0,188985065422568
0,188680051549908
0,185726057649182
0,1885242828782
0,184803385604956
0,188591944036966
0,189854789393881
0,189938715743492
0,187419901419039
0,18516846026676
0,18793222629335
0,186127424944152
0,187125648433377
0,184986359126015
0,190778548235568
0,184752589258046
0,185741164314864
0,18581712255116
0,185632109360275
0,185189888962769
0,185463485431215
0,184277922996754
0,189897166637168
0,191131875326724
0,189085662020905
0,182551283316977
0,187340626844143
0,185894028420851
0,187212983566365
0,187956685373287
0,186515711286056
0,188454560185541
0,184280877232151
0,189035519378098
0,189227809169839
0,186582471952623
0,18564861748882
0,191944720238507
0,190444336967168
0,183275379634874
0,188922526365648
0,184723609039757
0,18864434672788
0,188490976362554
0,186002044616805
0,184416654345268
0,189015291874639
0,183323348745538
0,187841590701924
0,187981599634433
0,181583751806401
0,188006476364857
0,183523192507712
0,184685941390747
0,180814435897035
0,185384924808929
0,184299125351962
0,184561040974939
0,183832467950883
0,185562420516805
0,183817102400303
0,182450872950616
0,183812818521666
0,182460369793671
0,185089173608944
0,180193960835855
0,18457202564956
0,18360479238188
0,181703469494924
0,183733993925756
0,183454317140894
0,183424982778611
0,181867002311596
0,184389535853695
0,184190981965851
0,183758915010263
0,185280030091563
0,183247950888888
0,184376485944706
0,180295317962145
0,183572820914374
0,182410437178261
0,18202643026129
0,181680940559581
0,180203784228856
0,180811230545809
0,185526049680399
0,18102898269611
0,180584437039898
0,183040704482837
0,18170470012966
0,182910870500038
0,18267862026932
0,182257701993922
0,182775281487323
0,180366855468422
0,180781361060863
0,181191301694756
0,179325901196096
0,180336517570676
0,181848149441037
0,180768647906307
0,182339969457703
0,178939302000029
0,18125844926846
0,180739445154803
0,181862025700698
0,182272298060701
0,183073729952541
0,181534052999728
0,179671959897177
0,181738967431583
0,181543537291083
0,182629918376085
0,177699334870123
0,175798070301075
0,181797537139595
0,178029498035646
0,180520120709455
0,178603752350925
0,181144537786829
0,181415262002081
0,181815379675312
0,179238796325434
0,178288162411463
0,179497863445209
0,179794774193519
0,179654524492392
0,180971860935238
0,179260935461187
0,179112846607152
0,178092273138404
0,178982595653388
0,177914278661254
0,177936633411663
0,178618507103758
0,178928416296399
0,178141889216918
0,178819662297866
0,178809206438451
0,1793689419728
0,179277038947999
0,17952942387875
0,181140107026073
0,18101625779952
0,180758176473657
0,179437467332129
0,179694437377697
0,179600638721781
0,177184090604873
0,179090302257828
0,178390378741675
0,176150696356522
0,180108760098765
0,180000704954144
0,179945237707406
0,180183021806839
0,18013792309274
0,180063633447086
0,180444774355023
0,180105527434801
0,179686092468438
0,179666148057401
0,177340099967993
0,177565197732885
0,179693689722091
0,181712801635678
0,181107523240461
0,180074830269311
0,1804101283785
0,18079994131604
0,178931662776251
0,178484943726825
0,178066806733922
0,178390976560809
0,177163910995364
0,177536784701372
0,180296953276691
0,177884152498947
0,177815155529318
0,17793314999585
0,178696722215717
0,179743718543886
0,177216345277467
0,176874518351656
0,17535659490345
0,17843196801911
0,175120924621117
0,175512721032135
0,176355587559415
0,175022467450864
0,177240005848916
0,177426134888323
0,176462310188958
0,177751655292967
0,175925869867827
0,175807531827907
0,177409203378932
0,177026503512281
0,176362574387469
0,176829515085867
0,17577034769201
0,174812865977099
0,176110136457607
0,176188137730731
0,176567316456097
0,17544475268806
0,175715368127458
0,175530286179327
0,176558716741958
0,174410075627823
0,172396871138773
0,17490217019769
0,173219426920052
0,172578454667572
0,174673055153401
0,173692728705536
0,174815153687794
0,175255556014695
0,174093542293862
0,174671910334615
0,173622722931435
0,172029148290965
0,173973165235404
0,172655996601498
0,174278795457949
0,175495497845664
0,173620237563105
0,174413321070553
0,174037836028368
0,172830826636091
0,170828169912946
0,173608775578064
0,172914014546736
0,172786788218539
0,173562566018824
0,172550462309165
0,171514822073341
0,171833762009767
0,172076425314317
0,170970558758605
0,172279107466867
0,172781191995683
0,171466226216823
0,171945509626656
0,173061095140203
0,172837673438287
0,174172368006012
0,173063962681044
0,173052835809571
0,175129478739978
0,176147755939409
0,175855188022878
0,176096450128134
0,176903805778883
0,178553800740693
0,178868618638809
0,178247901882671
0,180534116876079
0,180547117549121
0,181274415113733
0,182519799104542
0,183038220612393
0,182310228592356
0,186015378789163
0,186169077033884
0,186715459117842
0,187478909836931
0,187703341529524
0,187084481297953
0,186984255585483
0,187812267927871
0,187864808358232
0,187376806810413
0,186764777028927
0,186231011243844
0,187149321367761
0,188213216480165
0,18658193928197
0,184082992484843
0,186409799486954
0,185456357737787
0,185290059077855
0,183876046375451
0,185683421059816
0,184755297843486
0,186261333014351
0,183436092773152
0,182957441801082
0,185143146423828
0,182957879640193
0,183964755896722
0,185003953476606
0,184398767821641
0,185237768387754
0,185688351126724
0,186037401571564
0,184352775253111
0,186133425510676
0,188482179401995
0,18859417229212
0,188254136429001
0,18872751891079
0,192143541237342
0,192730589553135
0,192487894251214
0,193116642300973
0,193028144169971
0,194814902923216
0,194350711200948
0,198302714426488
0,195328589227077
0,19565056271734
0,193485695041097
0,196501192438018
0,194726874220262
0,195151355619143
0,193039525693668
0,196412163011675
0,192846808787606
0,192336995060485
0,192091617034422
0,191355049531742
0,191223549973596
0,19148158883161
0,191963886269022
0,192449401334328
0,193962570284359
0,195772123689534
0,194167215784193
0,199273880078994
0,198801898202717
0,198968592131885
0,201187026364363
0,200754179919778
0,20067042717594
0,204232925724828
0,203480273968198
0,202979956161192
0,204760430283204
0,203793090351088
0,205161420349636
0,207716588112759
0,208409780216236
0,210817579360096
0,209940296513242
0,210729509587018
0,212901246969544
0,212723801070126
0,215798954180592
0,214975672427271
0,215690228116438
0,218500494056034
0,222352463926905
0,221834329043441
0,222077634394448
0,221907911730783
0,222510630057288
0,223242236772647
0,222757730137614
0,222826168097742
0,223315064542512
0,223277535915111
0,221586838955788
0,222636697249101
0,222621755873242
0,218493681250633
0,216854613385466
0,21576720543599
0,212488576176039
0,213430575912542
0,213585408835072
0,21240321045567
0,212599816058315
0,214319704886768
0,213661485505743
0,212561842461688
0,214618422918851
0,214767595765419
0,21348967012615
0,215381422328513
0,215887730739675
0,216381439507158
0,218271276222812
0,217679457844717
0,219410020356046
0,218877507022025
0,219410184678547
0,2188122255687
0,221988675165679
0,22199464416305
0,220693296085892
0,224712307271966
0,22361939238685
0,224405974493763
0,223622797460372
0,223476274457803
0,221200597261912
0,223813353893611
0,221674331247728
0,22191621176391
0,22466727752238
0,221044391117717
0,221740462312734
0,222596237422259
0,224413242431319
0,222233320214597
0,221798373851311
0,222911629934401
0,219639932008458
0,217726704098486
0,221141225892248
0,222040713516476
0,217564260763861
0,21773601621696
0,2178307096561
0,217160242897444
0,215320067892371
0,214670232007423
0,213098630446344
0,210121516558666
0,213290873919682
0,211332777663588
0,207416859043416
0,206919821219227
0,203890462714612
0,205027568299958
0,205379375980358
0,204929734640275
0,20321836424334
0,204342767663882
0,202235142807924
0,203006485237229
0,20539681987445
0,205180711427525
0,205215622461507
0,20870950286533
0,209033204115784
0,207349929634252
0,209285460247688
0,212054155540175
0,209310447590884
0,209843864022434
0,210025201276041
0,210081403805074
0,210712097470924
0,210857158578151
0,211472994333298
0,213280157325804
0,211096207244748
0,207908944664465
0,210681429996098
0,211911782383678
0,212713524943641
0,213782533871869
0,209131893499237
0,209576948948792
0,212916669055826
0,212314326991271
0,21481869943512
0,212945898411145
0,213236410186873
0,215965271456642
0,214116859419022
0,210925396486377
0,216401902414904
0,216905771709128
0,217159786232149
0,215072277335722
0,2164335845325
0,217314475044372
0,216946129996057
0,219862879081694
0,21543354762159
0,216767882777253
0,221816026079997
0,223767167287283
0,221470754580003
0,22111535014342
0,220527742553047
0,225030895920241
0,224493958709163
0,228720073899586
0,227647976277008
0,226048493888654
0,226892696726422
0,229742420756973
0,2290355228863
0,233272470181351
0,230798208121597
0,23190917338898
0,236821240394747
0,239361820424908
0,24043811434564
0,239287784834732
0,238196545123571
0,239364627305151
0,242392045800926
0,239256526773539
0,239395241225556
0,243673807447944
0,24661582474788
0,247232833194454
0,249836761239682
0,245846039374479
0,252917896235678
0,255323575373098
0,255274100120352
0,256725146582222
0,255459673007212
0,254464405905618
0,258282070460186
0,259030333215148
0,261545013248821
0,263668869295842
0,262945162470676
0,268001814987296
0,269016261230529
0,271335781123076
0,270144161628742
0,273474227961286
0,269876478917549
0,271252285169626
0,277851324737575
0,27995226642955
0,278330010358576
0,287009814775782
0,288639612012806
0,281433378071378
0,289684200476282
0,289048091498199
0,289659551301227
0,29468542434069
0,292584384199581
0,291801262902168
0,296027256143696
0,29759066075852
0,304122268736476
0,308218361544918
0,304128159652274
0,310544187971436
0,312978030133278
0,313828228016581
0,311534094755392
0,314142011684101
0,320934140410515
0,320980291036012
0,320352153695389
0,32374748766509
0,330265671476014
0,333859028199361
0,334389963538263
0,335026434132648
0,341052744921065
0,337935341006788
0,340613012927482
0,343047674021529
0,346956790017961
0,349652157529671
0,353977620610513
0,356348370468865
0,355611871367253
0,360685014860606
0,36774530935282
0,362445796330294
0,368769590941999
0,364984750751221
0,365086285997555
0,37566623001487
0,377149829243199
0,373056358297151
0,383928385008852
0,385786539792473
0,378395929406941
0,390217614279434
0,396249502884899
0,389527554598892
0,394179212073567
0,395877978801451
0,401768568724927
0,400742523539073
0,406360605048944
0,415407049132043
0,415728970959539
0,415944711032898
0,418495516684154
0,410464293364733
0,422062660499596
0,42726137789407
0,425559446388816
0,426243149211734
0,439796397669391
0,439284495552674
0,435139035329653
0,444613846367777
0,452508984405354
0,444638642038728
0,452444318366917
0,455637555434181
0,463486258240845
0,463060848835126
0,457282619516412
0,473952673957632
0,464968181826851
0,466841357450396
0,485032375859377
0,478482171289946
0,480226449908477
0,491707168381529
0,49538628859254
0,498001040972465
0,495093091183475
0,496389721271653
0,511014522902782
0,510367808312462
0,515655435415028
0,505956173681492
0,504215453393608
0,522032606125591
0,533913572277048
0,523819348943451
0,537025370005341
0,535281735837936
0,520836771194648
0,529285615177096
0,541828661101874
0,539805308428094
0,546843341976839
0,555200669454826
0,545990699449354
0,543215176796261
0,566657715130814
0,57279607404657
0,549610192635308
0,554443021023843
0,5809153062483
0,564307366530889
0,57688390049773
0,576392587172191
0,564407423972459
0,57576982278244
0,586720453553627
0,602399498990123
0,617820673552985
0,608282541988072
0,610813918396174
0,613872221078101
0,608764274339511
0,61646549209774
0,632007360247941
0,635401545728938
0,638332425823379
0,625800603866221
0,638557842946788
0,620786597355691
0,634792537886121
0,647509687810402
0,636564011334771
0,639468853229858
0,654081489195912
0,672242294342873
0,681209025319448
0,672161001794879
0,661993991736078
0,675813563605563
0,683711977303187
0,685129031510541
0,705024232711493
0,690236227806675
0,66572397023278
0,697928956600865
0,73629029368792
0,700087190914048
0,676378059095076
0,700491017073267
0,731433280264125
0,723486251994865
0,729059929985107
0,706657873561789
0,729983944457584
0,739209206963014
0,718087311111159
0,747758414499116
0,735106438289352
0,763488100620047
0,791857272799219
0,755842090616717
0,7273160669875
0,748902436588789
0,771504085827627
0,736925582633337
0,736649764784028
0,788045048587641
0,811218383058796
0,806016148484806
0,78361846614042
0,738857031408836
0,7432327495208
0,758229999841146
0,802545664441811
0,796972785393418
0,804267861360826
0,836963285893109
0,81697857969521
0,819478637269889
0,872914161147349
0,856510260881681
0,816832881711557
0,797005520104526
0,769981812016515
0,84118055164834
0,853624327102583
0,805865089015905
0,886409763616581
0,844825762629715
0,806982118282696
0,863418535589747
0,843197224178378
0,848159356216684
0,882545963541208
0,894874028446028
0,859015879167915
0,828704752071571
0,877155672323668
0,891692106017368
0,90899073445428
0,897225902152382
0,946062672973601
0,940625056510504
0,886390241381664
0,860473942479288
0,831400739170383
0,875512676071064
0,950156377449448
0,927201856620193
0,861788075844453
0,896353501857974
0,956819457635832
0,900221851613437
0,86413576463349
1,00237748322846
0,967163043167374
0,859686348534171
0,89614348792779
0,898786185818694
1,01230428416167
0,972420832914244
0,934006026846107
0,984954710120366
0,945933500303722
0,931418365676397
0,933217974548014
0,985208230111943
1,14114293258209
1,02539340641998
1,01335683829242
1,26429186615986
1,18208218809719
1,07059900641992
0,957924831383078
0,942825040288351
0,959844694183782
1,10493256357261
0,984281755230153
0,889004084497146
1,0038979110718
1,04500554590912
0,971529235890668
1,1168274694109
1,20008521951279
1,15262384326581
1,20178054304865
1,07731386436992
1,12105650436252
1,2341721619007
1,0307723795298
1,22388890150348
1,29468536927736
0,93219775082793
0,803209738883347
0,848312996418841
1,36291265966222
0,980659802414003
0,969870207102708
1,10392818501941
0,947084518105221
1,26466344068737
1,30602123380408
1,12237471279928
1,37757270390679
1,81973982223989
1,07532511700051
0,937909468579205
1,13131249605984
0,89094655621875
1,07242601939748
1,46144561849462
1,06360432532305
1,07974601385256
0,97079126991116
5
5
1,20296101964796
5
5
1,01289193972632
1,04323120250082
1,10302698723217
5
5
0,857848945379719
0,756853044465691
0,608795896807027
1,53730513545541
1,2687986754678
