3596
4000,36533379555
650,420452594757
1
2
2
0,0626211886266897
0,0518467658509778
0,0617870755597482
0,055353450432553
0,0654510402173666
0,0553860351197111
0,067451972506732
0,0505852463067111
0,0611428966246369
0,0483376340324488
0,0628825082254496
0,0606192422361378
0,0688552755465899
0,0508825736451632
0,0620026907563149
0,0586225578701964
0,0628583788020859
0,04873143861397
0,0646466722289144
0,0547604366786956
0,0683021101479998
0,0547209925312269
0,0654601067988456
0,0565281968582683
0,0622706854680501
0,0563901397921576
0,0679265930014131
0,0572066423146248
0,065142386356194
0,0584899014751691
0,0609346524686475
0,052207764780348
0,0733913123117682
0,0571785339559062
0,0694711992923508
0,0581917883689605
0,064593460810903
0,0577470547688111
0,0672057796133569
0,0476506025689176
0,069408751408862
0,0541436766113742
0,0699280051122338
0,0524574888074614
0,0657645309229016
0,0481500421949909
0,0651350111266388
0,0477565414842388
0,0626243457127047
0,0504220573751931
0,0686204469745964
0,0488497846485003
0,0686422695093489
0,0589750341354345
0,0585696398679078
0,0565735125722174
0,0648334825343344
0,0539833093301263
0,0612265804787803
0,0519592624767224
0,0829024102558914
0,0667823650471178
0,0670091724747144
0,0565997864117624
0,0626246589403261
0,0557842660688258
0,0673962204677218
0,0490023429988996
0,0588710611865636
0,0581244451590804
0,0613029478307079
0,0611198045327153
0,0885880063320737
0,0574309649318416
0,0695085883415018
0,0566602461847796
0,0669703957165215
0,0510559728917358
0,057101306863052
0,0545745516664908
0,0807939263660098
0,060961469167397
0,0675484975827045
0,0525747142897024
0,0672607223124075
0,0668783046310446
0,0566941866555899
0,0509223001812342
0,0843739151983228
0,0586985124628584
0,0634471239772501
0,0574647283641607
0,0679877138362054
0,0568539495103563
0,0606392984889273
0,0477278531985175
0,0629557250857848
0,059154484658648
0,062457643766767
0,0524735028822436
0,063046805821526
0,0513236447417242
0,094876874488824
0,0355996868061154
0,0822714250851789
0,0616134682667875
0,0620388338714439
0,0808910821263927
0,0833404916846152
0,0534670135531049
0,0642098168665343
0,0529323058334517
0,0592663800105241
0,0608138055719418
0,0603355136301231
0,0623481641665314
0,0969574137121661
0,0616280737751472
0,0676497122337432
0,0586034693058292
0,0453292216846433
0,0640174527238727
0,0903201581520534
0,0512940043608564
0,0728010453804153
0,0515954022407723
0,0424557135716727
0,0670604270839952
0,08698691144194
0,0558236488953836
0,0590450578079542
0,0588466680566485
0,0568169767467088
0,0435789837721439
0,0928455691156807
0,0579830650369271
0,0602703038672238
0,0247014009515772
0,0769700838445128
0,0943360893766687
0,0789743211642991
0,0559720768093658
0,0538972215804071
0,0375957437692735
0,0956400008760527
0,063944668532594
0,0579978849225001
0,0666698474606232
0,0741059145310843
0,0572491426734405
0,0588764038342335
0,0371021738516186
0,0726869287865075
0,0609334726435679
0,015241025350292
0,0448314755310002
0,105086675628877
0,0583025915431491
0,116720704436646
0,0524280969000381
0,0780886278970804
0,0550742562814626
0,065958361733353
0,0484816048342118
0,0661675990853331
0,0413207650873291
0,0685146017391712
0,0761535459139484
0,069808529089627
0,0520592761275311
0,0867139130847951
0,0583173167217218
0,0335531842808803
0,100465482845189
0,0730854124394041
0,031669806319029
0,0844893871090308
0,063033703185529
0,0526753353107701
0,054571087850511
0,0860965969151133
0,058870833871219
0,0684875111006211
0,0521941223147644
0,0646834390565919
0,0636063095206395
0,0663958975799325
0,0542957604904187
0,0680091456199089
0,0320970727822807
0,0603705752433981
0,080303568467516
0,102637349665442
0,0603357730743194
0,067234831293535
0,02456147198692
0,0968319488820856
0,0834393740620759
0,071342155931774
0,0574818337329457
0,062630835200974
0,0610350685281554
0,060713309008747
0,0518542495868931
0,0649241458050342
0,0195787974477323
0,0954548380472548
0,0700413905416488
0,0623398945516693
0,0509132053008727
0,0655242930346057
0,0333529674467648
0,112207083302674
0,0832555741108323
0,0688491274924855
0,0645755436656378
0,062053940707189
0,0723569805828294
0,0867773973947795
0,0547198034455962
0,0693746672587664
0,0552792631445942
0,0634125580283716
0,057637584621376
0,0708659464387595
0,0543866057218838
0,0646555829508121
0,0590329178057086
0,0699115474581264
0,0551460074468884
0,0778246387556842
0,0619808750441607
0,0636122530218361
0,0650725018534306
0,0589464609174588
0,0663980182994575
0,0902461109068997
0,0664761099066001
0,0724095602120959
0,0546949839095739
0,0671603154468969
0,0489112649393665
0,0748943645868081
0,0577041521233885
0,0630334535526979
0,0438822153656537
0,10471803437516
0,0654623151774107
0,08563484568578
0,0463224465842742
0,0886656822017061
0,0752673922012257
0,0755413400967701
0,0593473115005699
0,0748924015098733
0,0475056442602308
0,0592151346297865
0,086128866615178
0,0837566970474324
0,0512723677765088
0,0910396718072718
0,0725735929803953
0,0721107878172324
0,0490279143016289
0,0534590277867082
0,114339349966426
0,0862315623145157
0,0383525487173762
0,139836001303688
0,0754037374424021
0,0888315128138393
0,0544656261773448
0,0326725331934417
0,128789046982896
0,131668422063943
0,0642233494388376
0,0671800087124941
0,0827897159266179
0,0765935690941714
0,0674417290458913
0,0715936025235722
0,0784539805788679
0,0953862653342582
0,0764975137048875
0,121813163782893
0,0499052668752651
0,0957938863490073
0,0982383794677097
0,0870188151179827
0,07471233526169
0,0812082635110078
0,0581621167013146
0,10214118960818
0,083951599447134
0,0988108734418202
0,0709612538210939
0,0804321119363705
0,0918618554094644
0,102066374498648
0,0727176396617641
0,0905455141160083
0,0833104289197222
0,0955656553576536
0,0823723699816348
0,088125616234197
0,0908665366016928
0,0842868341009804
0,0754941756052961
0,148033561218862
0,0910162376405808
0,0960954966679097
0,115628438287585
0,106036362162936
0,0895123919572105
0,104506895836298
0,0900525691386025
0,107418042943659
0,0859760894310497
0,0949333265661361
0,117458997007882
0,112117861748672
0,0932200871435959
0,112657920573915
0,0966126781738414
0,117137979796535
0,108084324021607
0,116941094779418
0,108494910928057
0,128847718749652
0,0973438367704875
0,13209787322774
0,141162195028406
0,107929040136326
0,137800157519862
0,169385506146415
0,136794290121362
0,145881741523106
0,128799908062087
0,150724556824584
0,136712597979842
0,15469026475692
0,143754997077589
0,162021435514267
0,16134665283395
0,162974042983272
0,146953035184565
0,172055394946534
0,181330837747621
0,233775119670398
0,180575052611045
0,193925588367577
0,156240952328314
0,231126854268418
0,205425010755086
0,219022085774717
0,209271093933766
0,21240439491146
0,203498612659221
0,212180689061182
0,212181472006951
0,217672387803826
0,219888625731458
0,221176558005176
0,22951373518792
0,24669418068028
0,237729535845503
0,24617502628658
0,231967396639883
0,295696954555435
0,256986784899948
0,264597578232788
0,267005939725018
0,254958915881306
0,288283661841922
0,294561677299591
0,323783552011467
0,322541604422729
0,295043805499111
0,35962875914342
0,29162503915326
0,314214363228974
0,299040809501324
0,310120769200741
0,312101505577223
0,322351724923736
0,31421434754675
0,332341605777874
0,323000708430664
0,351429025940138
0,322941877002021
0,347866014278322
0,327436590812222
0,36192713329832
0,350023776990463
0,366525689353537
0,339758147839985
0,391669446972
0,390401373107144
0,436648252545271
0,356947906937196
0,391699803093273
0,355269049313588
0,402930858810482
0,381883000123923
0,402348124199877
0,389580205304459
0,399601913770141
0,426313922100838
0,437990197222122
0,401586436984973
0,433702853920255
0,397421378874975
0,443081402418485
0,413264172728415
0,463543103991264
0,442713942677694
0,447278455551061
0,410562402411676
0,497324803697434
0,45241059576632
0,471745337686644
0,454744769175188
0,469981285225444
0,453338206345489
0,453352707440092
0,449004656238729
0,469716909389586
0,463391263297295
0,476615901711842
0,456831610638225
0,515379566202558
0,481442338948356
0,508600906254334
0,482022597641648
0,522043213920882
0,489751767357809
0,513082837555036
0,480396700204479
0,513719793982075
0,480094581357762
0,565891936424334
0,524672643643612
0,56650307702083
0,515859087662875
0,519182416554011
0,516022174407102
0,551399433259022
0,518420714931286
0,579732984809436
0,536710395253011
0,5898318469634
0,557898754817617
0,582136926879707
0,552289932580535
0,559673932429393
0,551151463475557
0,599133365729855
0,559542580876278
0,598172569526543
0,565624123735473
0,595150279706887
0,559202607708312
0,62208357677435
0,592898388025849
0,639673326448137
0,599717221722721
0,627619555571058
0,6065772805581
0,628026821194749
0,611009532783327
0,641752321151211
0,630526916315929
0,653909172739186
0,599071180157812
0,653780941890389
0,625743106755623
0,672575958784526
0,599171007427089
0,678363064830361
0,624851025516904
0,690063164413018
0,642755534820124
0,700257607981355
0,635024488000576
0,698037651276683
0,659854172693008
0,689657156301852
0,66217446307964
0,747525509055797
0,674715017941288
0,737702208563824
0,682442200813268
0,727335015467635
0,708869163893561
0,733595986059174
0,706523885014651
0,735824931996007
0,68786007981283
0,765671645621405
0,695587094342388
0,757293037343278
0,720611670110829
0,786274099376868
0,725066028634098
0,795898734421593
0,777274910865686
0,833779123256093
0,761191564868931
0,795066921379685
0,757862781261945
0,784608304291157
0,749550121804738
0,812823261109259
0,758927292572412
0,835758450743212
0,80732143545531
0,85493660312314
0,786668847015603
0,85315921298927
0,765542311933405
0,849479639195473
0,789003565663698
0,883298723841971
0,816664753455125
0,918372475791441
0,80275220353161
0,893710172974891
0,839023715768763
0,893784634455234
0,783591480398857
0,914949165209445
0,823984506514237
0,837301399380859
0,872436906905485
0,947154961335861
0,891349884541906
0,981522812764957
0,871523292491115
0,936370833451664
0,875614506461331
0,96684214988371
0,870203999420842
0,982025788856783
0,872194541701871
1,00751632128175
0,87037474253175
0,997485052396523
0,850717447926097
0,964934870381772
0,911344541065209
1,0000871186672
0,904077958184098
0,972075720420709
0,924703486643691
1,00075670205958
0,954688684673873
1,01221291688793
0,918072240409559
1,05455105468036
0,959259464160853
1,07045087320257
0,965369045925238
1,11202072909341
0,990077398007258
1,07621138060467
0,976164425852374
1,04516912517965
0,943153732743366
1,05042176024706
0,966745545489095
1,06991055637486
1,00801264286127
1,13439125417683
1,04276157312755
1,09897456965175
0,989055220027016
1,107594283745
1,04372118280652
1,0921487254708
1,00831356317652
1,15653153557253
1,03311692530299
1,15855023309995
1,0240307700378
1,26573067204919
1,04445414021774
1,20253393689474
1,05191864764274
1,20912186617905
1,04683649219836
1,08844989537509
1,0881334818955
1,20017924352983
1,05825833259466
1,21065151336106
1,10865656317762
1,27420963965511
1,11153295947148
1,24924486782068
1,10822947733971
1,25835261366273
1,1518681354732
1,24084975425127
1,10131511438767
1,16887654252124
1,11126787376529
1,27551017688704
1,11728057338377
1,30831140041718
1,1456724145427
1,35015460197297
1,19539878790589
1,23023720804282
1,13720137502612
1,39092579446022
1,17147046849545
1,27726491845537
1,20717709430778
1,32770352026066
1,15032373440272
1,329280863066
1,25720260914534
1,3978525670277
1,27290096225044
1,50041057267992
1,12322002897372
1,34590753312014
1,21784188955636
1,36925729087352
1,09244874616742
1,36601719258734
1,27701522363039
1,39431294497078
1,23318151490492
1,51198160725427
1,21884553300452
1,43256948344446
1,26680823900899
1,37713195462972
1,39912610971739
1,39759868434893
1,21903391694354
1,38503694057552
1,18188790130427
1,63904286314799
1,23695275417881
1,47187029005823
1,22645408947258
1,43567163435866
1,26486880415638
1,51648219449946
1,24955264401566
1,50590795497382
1,28056490458655
1,43974180114071
1,237992460524
1,65499675714369
1,3142541835658
1,68048397444165
1,28400603296003
1,51475941250964
1,22702428534666
1,53193106230119
1,30820667210443
1,50413601781384
1,28284339161549
1,42860520889785
1,34423341352892
1,48842315826555
1,37279646088992
1,50379291581497
1,31385595397988
1,52432555134349
1,34709880167585
1,5458507739703
1,33697327297221
1,58695234740877
1,35164041145437
1,52801338364998
1,34805706430774
1,56777796562573
1,32484802384158
1,5890492743747
1,40275942861594
1,48300251259817
1,26635993383747
1,60015160626644
1,35091115104205
1,46683026322043
1,35251401028798
1,46520957357758
1,39299775851958
1,58612466727275
1,41235753129403
1,5012292612285
1,3272428299629
1,44237035321602
1,44806517215041
1,64179946939638
1,35627860796228
1,58769021130697
1,33632388744987
1,52434769988019
1,34433127643252
1,50668917089047
1,32054675739693
1,45266358739978
1,35668910318348
1,53369065620252
1,32597578824063
1,51695581533478
1,38656229517488
1,45031448941461
1,49842683011671
1,61817933583293
1,42900299168584
1,49247529672413
1,41745240428738
1,66061024968875
1,41154336503024
1,46953400939102
1,3454105383037
1,44478227381894
1,4749792217881
1,47235187001761
1,43543008937218
1,50446976081718
1,41890069242414
1,64730297903537
1,30124366580864
1,59252710011903
1,45508999147795
1,48611572322188
1,28409027936906
1,52337733732033
1,36902207372869
1,50387801213251
1,457652261159
1,48163541532946
1,44515024881054
1,44038937612296
1,3699696715951
1,49328133489546
1,38561219590213
1,56304127155988
1,40926787618679
1,46717640170167
1,37041563844882
1,76611571096814
1,32056943032971
1,51085863657709
1,39584777172169
1,51662669481476
1,43849243181868
1,57001771234929
1,35979648398477
1,58908339047975
1,38417545403963
1,44507316429704
1,35598758883304
1,53496145915581
1,36792295875009
1,5472459768559
1,41268682655762
1,54423558423039
1,37483855019511
1,49520900439356
1,37702742156159
1,50819096587121
1,35970303393016
1,62509324800768
1,46275519102273
1,51283504959542
1,45302430515625
1,49952873717568
1,40799900267542
1,47536219203371
1,50591548059186
1,72750333777823
1,36536618616799
1,51223730357684
1,35010914475417
1,50192022846032
1,50514077578444
1,4746489631163
1,39365824826147
1,54401338794721
1,38443776521737
1,46380430753287
1,34084455719176
1,5740725426842
1,41987048557267
1,54529928469326
1,44021561801439
1,46745724369365
1,47979613550953
1,51247874074158
1,45894215144561
1,49203354952069
1,38713022464173
1,50266838111083
1,47166281686953
1,58349250165298
1,40918638605438
1,56614062073694
1,50503494627333
1,52754085123022
1,43094013685272
1,41476112722872
1,48178443061607
1,51541596305808
1,35312086391398
1,45767199262707
1,37434886873582
1,46799810518664
1,37673077813092
1,49125615657333
1,36751468552266
1,41022032891368
1,3469617386625
1,46060075837872
1,34805465269402
1,39331455598834
1,40568561534232
1,47372149536394
1,4258850350702
1,339671127303
1,41778488010684
1,42652456025942
1,43053629961473
1,42457791531173
1,38150216642707
1,40382555372912
1,34308004338364
1,39088061175416
1,31777860460388
1,49985982405855
1,33168252736783
1,42003154108948
1,3650976688859
1,52544190349277
1,35447951656316
1,34550161241661
1,25838169959581
1,39795365163044
1,37806622314026
1,38550908168179
1,4137710165751
1,45782228189934
1,35618239822966
1,41229763710064
1,38160884086255
1,38772891885422
1,31327462125739
1,38914830420924
1,24429499603427
1,36250038204116
1,30361751258531
1,4143993397238
1,27125374316623
1,32508027819034
1,25225948405199
1,34419333755179
1,28750633647034
1,29671857966023
1,26681908228146
1,30061200974359
1,21134137006627
1,33487774901242
1,20394537982636
1,28090277078561
1,18776873771129
1,32260978126957
1,25186465560034
1,29640802412056
1,21884701980026
1,2903390017994
1,16402941043677
1,28128273027876
1,17223264643465
1,30031578984324
1,17183178405122
1,25916367401211
1,22005705510219
1,22588692448635
1,17541542317907
1,19152729010838
1,17126192558232
1,17636287569753
1,13987437469623
1,17077542569789
1,14801798115468
1,15045394330192
1,1185810250908
1,1382139218154
1,07663146799143
1,14435136029007
1,11548438305037
1,09051052257297
1,09045712245794
1,14020802503754
1,10466188757808
1,10501131807491
1,07245372823717
1,1193533358153
1,03638817077957
1,10915339870855
1,03371781568741
1,09975008683512
1,04061729668846
1,08832314992222
1,02766031715952
1,09778620522036
1,04266241070118
1,04533430332323
1,00370110811906
1,02053283339917
0,99637065555781
1,02638326878619
0,953612795370295
1,00201066496477
0,970518366780106
0,98411457337277
0,958359638553949
0,974917761262118
0,939085600160241
0,968802758744693
0,949307236339063
0,983739553726872
0,919528978293165
0,929380224144919
0,907811978292916
0,95689134587247
0,899267431662664
0,937798247174746
0,913315539891537
0,948129553222284
0,866055571864442
0,900381256571041
0,847262155788072
0,872645605726605
0,86994498527957
0,8819430802764
0,845042119396949
0,870016233732026
0,808744288577781
0,826751046800749
0,816665674851818
0,844213999727338
0,830863845512688
0,839107260807723
0,798055206804115
0,826187041251973
0,783731935272042
0,829238297710216
0,775356785745717
0,802251413775326
0,789345668140289
0,814689111897321
0,779793853814797
0,77105909737018
0,757932488285716
0,76773684857995
0,74724907543147
0,759017831917279
0,73833207735156
0,755968000979599
0,722674164220055
0,758074819196416
0,723534865688915
0,72922567535106
0,69687763409521
0,717260157168358
0,69560390540609
0,709233909789386
0,690480941792717
0,711316555428881
0,674240730008693
0,696920707218055
0,677453321564908
0,674324940973219
0,668832174802204
0,669155052975268
0,658699229111057
0,662823579637988
0,661124414002989
0,662638126434626
0,63634757150215
0,655392559020602
0,624181312217984
0,634704331093011
0,626271723596035
0,62935373079684
0,607886541595023
0,625693986783386
0,5912728880486
0,598516536758587
0,600369028733393
0,610052150475985
0,578824608223278
0,602207977488732
0,588843552056231
0,583038412504545
0,559849317551003
0,578452528105191
0,561690465156672
0,571132507915864
0,566629967085322
0,576482044229338
0,558402022145453
0,556117043293972
0,536684751256594
0,551519441411087
0,533072952296916
0,543583178595461
0,528743583785872
0,540455825198342
0,52526036110346
0,525706038019541
0,511393144347813
0,520068680994769
0,50386697101907
0,50863168613657
0,500406403148708
0,500102287776286
0,490611151353826
0,50816011365646
0,474823367644355
0,493122699703038
0,481524040557029
0,486429366214774
0,467495880630309
0,479458092986109
0,461577525166485
0,473681399059384
0,468568317901239
0,459654295392924
0,452710025394512
0,455986781250628
0,442810979320403
0,445869085977639
0,432865770917557
0,451675213026157
0,432263898801529
0,446000687980168
0,435412731276105
0,431313296507623
0,421848334803598
0,422633745197056
0,419666170818054
0,42757385349891
0,411394821002467
0,419724045144548
0,401555081343787
0,407735256058175
0,398483966242699
0,404031496440551
0,390285319067665
0,403074787323777
0,384163289220146
0,38698476179757
0,38256203744222
0,386905088271295
0,373695669817332
0,386993636235525
0,376017606055834
0,377142953430302
0,36648665593485
0,374190747135245
0,367033622605476
0,374545982633667
0,354057950516937
0,364015181186778
0,35241533960098
0,364704706012236
0,340651615033504
0,349988826176303
0,34502697450979
0,352876984957927
0,338282827954134
0,347673056247049
0,330298739072027
0,345803465104321
0,335684840676403
0,336545353229675
0,328717453484874
0,330597440213794
0,320400033553223
0,328128085477099
0,320285191840862
0,329768352258127
0,314273912573495
0,320450295651453
0,308555134572403
0,314949699359839
0,306471770203483
0,307742062988703
0,296278856941893
0,305917886484625
0,299434496238222
0,305089907531723
0,292968555283852
0,301484253694898
0,29495900283748
0,298284408943776
0,290637363315182
0,293354486336598
0,281316457760335
0,288142834877176
0,281212457238841
0,290578960219158
0,277006928764892
0,281365071595043
0,268142693615608
0,277233355543641
0,265097759875042
0,274766858044546
0,259876090357461
0,270899251300295
0,261107258540293
0,267348561543849
0,263637989960889
0,26241435933146
0,255484728261731
0,26593384195336
0,247680423389615
0,25985851863842
0,252025427811155
0,253212689778806
0,243537420916846
0,24744854227152
0,245668251114752
0,246136068128452
0,241363815351282
0,250222787577309
0,241406816553869
0,242565776746874
0,231967330278302
0,238308821698851
0,231113561039448
0,238957247760589
0,229882080787517
0,237836341951633
0,229392354034526
0,228934810480289
0,223527576150211
0,231773037339543
0,220284694741694
0,225132715602355
0,214148906312479
0,226675104850401
0,213115780914938
0,2191592152108
0,219103295320342
0,21547760818776
0,205967168552934
0,216478317627349
0,20785554170898
0,215348165769679
0,204926958112724
0,204877940843342
0,198804551810966
0,207808484728532
0,200608634650533
0,207370751552749
0,195147260826385
0,202975688909847
0,193629018811421
0,199614682624132
0,192489495615019
0,192990554619108
0,19008637928219
0,197335337714997
0,188019750728456
0,191745070840263
0,188228512124783
0,192881604150228
0,188017188031956
0,190349343811748
0,184535762011085
0,187825247180758
0,18339016055539
0,18492421265289
0,183994739676536
0,190816715992688
0,179848016180593
0,188673879011802
0,178105992436791
0,184776123543098
0,174739370630082
0,179335807985413
0,173925820272101
0,178338661678085
0,168276042564133
0,177148335529733
0,170035140342102
0,176777513148877
0,16881668745677
0,171880420028256
0,168023515566734
0,17324963569043
0,164623439249216
0,169125118885533
0,166579183545368
0,16554429600791
0,157311256567949
0,170282150861813
0,159985872789938
0,162447113660456
0,16050009481182
0,161276161125047
0,152209861225717
0,159321996558821
0,152465342483314
0,157378749432447
0,148977757088399
0,154908395422586
0,152674866410633
0,15621876358983
0,152015779584616
0,157402542358161
0,143035681686568
0,151581067390758
0,149367347764633
0,14665903749638
0,141868196603255
0,14959196895375
0,142362481324283
0,144211660074168
0,137840898578219
0,147059646051204
0,140970092721677
0,147408752815969
0,13791023437123
0,141990603976182
0,142395457789185
0,142430718613566
0,134605429927817
0,138530707979864
0,135499826637785
0,136689333389141
0,131097842930562
0,135755556072018
0,130891763962254
0,134437904634081
0,126783277662298
0,137693142009418
0,130432070209375
0,131476892182843
0,124419393163305
0,132378552330662
0,126578399561114
0,129535786700766
0,125795390477026
0,130710705488844
0,125681169897593
0,131044435560535
0,126843073391582
0,12919897084275
0,123239719675347
0,123902838520872
0,120819393005994
0,124961339897802
0,11820702843247
0,124329060753388
0,120136726165381
0,125240700454135
0,121838963325098
0,122935128114304
0,117162118069234
0,121075248824457
0,113970245769056
0,11867094179091
0,112434969112324
0,116574281307958
0,11433130300874
0,118533830900991
0,113738780476827
0,116712764298091
0,108640004808994
0,117600668704704
0,110551054903405
0,117802350459164
0,111269937037849
0,112957052384023
0,109166414542694
0,119189568534853
0,110235510764221
0,115516470460819
0,10870858663006
0,108767797923277
0,112296630194969
0,113723298825644
0,105234021667379
0,113026281285629
0,104686017079841
0,110114124693329
0,105247245812316
0,106165360826398
0,10157164488644
0,105911871561707
0,0992201573698834
0,103788723932787
0,100477413320373
0,106324059702447
0,0989789137611483
0,107172599813527
0,104356696262953
0,104665018110624
0,101005280800758
0,102880330079841
0,102783235875387
0,103619115889869
0,099515891751911
0,105970972184809
0,0978183885801002
0,104346612722943
0,101798244013128
0,104974184945643
0,0958871492930882
0,102729677873158
0,0959622522215411
0,105581394221669
0,096348208040837
0,100812310263073
0,0943687947226126
0,0981347649162335
0,0927090963175514
0,100646983798674
0,0979867863040534
0,0966381388075577
0,0912381029273916
0,0979903876820856
0,0913522015655956
0,0964639370623889
0,0944098184840159
0,0964334349203611
0,0919239248762428
0,0958771286498975
0,0936061464002697
0,0993564121848148
0,0908843709327125
0,0943050336062457
0,0914162027616206
0,095391768754628
0,0913995286225359
0,0930561130968808
0,0890431706939914
0,0924163157485431
0,0882064545003521
0,0925581189981693
0,089511948455075
0,090538231005452
0,0881493333859384
0,0938671164725343
0,0876394445216286
0,0924309804432648
0,0866163888086727
0,0898700634957906
0,0818861441991932
0,091225762222006
0,0840712976646807
0,0891353259356081
0,0866403617684377
0,0917431105298417
0,0889833315361942
0,0906476545526804
0,086250588142292
0,0899401653799566
0,0839001580495177
0,0888773073185301
0,082876779805584
0,0897512801712093
0,0862572314945638
0,086063543404345
0,0843170419480314
0,0859238455110151
0,0819884209605113
0,0868890913283597
0,0843238257028806
0,0875852034118128
0,0849851634364399
0,0875395786694015
0,0825350645081078
0,087051015739169
0,0806299089223509
0,0837388088913853
0,0808040249159203
0,0858384452541901
0,0837730879341496
0,0846804806299395
0,0815371525235011
0,0861586948952983
0,0818850756356772
0,0843102783766616
0,0799278962024022
0,084563976991669
0,0801589853994764
0,0830283837070041
0,0811020267263291
0,0858968885246382
0,0782375102651045
0,0839579621295878
0,0818140151381432
0,0823224692635161
0,0798894258350563
0,0825373850695549
0,0766757883277726
0,0806045198529786
0,0814498396078758
0,0813971262272104
0,0774075182214544
0,082723365350873
0,0782841283025361
0,0827811641967465
0,0785936500240188
0,0770696348883124
0,0784142752078415
0,0787417056369671
0,0796526985368287
0,0804852308312298
0,0713801055339849
0,0775253563411752
0,0766264186422621
0,07643792520351
0,0775214789391856
0,0824719302083866
0,0721691304794481
0,0791444183557135
0,0788910300700561
0,0799681040520711
0,0746898934884307
0,0800295118076368
0,0739954784869241
0,0834173137551217
0,0759928534434586
0,0778167337735556
0,0721955498785422
0,0784483692735691
0,0762699031475235
0,0787545332229136
0,074121515211183
0,0794700186404464
0,0762185573771033
0,0777244064337907
0,0748947737064183
0,079355047426003
0,0753015098960254
0,0786111300240317
0,0754588934672149
0,0779045293342299
0,0737864085385267
0,0768108119089373
0,0729906795924682
0,0796148006625229
0,0719869916742657
0,0723960389711363
0,0714353452915178
0,0773112850889822
0,0735609657166913
0,0768573480973288
0,0733056181342469
0,0782534819957348
0,0736516470367929
0,071730639313983
0,070523346994442
0,0749094684260696
0,0727048315957494
0,0786905358982712
0,073679002857783
0,0754777465291151
0,0687979316917574
0,0740576488570528
0,0754191248998831
0,0767168241222003
0,0700721849429637
0,0747356081763229
0,0720759977509531
0,0780105976882595
0,0720226061795832
0,0728617961163005
0,0726349073301271
0,0729401719532856
0,0716489592667176
0,0762180982231602
0,0733497239657259
0,0741192605027309
0,0700282934045058
0,0742653876433789
0,0709871181763266
0,0759069370690374
0,0736669860942479
0,0746519775436478
0,0728080399826649
0,0761749359217141
0,0691279659078982
0,0732345796724554
0,0723573206495201
0,0753872865168783
0,0723336417443622
0,077377092033713
0,0710824691094011
0,0728225737706616
0,0728653928776846
0,0755331650286971
0,0706317640181932
0,0743534932190808
0,0726501519822402
0,0741961608076403
0,0733206834523834
0,0748814311795492
0,0744454238489306
0,0750066202093506
0,070013620326123
0,0713180714860976
0,0714176274753459
0,0752461439757267
0,0714345378943251
0,0758391766448487
0,0721906961470053
0,0718891902389252
0,0714617572420638
0,0749967768093908
0,0717521064625864
0,0731025497451978
0,0718085966447911
0,074363938459132
0,069527143747292
0,0731292324760202
0,0727784339781937
0,0740505456692117
0,0728716968483714
0,0738624076775222
0,0728552140837922
0,0734748982183377
0,0704582682473384
0,0755279412927093
0,0703266352101077
0,0741809269479491
0,0717179418941671
0,0743228551529321
0,0708189138834486
0,0704768577544823
0,071621564557606
0,0742053026403322
0,0716869445230075
0,0766027612529675
0,0744176790934244
0,0747882672360242
0,0690752784390134
0,0760614684758352
0,0748937191790889
0,0739691785074307
0,0730600303482226
0,0771433643856042
0,0745262639144072
0,0763055642508109
0,0721723618149079
0,0770833023108826
0,0749954444642096
0,07527751708604
0,0713818455896505
0,0773828874852275
0,0741552161578421
0,0732950628113421
0,0717340439047835
0,0747937569559226
0,0737329396608813
0,0752175199834264
0,0737423540947333
0,0753355487070358
0,0712033153703802
0,0752891099250852
0,0728669222318014
0,0778560743970691
0,071525126230357
0,0743593806056597
0,0744620689899406
0,0764556048697896
0,0730805254719503
0,0768277183712484
0,0738910033405807
0,0778180371954057
0,0723359593023368
0,0752626664795291
0,0740203883382719
0,0745615314472571
0,0709167586053874
0,0761016410849609
0,072762987881396
0,0770900785173909
0,0741598518759794
0,0772109632435465
0,075911162261211
0,075895054676513
0,0751536793879679
0,0750592848767901
0,073556109244637
0,080302284278234
0,0753028568983981
0,0734257484983261
0,0721727323138231
0,0760886143219502
0,0747706114075153
0,0763622684872656
0,0742893420286036
0,077333862405121
0,076151785527446
0,0772245575674163
0,0740535543768343
0,0768496164911737
0,0735293378613602
0,0762484275837374
0,0734532367938141
0,0787518224644569
0,0769464733422655
0,077672936558758
0,077323205481803
0,0780763241642424
0,0740063351020571
0,0772839116604356
0,076395384766773
0,0808091462107883
0,0760536513890913
0,0789585763360051
0,0782402804211162
0,0780740300084944
0,0769772362029914
0,0788076058091967
0,0722505606947889
0,0767329200640432
0,0767782399683031
0,0800406260587351
0,0771608838628727
0,0787353477242009
0,0776572579402365
0,0779999874845405
0,0760344150867676
0,0792111551823149
0,0760137881397022
0,0799816890133766
0,0760331577939294
0,0776584276265368
0,0786187600010988
0,0823442310356734
0,0776388180430353
0,0819541132850904
0,0766758235058813
0,0801794759819052
0,0783581830060081
0,0789715346875288
0,0766692131938467
0,0805825831716287
0,0790127124862629
0,0794098135230308
0,0769767866424845
0,0794294382008491
0,0775626163116462
0,0801483460965326
0,0787699750740947
0,0817739563200039
0,0781322647552082
0,0803272023810672
0,0804784961605944
0,0804421432389065
0,0750140437316556
0,080568766839785
0,0788734782478681
0,0823648385927458
0,079635357162112
0,0811941932940097
0,0800484760580271
0,0816094726452245
0,0784215937122053
0,0845913337666687
0,0801566530490933
0,0838122882633613
0,0811961076163225
0,0827071143727772
0,0812923971729423
0,0834710098361168
0,0805779683911266
0,0848772193253697
0,0826578695937084
0,0837460891544768
0,0808234559582816
0,0831543980321842
0,0794776959061845
0,0828703254326593
0,0805271210031415
0,0837228517261401
0,0802763591369948
0,0828865651487469
0,0824100279778171
0,084561509772461
0,081368691541989
0,0839590271384522
0,0835599005381654
0,0868036952927819
0,080915904124431
0,0857825575674521
0,0840990928723829
0,0864770733665983
0,0803305474894702
0,0845161118361068
0,0826703242371957
0,0875760685159006
0,0848116600444897
0,0854412011421028
0,0817537111075466
0,0862023183219554
0,0827602450317516
0,0860828424060099
0,0844138042816895
0,0863912922057739
0,0802747877695955
0,083872393560304
0,0832608754060381
0,0864421436694387
0,0828943000280509
0,088553376623876
0,0831763534447962
0,0869249262155889
0,0869589090575943
0,0897035114744204
0,0842347883953744
0,0883128354907883
0,0836761965805502
0,0892085090790494
0,0867970386582791
0,0902091309956632
0,0868499607404998
0,0901847253114926
0,0862474277301802
0,0901737289492821
0,0842685079481735
0,0908560583912132
0,0903798946281172
0,094665641300765
0,0900168544879631
0,0956598801625341
0,0887774825759643
0,098138568968894
0,0928050032263603
0,0998102987254175
0,09263716526796
0,10174602767645
0,0978720817061878
0,102575266355102
0,100870455612533
0,110722201718908
0,107457706967479
0,110959674421603
0,0980982230766521
0,111443926892723
0,105622389235244
0,115781715993837
0,105364689212365
0,117072794163022
0,102142671079204
0,110565589127392
0,113463396122214
0,113523038707295
0,105070974318238
0,123379764668572
0,10661721238174
0,114197767528967
0,0992135339066244
0,11421263844206
0,104060692530297
0,114210393822183
0,095613177325802
0,106569471413005
0,092338011432349
0,111497091950436
0,102772421175407
0,1179503201773
0,0982846247806947
0,118525937482744
0,0971417224850169
0,123079721287158
0,097772694210814
0,115609413396384
0,0914554227572428
0,116049938798088
0,0913253570670614
0,119745984673313
0,0995312864153205
0,127455308003413
0,103817582519743
0,119720569076914
0,0932101010181582
0,114306971885178
0,103376009809215
0,124628465604406
0,109021132597687
0,109344065010563
0,0982620422970878
0,111430437640205
0,125643963914181
0,104440737478786
0,110445772076862
0,100390360675725
0,135105314128899
0,0906229069670923
0,122960491983761
0,0898655690337784
0,130863693402938
0,084595044044382
0,132043486016524
0,0933409983382097
0,11843208672021
0,0955194087472208
0,114577234868034
0,100610062571175
0,111806247607548
0,102898618341063
0,106253355734694
0,102222409131024
0,10574507278202
0,103365272774319
0,107454859415372
0,101155538798917
0,108957205103532
0,0998804755593952
0,107762390828392
0,100241219360598
0,106320001199345
0,0992623806006686
0,105908523615914
0,100834250962259
0,106133948163301
0,101081544610678
0,106938200055739
0,103881765194653
0,108352456771911
0,100387536678033
0,105656512649619
0,102279321817504
0,105590969141668
0,10196232687641
0,107776881232514
0,103286872175515
0,105943491061459
0,1012696620729
0,106969057232909
0,10601924852852
0,107369468092101
0,105356422159585
0,108204337047274
0,106016218234332
0,111949524422856
0,106343135850014
0,109569484269332
0,107109265163178
0,11108982327838
0,106506518927034
0,109884765136427
0,107872038540085
0,112723878925322
0,107069034977967
0,111705164317932
0,107741412301275
0,111915311604835
0,109790056819717
0,114006969116677
0,108967836153047
0,111179670897203
0,110606620382988
0,1130029179081
0,110020325351204
0,112734923867288
0,108162212369699
0,11287936591928
0,111190953414489
0,113847603407072
0,10963224600886
0,113342814496327
0,112746156694523
0,115234777368786
0,113197296352374
0,115324776850271
0,112482250914705
0,115470609615168
0,112558326224964
0,114849835373752
0,112769584395083
0,115176701304886
0,115719744631772
0,117463894729632
0,114303171447174
0,115922526143826
0,118339119246624
0,115813673503496
0,116744078246455
0,11951696677763
0,116122918845519
0,121423849369223
0,115608755828779
0,119752524439723
0,117957522484657
0,118746271498492
0,118314665447353
0,120291567784117
0,11853158940736
0,12139553894119
0,118202960477689
0,120469171878564
0,119178388667904
0,121113098793337
0,121018805345036
0,122480923604666
0,118500429650302
0,12119662722716
0,122789095144017
0,122758270768749
0,121976783842457
0,120773260288992
0,122046117392327
0,12596627957764
0,120482790735459
0,12249776790677
0,125379718494968
0,124969980257691
0,124386021937473
0,126817816024832
0,123950499174006
0,125460881010732
0,125884200975128
0,126340753774044
0,125483648307608
0,130149050347939
0,124399308784852
0,126509417921546
0,128182398333468
0,127762460106624
0,127248720852729
0,129406692843559
0,126684309287158
0,130129282853636
0,126928829628073
0,129297817150684
0,128257743194424
0,128549125321599
0,125218842166662
0,128625891847474
0,127942853837149
0,130063576726296
0,12828270645388
0,133106858387093
0,132347364213239
0,130245977688923
0,129891801604077
0,13125814896268
0,128472827785639
0,131114298212839
0,132804257090813
0,135148226678815
0,128536085584357
0,132647303744249
0,133133419951152
0,132174549186432
0,133697963076231
0,134078428348142
0,132940887339633
0,133736609464491
0,132574825968642
0,135911470565158
0,135042118561116
0,132075538272044
0,131116705977061
0,133323429698087
0,133811095435438
0,136777700492525
0,133172214735824
0,135841894639259
0,134494181660682
0,137980101251588
0,137597138405986
0,135791414743857
0,13341777493115
0,135554067215078
0,13708527506812
0,140236975233642
0,134616840901583
0,13772384695624
0,137701499242937
0,139363452407378
0,13604998538451
0,138326487547796
0,134881265664071
0,135549742199016
0,137802210618705
0,13864431604961
0,136096080904352
0,139946507303434
0,138618790618246
0,139160884831339
0,136754058203971
0,142425742392815
0,13748437430876
0,137381950689784
0,138263455460715
0,13812674646104
0,139463381013771
0,136994395325508
0,138106772074207
0,139391551215672
0,137069299813388
0,139348521273369
0,13541481330191
0,140071856207748
0,138424345757445
0,138320643366285
0,135932631101807
0,137457587902666
0,135180600207689
0,139452812977056
0,138313369773139
0,138098646513382
0,138109358497532
0,140958742212553
0,137957647835191
0,138293618030276
0,138785206613529
0,140466499726178
0,137252509564457
0,138410945964819
0,139637679245977
0,137898788950323
0,135183136528898
0,140442977763752
0,136471709901639
0,137086646029049
0,140594995993009
0,140952152855477
0,135152717786747
0,140016057681369
0,139105720582096
0,139618106846975
0,137011438416669
0,139031430701285
0,140184842541245
0,138212161601843
0,134875114461504
0,1385865498748
0,137788862922234
0,138800054549251
0,137759430878515
0,139864431838639
0,135814308712389
0,137700569213141
0,136238040115238
0,139240598312364
0,137440732603092
0,133439471872428
0,135940553940115
0,136116162268233
0,134717483403176
0,136999471598527
0,134182396102623
0,136081812110451
0,133667776320868
0,135239619660088
0,133390025537283
0,134868829583459
0,134427970879048
0,136731790264784
0,135072040143007
0,133637171022104
0,135090029297213
0,133216953767891
0,131887943790025
0,133465379411684
0,132763211212116
0,131604707369772
0,132657349047262
0,132383825915155
0,134368593882614
0,131983886501852
0,131502842385983
0,13336790932272
0,127992565434027
0,132497100127861
0,129969009143743
0,132564728537579
0,130871301993914
0,1285463207115
0,126842550046134
0,130911495115167
0,132407175476995
0,130933753752994
0,128475946388713
0,129626356212708
0,126849747150505
0,128957562643518
0,125661999008249
0,129831031259171
0,125611634742406
0,131170028583902
0,125886021087578
0,127361989028846
0,126694104763718
0,127608489044763
0,125096298007519
0,124305779220739
0,125069711847037
0,125561098090173
0,12585127967437
0,124585132688191
0,124794105792064
0,12499360258602
0,123616522587669
0,124988294963856
0,124788340848503
0,125191162671287
0,119780460585193
0,123360499052425
0,121238301516917
0,123536019189496
0,120384842204554
0,120395966936446
0,120377869731953
0,122653118520085
0,120721881603564
0,123168513878971
0,116727897707961
0,121052731238528
0,125047368589493
0,117121082517174
0,118564953403753
0,117142265058845
0,116516687061142
0,116465404174429
0,117969083565083
0,11796008420171
0,116284251069478
0,113935360473965
0,117995823926902
0,117302499913997
0,113663204826425
0,113810513177329
0,114220010098308
0,114634609312598
0,113443932702267
0,112527121473561
0,114535393351632
0,113215443171299
0,111985761461762
0,112430271134767
0,113721784385803
0,112551220849896
0,113322614034481
0,109269713364135
0,115730559054668
0,11615399316001
0,110800113254153
0,110645306751945
0,108851531893687
0,111071054066311
0,108984029312253
0,107994758187315
0,10837695520031
0,111464160609251
0,106643957410579
0,110183802346846
0,106772134987372
0,108693051747098
0,108068671798839
0,109909682210518
0,107054506153424
0,107058093540714
0,107537976739203
0,106911064205011
0,104691908389158
0,105816374629882
0,10508750129146
0,10523959546257
0,103660918542326
0,104044590926211
0,103990156682531
0,106240844877804
0,101610526039646
0,107739742818164
0,102488875500415
0,104858698230943
0,10091758969061
0,105573197493043
0,10229877438478
0,103613955729524
0,0997420045668857
0,105036982989595
0,0980333116870007
0,102422934353176
0,0983319062769855
0,102639318759606
0,0976729384142822
0,101123455949617
0,0983930405247401
0,102308149228591
0,0997774941242188
0,101729068479521
0,0938637682830579
0,102472189082721
0,0941089360801691
0,103182208700567
0,092203782604244
0,104508885086661
0,102243782950245
0,0995571693431373
0,0963135400328887
0,0968330454522092
0,0984744806729482
0,0964964763335232
0,0946446569010054
0,0961178262084866
0,0955187820583465
0,092844531996243
0,0953292591882267
0,0964228207127622
0,0974478783992082
0,0950260941067758
0,0953625406846899
0,0949289015433554
0,0943959408306921
0,095261719127111
0,0961644234839584
0,0925257074754782
0,0944433288027654
0,101985395947057
0,0924716705856568
0,0990883217629968
0,0946857361119486
0,086268925979753
0,107638484248419
0,089619741168309
0,095836575207445
0,0896470316378504
0,0950240914602996
0,0878705237642799
0,096154556476372
0,0871014391546343
0,0931238617880327
0,0943606237293324
0,0915997520333278
0,0955013879489106
0,0931146494653712
0,0916304302612727
0,0919136752856887
0,0925807652403645
0,0891731170414566
0,0880554678600186
0,0927162794654489
0,0933905403786591
0,0921255138940427
0,0892816813540241
0,0924662849474892
0,0869108045745628
0,0929592839860633
0,091040194840942
0,0895738507312509
0,0890093121631875
0,095116092032334
0,0844760327486461
0,0888784221369315
0,0970749792970888
0,0870021125040775
0,0920607148056477
0,0836422886952747
0,0915614510345573
0,0857516833378535
0,0901630554801559
0,0857084799020812
0,091954138508605
0,0868609541948278
0,0896128240498714
0,0873212100180783
0,092076589599776
0,0885944049859716
0,0901872650125363
0,0872894932458829
0,0902440484782422
0,0853852577780739
0,0889784091729357
0,0906348507866166
0,0837491455545118
0,0910421256570038
0,0924756543112734
0,0992227640031933
0,0887025320479859
0,094585147975514
0,0882103986701277
0,089249708752768
0,0897615657781752
0,0875463863789423
0,0917011470548068
0,087767555148525
0,090122149547887
0,0887556154958298
0,091688477908467
0,0861525961526154
0,0888271419698016
0,0867433641589052
0,0894681955417844
0,0866361807782873
0,094094104837012
0,084972173517907
0,0920943339987949
0,0816806286230793
0,0992917343277529
0,0861710925709127
0,0978725669343543
0,0686161224310621
0,121349685582912
0,0943411749724047
0,0974969204674408
0,0898934067155191
0,0901557076423644
0,0909187415495845
0,0894354994834562
0,0879896846715705
0,0943774780195403
0,0871653770536358
0,0930053398140642
0,0864943246215347
0,0914818287546766
0,0914550713302973
0,0835353767685966
0,0877672658975124
0,107764466283544
0,0915409715560742
0,100892806108461
0,0827874477870902
0,0983099662698622
0,10312221305219
0,090955497511238
0,0983306612948138
0,0920640016362862
0,0930688962129203
0,0909474738412175
0,0928205210875824
0,0907457936080354
0,097774449389798
0,0932383052461933
0,0939364744276177
0,095038246780134
0,0931505555302424
0,0975342507134345
0,0905286736226475
0,103353768375696
0,10001223356379
0,0914717267364993
0,101020320807388
0,0969050559953183
0,0972590322659849
0,0957786333306938
0,100039059352584
0,0910091519845734
0,100175548416108
0,106792900082171
0,0984683767361037
0,106924300637803
0,107085630851939
0,0993193767210301
0,105412972127128
0,0982805195085082
0,115569768451797
0,0842832028913532
0,114604807434644
0,110498577252706
0,109403656202207
0,117968865860618
0,0970727115699806
0,107519670192899
0,096999240323007
0,109824151540074
0,0944030890059566
0,129187837340413
0,0935580715757809
0,12111614936909
0,0897448773883036
0,125265258866263
0,108251877759385
0,114661905083894
0,104643334574403
0,112748183818815
0,102550950811593
0,131657955217562
0,103767845944553
0,106818536959322
0,12363298361469
0,12303124761756
0,139174063184123
0,114853186275242
0,10441997474
0,145072286577035
0,114857096402548
0,127983898268792
0,109306367350647
0,130156351774132
0,109728925621973
0,124421255980288
0,138893023132704
0,126925955015741
0,128929271820428
0,130499485636529
0,115440243443317
0,144633479484165
0,128594769486086
0,136262144623512
0,127681922781416
0,140883896987083
0,10647707928386
0,191815239061166
0,121415979523407
0,155249360401063
0,143797266427813
0,152750358527925
0,146818454676708
0,151164975838086
0,139297502750243
0,153687251817128
0,15519857613466
0,156989310426525
0,132504334505275
0,168119820966469
0,173289988800153
0,15486857722457
0,165795911474855
0,15346674760486
0,149201749658612
0,179164361327609
0,187872598979631
0,188830493379876
0,172477751436811
0,166839612538077
0,190462542610424
0,175833972105602
0,182757395900851
0,179984854951387
0,182056074998373
0,188729907890695
0,182050377536407
0,203313400620791
0,190430066004164
0,206674213690189
0,191084357061459
0,20201305294452
0,203765073678213
0,239897330595128
0,243643949375815
0,206216312837646
0,25511318054632
0,231758489484546
0,242477957093155
0,23130126775678
0,235044733599597
0,249465281659737
0,246253025338993
0,251963155219719
0,238659569162455
0,27850223421757
0,260155498068375
0,277917586296039
0,28211787473201
0,272981695671298
0,281814641227461
0,230719344309219
0,480483615973333
0,286026639228062
0,337115223034851
0,283163171489229
0,316497146017604
0,376392206471539
0,329182673120447
0,329176670589838
0,335571948161274
0,333281178109333
0,350441886403921
0,351182475195982
0,362531157570648
0,372550570219301
0,382572080821873
0,357833800998577
0,392879973046414
0,419636278142621
0,447302949523342
0,419212411489395
0,40249441431878
0,427406080073467
0,440595594535071
0,422959915694637
0,450089247164108
0,425908158006168
0,439538806472864
0,511776724634127
0,465915846871831
0,48612108998868
0,459755447276382
0,527013497798647
0,456371934776308
0,564574429101944
0,506957336587686
0,529319685747721
0,510510170026708
0,535064221434609
0,537981737900059
0,522457567776685
0,572836623929423
0,574557477946929
0,558738239392742
0,585241863260216
0,577151837205576
0,592758409769112
0,585280729534552
0,606137464768122
0,586436521101083
0,650955470074992
0,587324061060718
0,814190855255371
0,644537192290671
0,640138733738081
0,632963200652794
0,632765747097982
0,674269881047523
0,655930434846453
0,7170265812457
0,697621821510589
0,663805383447264
0,681314090985839
0,674389004333359
0,687069514658669
0,669901624407076
0,696000716604483
0,654863735163853
0,742300453131989
0,654220117609772
0,723699561374182
0,759966566099799
0,69688895777092
0,687571473513036
0,684467984247173
0,676280474087192
0,684434587957886
0,670818426771882
0,667805129894583
0,705544046893953
0,673138589195792
0,666040457204702
0,624477864817302
0,679272941610243
0,673725501076449
0,634431522752917
0,638260796016643
0,62080270567518
0,64037703964115
0,582941299227633
0,623219730405412
0,672612901475697
0,594108348033851
0,596469051642746
0,570011136632927
0,570404922352166
0,560259434339201
0,545803006775279
0,545940408661247
0,537181940392983
0,523784744191799
0,524557676472988
0,519433224336895
0,514748896906931
0,495403827752926
0,496512382040316
0,483864478667709
0,482435925686868
0,474655906341846
0,463542402054117
0,465567077395855
0,451651910326872
0,444614331086608
0,439312560992922
0,43594488686516
0,437792169676178
0,418600935203392
0,420841458023515
0,417689381938716
0,409366755991356
0,408794598174307
0,399063565470585
0,393330172889508
0,388749419113551
0,383921124679798
0,38536721153433
0,378821580825558
0,374264593165536
0,370831939723811
0,366271943200784
0,3645741005712
0,357374067613139
0,364550811719228
0,325401038181159
0,435602819267378
0,356786664634074
0,348402909068068
0,341130361784169
0,337468635834067
0,34930103990108
0,311466100753364
0,386161114825297
0,342487620149902
0,334332631926214
0,326693614586618
0,317586642455195
0,330824999488407
0,330444058714724
0,308626037612825
0,333427867068837
0,277858380948419
0,340254625381314
0,310571241298073
0,343964827261079
0,362428108182209
0,322427967076322
0,294188198480012
0,298402439469622
0,341723075171695
0,28410684441227
0,31002029752633
0,266543622503125
0,335248653464589
0,298637350492059
0,294746729861421
0,288882234848607
0,279181475042431
0,297054466184495
0,312181414065474
0,279844134485255
0,288319939491247
0,310071328682224
0,279858708768893
0,296147534491559
0,327085990394439
0,295474843753619
0,271964065783221
0,277647458016108
0,266918195814214
0,249702211302357
0,326824295020199
0,262718581947675
0,288183013732156
0,260153050953424
0,265280444584702
0,258381177231456
0,274733646529651
0,276965927137635
0,255001084248588
0,310607284227828
0,240052317622037
0,285054996307373
0,254934201411912
0,288999274507483
0,285356010971565
0,278897459612694
0,239649136893879
0,278328216694103
0,28684073303014
0,250237778739357
0,277026807807782
0,247276945936399
0,244331164341778
0,27217474498132
0,238112793401216
0,261517843285412
0,255523307896948
0,246569793356952
0,274524792906199
0,273496604298921
0,288189620199306
0,256320578214085
0,238267003503395
0,245161552472051
0,23336313269809
0,257758659696012
0,220557858968556
0,279439128119397
0,241582449552878
0,217085432153728
0,286318480886277
0,239347949702991
0,237242604754891
0,239238770668002
0,230870155498551
0,23778981777001
0,243387681877553
0,260469042845484
0,23880712784714
0,244293671668699
0,258961355511041
0,231563835327597
0,236871772671939
0,223831762621733
0,238439119228125
0,22707166963986
0,248213479457376
0,230714735655185
0,22907572239232
0,236492348662316
0,223810481500643
0,231989466093509
0,265964096007567
0,2050657746817
0,275732969506055
0,209721782734866
0,29124811564208
0,238646846912998
0,232486571461133
0,235249519558922
0,228717119604563
0,236630600217237
0,227763738871576
0,222831831534358
0,271898159440391
0,217877513325478
0,247315941229995
0,220682321299654
0,246710722580313
0,211819249984357
0,265444630301672
0,212383434093694
0,298571031470584
0,263421408396943
0,240375006244287
0,241824774894139
0,22575556342756
0,239810366260744
0,232037293334771
0,234018883973502
0,23455544048154
0,22568552409251
0,253531334093306
0,225505248631387
0,23495390410894
0,227665910069532
0,235009752110514
0,225109585917169
0,230067346661538
0,228353890401861
0,228677996956911
0,228254933300857
0,23286178735661
0,19955277287725
0,304856747661315
0,226746165815954
0,235789436039084
0,229259522703351
0,234658194269045
0,230904009775236
0,227309784518078
0,242520329972169
0,234036873329805
0,228514087990268
0,237236373737679
0,223459730475051
0,235224902343497
0,220342911400451
0,257944231574443
0,211963467531744
0,249728833154167
0,207707467035324
0,250614337373989
0,259490921800761
0,230345819990647
0,248148688257245
0,22502113240218
0,236443941873141
0,224985498633309
0,230986366702596
0,226014547993537
0,2362789192918
0,222426376490213
0,233735184002057
0,227488205975175
0,23076327820195
0,22800900474216
0,221849802914139
0,24399983897121
0,228713161249328
0,229567890524569
0,224896068172138
0,231820628753186
0,218288761795393
0,246404841754395
0,238632226864743
0,230665264110478
0,23472823487517
0,23031099740249
0,240541704092357
0,240180733128013
0,223259220890575
0,232581119488899
0,220337689412396
0,230909193139863
0,222268535819727
0,226903893741742
0,252178205324663
0,228847292396354
0,234107536650808
0,223411339459313
0,227867849447855
0,22504571836752
0,232177523407072
0,224050494526982
0,230498186856681
0,225798184007313
0,234053275669542
0,224748952944601
0,22517644093853
0,230978065003267
0,235371324169347
0,239391203093901
0,227120604926607
0,229477646524616
0,22688593788012
0,224671789432006
0,232018957513871
0,232204245367987
0,228622643379072
0,225205982408653
0,230727080125862
0,214767810541943
0,248095028471576
0,218576723018804
0,236840772264713
0,226060606450443
0,224435649039005
0,227066670658372
0,225497678125204
0,223047539667174
0,220750428421944
0,227615409502862
0,22403829298085
0,22418869452549
0,223985568100133
0,223343137070282
0,220235666538853
0,224354535155151
0,223974949001791
0,221842460878459
0,223293697718064
0,224642075998091
0,223013417423301
0,217750449187861
0,224759589901096
0,217802819534929
0,2292126017748
0,225870469105361
0,234176461654149
0,22356151892254
0,221451022842235
0,22622830143479
0,216143124023561
0,226569716924501
0,218319641482276
0,223009134312587
0,217765455947946
0,222674343740396
0,221570414342793
0,2210367271563
0,216685875594974
0,222806228384141
0,217121733751459
0,223569082897251
0,217127419274259
0,22407069725739
0,216942437432272
0,22255723109835
0,218417730063055
0,227898816502439
0,221000187851575
0,221719896712633
0,223988664075975
0,218821208700486
0,222018627684134
0,220383050937457
0,221403241834295
0,217510366245869
0,216987141511684
0,22234248288311
0,216977317549649
0,219786660292423
0,217218942283438
0,220041792120955
0,216304524382208
0,219559471975564
0,218420829049648
0,218520920631787
0,216967439031821
0,218064126449316
0,215532538826904
0,216006407203013
0,216742264087564
0,217473148314782
0,218045800710091
0,218360408306409
0,216767481280122
0,216891893848295
0,216920854052842
0,215451741999349
0,216915322135987
0,216903200024013
0,214274498891995
0,217871440002219
0,216109478247392
0,215892244529932
0,218093589262474
0,217873586420657
0,216059351393084
0,215587577534421
0,215761828609504
0,217078491711056
0,215730317126139
0,21457147498928
0,213942029481741
0,217485796585708
0,215769132991408
0,213336937328403
0,216721568017457
0,215432561067119
0,216759152454669
0,213719090402188
0,215568768215419
0,215847978260384
0,216938449746968
0,214864850661514
0,218066676220706
0,21852104949099
0,216091209827068
0,217044646537907
0,217767770931627
0,217223173927246
0,215473532900018
0,218786680500094
0,2169491697204
0,216487377872682
0,216653490936968
0,215535035387536
0,215372179919769
0,216841537624476
0,215628232367042
0,218363381161961
0,215072558783873
0,214729050441933
0,215448763666619
0,216979951687758
0,218634829191379
0,218271786473302
0,214805632918161
0,216809245472392
0,215126137908306
0,215415255314492
0,215661071623778
0,21538112175859
0,214568297901551
0,215050663314634
0,214983699220101
0,212793344799394
0,214110104971606
0,215262911708477
0,215991632292784
0,21553037281518
0,21097294518731
0,214476889100643
0,214275831005632
0,214729972851324
0,212283797869729
0,213367665596718
0,214743843032007
0,215057667916221
0,215846033410822
0,214069451650266
0,213982107847047
0,213308182816988
0,212552969742072
0,212050061319008
0,212030604766124
0,213978596433984
0,211688415193862
0,212969056693632
0,211910975435764
0,212133232521078
0,212479845188823
0,211565508508623
0,210890536066432
0,211880756946255
0,209462702674249
0,209563529813158
0,208956245239633
0,20973715263675
0,210518846338919
0,211565679734666
0,208565191840682
0,210914453653542
0,210317508684116
0,211142194250335
0,210155307809149
0,209446716416096
0,209726788270049
0,207756141730695
0,208303599509905
0,210349777333749
0,209705460121078
0,208400652259308
0,208005307779478
0,210039285113699
0,207627235029662
0,208278512946589
0,207280645496615
0,20783193558811
0,20829122577994
0,207881894807667
0,208616080715535
0,207870874132742
0,207430580728712
0,209566802696075
0,208619649061321
0,208171541443523
0,2082611120647
0,208091058741995
0,210862641512013
0,21203151461609
0,209702352740779
0,21060234058698
0,209892519727489
0,211843629193216
0,213548340554634
0,214060367408581
0,215000442688785
0,216867575307242
0,216689558866181
0,218319899077426
0,219233578426333
0,221251994769924
0,22025412561365
0,222307780816435
0,225605322238502
0,224908711424749
0,225327221382478
0,226751237566655
0,227115106985354
0,226369485649267
0,228162272732
0,227683233656541
0,226298817777807
0,227931028818599
0,229441542318582
0,229899003787632
0,227950881488927
0,228036400679793
0,226955592921141
0,227543749860505
0,226648886195619
0,226453735200658
0,226833569179453
0,225448956674036
0,225256536473792
0,225131013359789
0,225228376089362
0,227033581692302
0,22609633832934
0,226278844780724
0,226660681955038
0,22647483562889
0,22570092494049
0,225886103510744
0,227085695819465
0,226407286811091
0,227098799436967
0,226159967095402
0,227918061202716
0,228620298496971
0,228992437545887
0,23158621377481
0,228896169122152
0,231331751369241
0,233267373911016
0,233930441002904
0,23599714226316
0,237155738560847
0,238195839253366
0,237740195625675
0,238118771344265
0,242662099622736
0,240596687070314
0,238730187079154
0,239366281400845
0,238575035284962
0,239142808015051
0,239106819120132
0,237873726474837
0,23876913425418
0,237902418376099
0,236917601985103
0,239100008461064
0,238528523231546
0,236283681256084
0,237290574298554
0,237219136973142
0,237758683575854
0,238914019570606
0,242053805378777
0,241968993671868
0,242007236087798
0,24623665773432
0,247127355822051
0,246549068730471
0,249869143800106
0,248433372557126
0,250848162425501
0,251372234585376
0,251471661618267
0,251739635875911
0,253955282583248
0,256084342043164
0,256888302763083
0,258075328282281
0,258511682651219
0,259508041727954
0,261347152463912
0,264486083285857
0,265833872659459
0,267774043067885
0,270174632293019
0,270450154217936
0,271340858227794
0,271677563842018
0,275258853264417
0,274819625020832
0,274986127007373
0,27763393941199
0,278975439184614
0,282973673481883
0,278944482907794
0,277476470295224
0,277339842934982
0,276785117952935
0,273966136097201
0,272592213499689
0,271914034989019
0,270533233076982
0,266968111253357
0,265328896226852
0,264904415752955
0,265846306447341
0,267185138959568
0,265850259048486
0,264942139954695
0,264913646114367
0,268518183002195
0,265749446613934
0,267689016211999
0,268927915174569
0,267217600304823
0,271346746840413
0,268029214322376
0,27213011269432
0,271724402300298
0,273716796999986
0,273864650695813
0,272419759437575
0,274394709245427
0,275331707638572
0,276350293427158
0,273809323473086
0,272210378835188
0,275054298451479
0,278207407173827
0,276274614698302
0,275582590222426
0,27894820719325
0,274673179398326
0,275566135265985
0,275427014095229
0,27506093217652
0,27386795992831
0,275007910257892
0,273809078790904
0,273589479113761
0,275943527160604
0,275564275656911
0,273069468627403
0,272306170838853
0,272102260996421
0,271107077318399
0,270234765304163
0,270773947092704
0,266371514222387
0,266517278710512
0,268234256509379
0,268282791592786
0,26576991466386
0,26401924875161
0,260887026056044
0,259978887317736
0,256074667532513
0,257550989224334
0,254850666083653
0,250302899990469
0,251943857866605
0,249091734266086
0,249384963911011
0,25026634218952
0,249020426929959
0,248273143454186
0,248060356845912
0,248320981164862
0,247283693188357
0,250286194017145
0,249357458576127
0,251246057972757
0,25225425373043
0,253875971020435
0,256239659609852
0,255234869784855
0,255826850081966
0,255942254309289
0,257509541540061
0,258106906251036
0,255587877931842
0,255731547051645
0,255531788598427
0,258488344247723
0,255396321628009
0,257708858437783
0,258025805010728
0,256447475271691
0,258309267058808
0,256816675200201
0,254768878776991
0,256369172410257
0,258014067142797
0,256352945256117
0,251821954881159
0,258436885423661
0,256318816334155
0,256107220175854
0,257714252339487
0,258867586119032
0,259240073482656
0,261488660379729
0,260168801849621
0,254650450670712
0,259432326051113
0,263073447883286
0,262623489034682
0,261232844534496
0,260398437996051
0,263328518934089
0,262461397258693
0,264080174840508
0,264180946242515
0,266046977243734
0,268173095157791
0,270376237703382
0,269612835042728
0,272467484097861
0,271913368204616
0,273969059271287
0,271951920351953
0,275564756235221
0,277361054518249
0,277402448605135
0,276859480034896
0,278379939107088
0,282021313933271
0,283142014776574
0,284026240392592
0,286990854256051
0,286236948297532
0,285001740578104
0,290525295504751
0,290110161286194
0,287548962860982
0,292500255050746
0,293806781008174
0,296459083723349
0,294301050268918
0,297112154053321
0,301301944097964
0,299857767641902
0,302789292893178
0,305750143822001
0,307291647071261
0,309419083893762
0,309307527544142
0,312114389568088
0,310820366753509
0,314196337099785
0,316922998532107
0,321377470329415
0,322516685944017
0,325285891144893
0,32695177504239
0,326517783007008
0,327748886451234
0,327907136029614
0,329136331539606
0,331119730774924
0,336468818313912
0,341986868914274
0,339225639724474
0,342209823855442
0,344029109568969
0,346202224401354
0,349718651059522
0,353565088780666
0,351310083891294
0,35699285805408
0,356082369814305
0,362647795939075
0,364789254509267
0,365112751615
0,369565611770057
0,371480493895523
0,370086349603936
0,375285446943979
0,378111366458394
0,375775512132756
0,384817742033877
0,394561784404839
0,389789307280217
0,39366347385687
0,395634985128853
0,399929752670915
0,40553964660763
0,406010848128889
0,405204460619533
0,416666631457558
0,416617374296878
0,408283091779351
0,418763324103898
0,422800157602428
0,414203520515682
0,422457154159856
0,423794834249207
0,426431942757496
0,426603798246146
0,435563540434532
0,439389799886392
0,447323860352777
0,444827505674128
0,453193944026901
0,456986490697771
0,450836622230425
0,45295352489754
0,459723036427359
0,461933537632051
0,465918694941324
0,4670906897361
0,471125008560773
0,47452149033627
0,476864564492097
0,473927707632193
0,47993185187635
0,487539922651372
0,499531737150657
0,501089307575847
0,502693145434098
0,499181578383744
0,492781387723843
0,505178280341869
0,515129852299507
0,508673022605129
0,51077103025687
0,521826841725124
0,53307614012353
0,527235763051735
0,536610645544952
0,531598908625167
0,539768856994624
0,538148372885415
0,53764637704013
0,556939472315038
0,559993016197128
0,549882582517043
0,555456602382716
0,558015561231541
0,567711014390282
0,571958808241044
0,569275891015112
0,573954257044789
0,577496388254692
0,592720115695217
0,586532771603739
0,568658830202363
0,595466837179673
0,597694887838381
0,610313914806387
0,617188752831989
0,620022446614353
0,622858085513636
0,615381809991072
0,613669936049444
0,624932000552221
0,619179070998194
0,634668590591385
0,640695596333232
0,629408985359574
0,644979011515997
0,646055165596992
0,640336689645283
0,653271262903605
0,656639770575374
0,656365939839184
0,67074051964717
0,659442815633556
0,667151675209237
0,68997942533193
0,694609678697969
0,704236188783594
0,690366509115941
0,669292077370032
0,671637349862865
0,700746763236017
0,691669708510105
0,706557743572705
0,704086261316604
0,673462019500931
0,728242987566397
0,712040152616538
0,695308465697417
0,739356241041541
0,734876308746957
0,734101692709416
0,749964762148806
0,751151549666145
0,752145967503652
0,750649832511939
0,762032194038937
0,776146248529798
0,752939056626273
0,769755594819046
0,756290911917573
0,764681217927859
0,794170829829697
0,780286487599425
0,796515037844992
0,800421780427516
0,795587651826072
0,792710710785621
0,781580736707749
0,786145043771097
0,826716304082747
0,813792346011375
0,80469418920846
0,833086618021369
0,803143823932142
0,790154552338018
0,823584977467894
0,839510364511453
0,875572145396473
0,837388490439834
0,890496196097593
0,90181613504526
0,872421868333841
0,877675564178951
0,82986277830808
0,853762647184045
0,883708855986233
0,869055703838058
0,873860762843649
0,864528174104349
0,902721462192091
0,932506633373908
0,959736611861051
0,950197022056166
0,881474941785624
0,905670252848935
0,946677077750046
0,91365083566769
0,89820819207308
0,878247749298094
0,898267055610626
0,952407118867516
0,952614322621531
0,962570897261407
0,96577306094125
0,942002014748162
0,960757203669043
0,9331098804772
0,971906666232499
0,894167756789326
0,994221766900778
1,01787847633084
1,03878673810795
0,98562833929839
0,925528645293461
0,944585079183538
0,921312847554208
0,885698921000749
1,00516773699911
1,05408151906453
1,05671089722141
0,976167943888595
1,09752554920987
1,12937935132523
1,04461766362335
1,04278856125954
0,997051590264374
0,93601835815183
1,07913621490796
1,14550383817174
1,07516617896215
1,04499816054724
1,03971434556543
1,03371722472747
1,00291439353867
0,985174541180386
1,01782139290421
1,01427219518106
1,0568691713132
1,19599889002299
1,22780887389829
1,04363116733349
1,06948603716655
1,05984585945371
1,1358154373119
1,30552812083764
1,05902882359681
1,10846406121883
1,17637270430845
0,958938336366091
0,952964368516754
1,00238802892927
1,03182175348491
1,04282844713753
1,12057043244349
1,15005426711179
1,4426245387833
1,29972165214673
1,13226947122091
0,977526323161685
1,24496857651521
1,34141777969899
1,25516809360729
1,33606774187793
1,31981156010226
1,06090599379671
1,12806766762905
1,04737117421895
0,995357386771716
1,40397117659061
1,2309720514804
1,30176820958362
1,27495930700097
1,05596509995096
1,19153880170203
1,17301055697054
5
1,59990243069638
1,39897968710318
1,28681989774887
1,41372137882831
5
1,25450207133217
1,35781081646778
1,39966413291324
1,18555864310931
0,918646388388649
0,953178261122846
1,40708396681239
0,947494598516502
1,14523223883534
1,20303924561756
1,44690186867625
1,13678839435969
1,17464425193833
5
5
1,69055868183827
5
5
1,00602336755326
5
5
1,43841492024088
5
1,85172201118845
0,973484462281359
1,20980008193662
0,834251002098396
0,672519933556394
1,15439511657323
1,10053699815837
0,52593265178834
5
5
