3596
4000,36533379555
650,420452594757
1
2
2
0,0155331431528414
0,0267804957466593
0,0113540815530667
0,0210012244491765
0,0130581202884144
0,0190653642720598
0,0214542336234856
0,0144577271610736
0,0133989979372582
0,0299032725417864
0,0169485327749972
0,0169927253162113
0,0212817315254603
0,0151189993674542
0,0143670290991089
0,0265498042069037
0,0102744566216385
0,0191399925871389
0,0168595300726449
0,0221052063271669
0,0215546246801831
0,0204228730986265
0,0174220477499193
0,0265664298155224
0,0161874192398647
0,020358972769763
0,009371177140989
0,0251467094461183
0,0141631869453188
0,0103353009667996
0,0202931546330058
0,0248750014787601
0,0227134238222792
0,021200171574551
0,0198953929501381
0,0294379476088802
0,014185166755449
0,0192028981428757
0,0173595415653895
0,0239381562302884
0,0139257740945926
0,0217448269940499
0,0166982839186658
0,0203103646368535
0,0182203045502395
0,0217524152173762
0,0147673639510787
0,0190600126163001
0,0147430450710566
0,0228621466558266
0,0164486886061946
0,0243713298597216
0,0177328705862939
0,0214445293862275
0,017217055223212
0,019915438358143
0,00736879659218218
0,0162179379563485
0,026024843153416
0,0217401675332789
0,0253691362418391
0,0185790585575038
0,0209010651473674
0,0231476116829511
0,0171331936130152
0,0282033912962281
0,0144101744099549
0,0262776281379974
0,0157046265877196
0,027234694691439
0,0118932406979239
0,0337151251826434
0,00993112564271977
0,0199133390856625
0,0214018763073274
0,0179993896041568
0,0115526107799398
0,0195852171434928
0,0141174437083385
0,0335428459639845
0,0122854543162652
0,0214794418811565
0,0182480030570932
0,0322244888078645
0,0119031241599311
0,0256337543306474
0,0125236849838839
0,0316919034828384
0,0156229668463229
0,0254546644857847
0,0193439902815385
0,023460740695221
0,0146791675451027
0,0234441327009513
0,0147565653509689
0,0270291141315302
0,010602157269563
0,0244651743189153
0,0112314667586007
0,0283775674319037
0,0184764467655282
0,0305462377954056
0,0158706009492632
0,00981515977782622
0,0430243835311989
0,0160533490554536
0,0241654276629552
0,0244234288869192
0,00802586170895516
0,022761013651195
0,00777819097185345
0,0262002735844075
0,0170050683543759
0,0323780119751924
0,00366176130569134
0,0419405570648362
0,0144296476864988
0,0228302819993401
0,0126793547885923
0,0371421178829084
0,0168345660878542
0,0232932452767104
0,0172231416553919
0,0167928379142152
0,0148093070361458
0,0196544131211737
0,0184438435095734
0,0189631861203256
0,00572948539208569
0,0143747281143252
0,0170143519749967
0,0251811130878408
0,0179675320309365
0,0263151854462784
0,0275331050725505
0,0189359617276487
0,0208107447901121
0,0309283636599238
0,0232851505001748
0,0275824519133133
0,0107737029901735
0,0241210927454804
0,0174568321198147
0,0265447621446841
0,0172351460891535
0,0283903466768254
0,0213641669221783
0,0178312376580463
0,0114036338040476
0,0236665749388999
0,0197430564503615
0,0261383425951238
0,0162752932065126
0,0330589518608114
0,0167310176093836
0,0484254063997254
0,0105397590773071
0,0207857471959371
0,0395663138487324
0,00849464715723222
0,0349177178573326
0,0213459233615598
0,0164896688414141
0,0186018815476701
0,031198205492246
0,0194498379578637
0,0230620719114131
0,0302011420365048
0,0181316326163128
0,0223756655205167
0,0135323006816391
0,0251900387091465
0,0121935708321532
0,0365627468618431
0,0127146714372386
0,0292622720674656
0,017356513051701
0,018638631371718
0,0146653188247911
0,0249317458933751
0,0193374480047378
0,019327291427488
0,026935660403853
0,027038820037105
0,0146846953687483
0,0212223773164695
0,0197368574724234
0,0228929336443665
0,023343635145522
0,0207730037980963
0,0271360591994693
0,0303325612050361
0,0177577158356489
0,0167004902194934
0,0282065102163124
0,0144003277629948
0,0301292243916467
0,0280924914868827
0,0237781525930279
0,0285628456678365
0,0274015887476821
0,0231234203722669
0,0149991862161763
0,0224423699731177
0,0243641974991239
0,0207005105001344
0,0374857239748927
0,0187462512910601
0,0276758696290627
0,0247692545865266
0,0257323631923036
0,0200540526195185
0,0325917847251394
0,0219709831559578
0,020720938391476
0,0310929149191915
0,02367198345448
0,0289350261651781
0,0168946101549082
0,030715527159078
0,0248995736940999
0,0239303278113873
0,0245685405654166
0,0232979644574167
0,0263234188702964
0,030113981481767
0,0283890288498516
0,0226619546995335
0,0273480292164648
0,0282310912119766
0,0287796162859269
0,0318325364870293
0,0292483692931073
0,0352435001596172
0,0232873913710119
0,0355825626886641
0,0369801742796081
0,0236312885312902
0,0316935881371591
0,0252975620060442
0,0293517120810255
0,0270754793461224
0,0334182315673412
0,0249317590818447
0,0357682820612746
0,0278481523195629
0,0326976933845596
0,0174135386267582
0,0328228343462629
0,0239515553353515
0,0380771525802769
0,0283384539927218
0,0291319938383974
0,0342560197959971
0,0251491476021199
0,030751103270226
0,0281217144218177
0,0379563613958169
0,0322821682751538
0,0320532374983042
0,0254521252921511
0,0350791694353797
0,029490203937767
0,0443416324579988
0,0272449735996625
0,0431725263243345
0,0240447164529974
0,0308735953463515
0,0338949590525784
0,0384364366860697
0,0309723768522507
0,0469573688794138
0,0337946988307917
0,0753084688409865
0,0325266085526554
0,0348941126918998
0,0281851613227541
0,0472964104899418
0,0294385611993421
0,0430290083253963
0,0379249295824404
0,0429888268719069
0,0360513192507423
0,0230125902606022
0,0605263537885991
0,029454556861497
0,0506559883273755
0,0446924246773857
0,0370032312886212
0,0380673713626498
0,0389689346293027
0,0475978414923354
0,0400132414367272
0,0447816358029249
0,0384366526145136
0,0547287211712836
0,0430957362308249
0,0557529877099097
0,0400006943510932
0,0522664483600087
0,048052179213822
0,0588028098536349
0,0374226566172439
0,0572424062062567
0,0485765012321346
0,0586948269509744
0,0508382236251559
0,0542780146842988
0,0602560621563052
0,0595271612998437
0,0491625026182492
0,068033642447071
0,0501492934052883
0,0608498398106721
0,0530272955084304
0,0651005803844138
0,0591711616413641
0,0726217443209693
0,0557864915090698
0,0799911033707224
0,0676574195992367
0,0706445734814217
0,0670087014009479
0,0734765515504266
0,0678411334709415
0,0793100363449877
0,0812297406473715
0,0838821485327056
0,0840014059108856
0,0917372632675606
0,0878050627072525
0,0985523872921298
0,0833635128836871
0,109330377044068
0,0924863910507906
0,0917434826908186
0,100654058527691
0,0962863281462717
0,108355487829172
0,110902892545594
0,107136553806238
0,108801395311926
0,120871476545192
0,136990890199721
0,127022067051682
0,134261108236757
0,148414931640855
0,149921203024333
0,147999525542512
0,138090992543005
0,143641231652238
0,156275135178056
0,164283024865286
0,172472741300586
0,147091845097281
0,179616823370846
0,155860928778228
0,176501301596483
0,168719447593838
0,187150007656649
0,184299492187958
0,196632363311226
0,191074222889488
0,203983721205049
0,205889578009713
0,210764514961474
0,212725897715878
0,230541052257526
0,222073514243372
0,222356303213635
0,222206450321369
0,239971098178693
0,243672144232026
0,266092151008005
0,26017914011024
0,265257056686835
0,270835011029992
0,257112149204951
0,269044102639391
0,260787493989664
0,27661398180827
0,275251342482679
0,278449039749835
0,286655002479176
0,288828917583661
0,281197465463617
0,290430209799183
0,300198893961064
0,310772560482241
0,302421441176641
0,297484686461081
0,321012616914308
0,325564452123147
0,313928734650975
0,325136446500706
0,340664331323081
0,338118474699163
0,352157446871328
0,339326999472497
0,350882815117797
0,331014893204135
0,343167250842134
0,345903030114334
0,362707031559629
0,356284925433757
0,381354328940819
0,361426906925749
0,387012079168633
0,369683965318424
0,390506357769072
0,383275696334648
0,381685873487616
0,387475961470991
0,399332405069423
0,384144450219297
0,401968815527403
0,392727042125903
0,406670041946491
0,40008431903475
0,422817464568092
0,416547525653324
0,438694589199416
0,415615063443167
0,422666230507429
0,427050252348344
0,443091771540967
0,443294818366318
0,453503142718561
0,440105164598767
0,436224045818877
0,444660076725435
0,459836004927312
0,466832394502549
0,481206290973993
0,464135691009883
0,464573323709799
0,457593973610602
0,462252313834301
0,483096046953506
0,494524500234102
0,489117054123966
0,500383204632522
0,463610377266307
0,500409739340055
0,480732762368765
0,494278041023702
0,495745103398306
0,508208292043586
0,514913708518243
0,529537230935759
0,509588764455782
0,520749094664012
0,508252703739365
0,542269913426783
0,549202751510814
0,552776592724465
0,536745488229592
0,541230722753105
0,552424325094037
0,558908455704974
0,538743716062685
0,565964184855421
0,561233522926771
0,58697829294784
0,580220585804934
0,585106750831126
0,563654571277714
0,576030838042478
0,576646320714913
0,606872272010948
0,575396620205424
0,61358237927722
0,620315044396164
0,621423210363454
0,60822061477652
0,608622185676509
0,620717934289856
0,619970996512189
0,605759930438951
0,63614695312478
0,647436790946301
0,658415679988403
0,656754104852428
0,663507455268058
0,641439615795904
0,660208131397954
0,64532832702253
0,673790991837885
0,644944925918448
0,636957014920876
0,662538077853693
0,663765100207017
0,68689126839536
0,705085278031669
0,68121771430147
0,713595281785807
0,679122658949896
0,738922094916148
0,737529319309002
0,71456097765826
0,705390614474393
0,725196702958783
0,729914577090839
0,748148071839658
0,789232723673291
0,775575195398983
0,728412979455709
0,749427403917906
0,744654900236268
0,745032966469247
0,731810026760232
0,763257284911091
0,768897590674635
0,768740197332217
0,805382225137331
0,81104782124707
0,762083255888845
0,789144165232347
0,832160480948843
0,799057044567586
0,774319233690115
0,774524638971647
0,801027816141972
0,810474792332869
0,798435998380923
0,820106824595139
0,842003303607507
0,903668056961441
0,888751110898327
0,852951332313453
0,821059337191062
0,83061375485836
0,83453641937184
0,867931328099538
0,890686125157509
0,861062811713713
0,843130886640593
0,884154528015332
0,881506078150927
0,868335687814985
0,858717680518606
0,860523190957631
0,905180649429169
0,887437362526049
0,921129825406979
0,912940422608635
0,867101289768631
0,952880386657569
0,929422152153861
0,857747000353663
0,898535026511155
1,00647829920254
0,956515617428792
0,965391291390566
1,00589059412414
0,952717747333063
0,920167804189806
0,953685985565292
0,957914201686698
0,969206602377283
0,945123234968145
0,972720131121789
0,999768903482918
0,951336127312322
0,986185871908989
1,0077855167887
0,95773437720758
0,936379496788812
0,966960838105821
1,02606829942141
1,04629934776955
0,997004637872005
1,0095759029701
1,00762950181761
1,04401063485844
1,05564668666216
1,07114257419713
1,01661915130197
1,03423482465732
1,09395075196913
1,06098355376615
1,06456212804602
1,07721969173265
1,14079054592149
1,14517633518225
1,05596489276637
1,10392591032817
1,03175131191599
1,06439161490909
1,152833312834
1,08683906248438
1,17314442640911
1,1620373747664
1,09520182592348
1,12047749308519
1,11097336195116
1,12901441759397
1,13555174756654
1,11990986637299
1,0883573887454
1,09208186869244
1,13282625926531
1,10292476693486
1,09114859342972
1,10478554050029
1,14121442605553
1,21621305918345
1,18318460871022
1,16285781669758
1,20453105335388
1,21352584929295
1,19898170217402
1,22232130731058
1,24703442363061
1,26759534476384
1,2115713864822
1,29258421992542
1,20507476882734
1,3065113175012
1,36446949240192
1,26765661690176
1,31404634253654
1,29250146911922
1,27976128654568
1,17769874305067
1,20233730593726
1,27520907642032
1,23364194742104
1,25335778309622
1,26892452029855
1,35719367312392
1,28649536686833
1,26425581630042
1,22556657245633
1,29297249778826
1,32047727032095
1,34587919721036
1,324288632512
1,33057043874077
1,31802235663674
1,29642951171346
1,22279867659084
1,31003243222115
1,31480711569567
1,33244821001421
1,30850802009246
1,39450976050099
1,32078880709488
1,2497769687429
1,2478630583636
1,27964994991546
1,24920008474019
1,4240737638924
1,39014298305287
1,43243813347437
1,31871737992717
1,29389814926569
1,33081330108948
1,54849220366499
1,47582802173644
1,55701797650671
1,55786765185546
1,36696867569268
1,47862836893147
1,42276819922713
1,27003512779524
1,33185036893283
1,36220793954397
1,39622068548628
1,31687467616663
1,45297503404952
1,46690165455878
1,41913206696362
1,32232595216232
1,45343553127518
1,42753551056716
1,40099902070444
1,39157761927415
1,40825091037388
1,326415960274
1,31850969885517
1,48269263432875
1,57831756868333
1,46984300862317
1,43115183825807
1,36904455605691
1,49983928710931
1,42872805537448
1,430488603021
1,36312683225165
1,5780799808141
1,65694067747307
1,52691071824549
1,42095840959328
1,48611639050594
1,40227145577859
1,54217734372246
1,57812134032483
1,54980203661708
1,38745252319829
1,44563009241063
1,51312827689204
1,51642876205779
1,37242901814152
1,51516945392464
1,49535909386687
1,45155105673736
1,4526457452624
1,37150881474763
1,32446804449566
1,39491743688455
1,45694621800939
1,47344963737376
1,36933541515553
1,42887181384678
1,31168211279761
1,35641026033337
1,40339195013522
1,62353301182036
1,60343847052356
1,42956534836413
1,34117610501023
1,38631591627705
1,35260610870719
1,42120596404454
1,37995914187925
1,54940185586742
1,39258786229866
1,47790332766069
1,5234564737329
1,46250018328769
1,47394922705982
1,36903978396249
1,41391713952953
1,46383599337204
1,37349339862686
1,43731702387947
1,32606159192501
1,33574270286588
1,38552685739278
1,41684833529683
1,40933730342954
1,42851643412788
1,32018788126595
1,32206929509321
1,45662288066938
1,54961951143223
1,45199475687698
1,45056954185244
1,35463565135157
1,51184789443178
1,42627364420607
1,45858859445644
1,48682742591769
1,44667167100711
1,47967390220656
1,4530123176168
1,3005836828342
1,41963399985518
1,36077968072898
1,45409697799254
1,31421521299852
1,4141833824372
1,40569434825235
1,4575890551564
1,35921888023976
1,36599590317408
1,31192470062866
1,43223998044572
1,42823873330274
1,3938712314532
1,45321504810064
1,57192603600509
1,36243636048173
1,42082691529737
1,37859779561858
1,46017329353891
1,37325527477471
1,45686035415873
1,35668103135359
1,45582453408525
1,37254527233013
1,36072246651987
1,38016941619397
1,46534944662731
1,37620591293076
1,50337551995672
1,43318593692696
1,55832231731773
1,4519530454452
1,51388202551259
1,41771587790662
1,36624167491893
1,41253456132797
1,39899915988196
1,33842555124153
1,41714364826058
1,37334575806764
1,41618680399931
1,38700257091581
1,37824968038877
1,38098991881499
1,45356962344498
1,43424956140795
1,42336325673974
1,28853924049487
1,38734038881471
1,31890082756702
1,38197385253754
1,35299708001514
1,41601925750002
1,33314840260059
1,4880485880295
1,36674274543255
1,42766979014646
1,40208901376449
1,33710536525077
1,41602228426355
1,41602786761785
1,31702357470925
1,42906284345812
1,38398441706483
1,32802456568469
1,42025299758703
1,40622089033466
1,37641738438056
1,40762640741437
1,32490582488928
1,4065731688188
1,33504280925282
1,40708836325009
1,37751604817651
1,2701979605445
1,34526688961921
1,34982219740384
1,36080539074618
1,45220646368082
1,32733331358423
1,35772363047701
1,30142019340496
1,39771506758221
1,2875976359158
1,406197756899
1,3775601982206
1,4242194139674
1,27619790483947
1,3354979588327
1,36071971821199
1,29187371012126
1,28624428574317
1,3119695174101
1,25785577040446
1,31973518757574
1,3130603557824
1,35373076040087
1,26787333418934
1,31435743400117
1,31197210234771
1,21201606353625
1,32306988127042
1,34841715208738
1,27953819973127
1,25729341550025
1,2667275511337
1,21512517897614
1,24771481882524
1,31672469109128
1,19230502294299
1,25565635032105
1,19199473074448
1,22808300016419
1,22126821777478
1,21569543093871
1,19672795515632
1,26348140518337
1,14843106753188
1,20389030577954
1,1559843571044
1,192441039503
1,16524353772114
1,17728983173403
1,1203935883826
1,20557177330407
1,13693823328828
1,18797310820046
1,11557373853289
1,16675920875545
1,09951898046918
1,18283821305001
1,12957760795508
1,16194690707597
1,10118276928632
1,15065389741589
1,11625982988702
1,14315481507084
1,08659038776322
1,0959497499932
1,09643269328983
1,05984801635319
1,06767581381724
1,09016635942777
1,04214603620396
1,1103327360724
1,03426530359273
1,05185687017073
1,04160583282075
1,06250143443888
1,00750020471246
0,996713098957606
0,988316269455097
1,02461594813949
1,01616596702928
1,05400061836074
0,968378095421309
0,979753311019046
0,967220332270369
1,00700012611426
0,98461949496856
0,985040614460337
0,954111180922707
0,973841094720164
0,930243519868977
0,945206956919933
0,903081749004191
0,941908505438784
0,914924748440993
0,923072057286381
0,916948384715258
0,902361760929392
0,910859469795243
0,902389878796199
0,90236541288353
0,893218586179318
0,86820054313684
0,917331144844493
0,87628862134028
0,882523524768129
0,831691284818502
0,856765229957616
0,851649623408762
0,849913134361148
0,815777490408424
0,839600789552511
0,817353337447185
0,817862001936732
0,820055964749841
0,810638358858344
0,785715777763636
0,808234031336152
0,807585724199614
0,811991261076856
0,776237270819334
0,772386928369964
0,747014511019898
0,78210497378376
0,768457747940465
0,752015763888228
0,747242926833874
0,748126599316881
0,73534138849827
0,740579006206588
0,730949215710684
0,746179405871512
0,723011622385817
0,726001981803101
0,720524146956596
0,710688583941621
0,703615697762766
0,711541284244718
0,69160365250726
0,681534584008266
0,670675993499967
0,686290784853064
0,660284515765348
0,671522541285902
0,659633536162706
0,666219546087704
0,652157311002784
0,653078281910382
0,64834038383384
0,659008767844143
0,650751186561282
0,63584870451258
0,621541841069335
0,625058661466407
0,610337823787924
0,632002357099417
0,618640065407139
0,623525956135009
0,601386710718462
0,610507566986771
0,591491879693927
0,604205746386634
0,584499021043241
0,57760425761988
0,576772968633491
0,587328171148465
0,574659966040122
0,563155707756748
0,559667207477426
0,572687475072977
0,550226130782345
0,550168930771275
0,541790042319507
0,547691749916024
0,539290091741766
0,53473407704665
0,529175514605829
0,528485384483056
0,528692871206793
0,527713848620845
0,509125038553448
0,522027824370138
0,512213819073682
0,512608959087812
0,512523707522032
0,501915210296792
0,494164822238733
0,493917976637934
0,484004297674353
0,487316886760665
0,478130752625046
0,482569754894107
0,476309846893583
0,470605670792554
0,470635041717659
0,463879026897838
0,455815326632399
0,456550704434019
0,447815892717335
0,457707036931144
0,448028763909294
0,4485723888241
0,427943196035863
0,447944445118667
0,441243474754171
0,43653653520328
0,428561167824667
0,427133112306239
0,418280450224717
0,425563928247721
0,41893749598561
0,414615869036964
0,404722546046089
0,413548406821005
0,408228652466005
0,410673698642105
0,396559214438883
0,39558676258121
0,388790155451591
0,396163122110662
0,386216751580489
0,383769764351977
0,382712472210907
0,383061149035989
0,373000494365169
0,372221755087433
0,370680432343788
0,37481813574595
0,371218248565149
0,374124889064939
0,361560138249081
0,363884483395437
0,360045183078482
0,355556668536986
0,357442654092159
0,344672607960573
0,344287359059765
0,345264576362457
0,342269762974732
0,341999419716869
0,331746490116228
0,329140099311809
0,336460469471321
0,33239091267596
0,327109447881471
0,325359693877908
0,322225531482863
0,324302776853996
0,314203808809421
0,317688365102954
0,313857351799983
0,311051035783564
0,309172169332118
0,306593192439014
0,306575263280994
0,305404919036806
0,304224699758938
0,302574966309758
0,300425625160342
0,298927396863127
0,290656292179488
0,289480350992958
0,292242626303817
0,294315328345628
0,276522109697229
0,285567868790409
0,274326438082357
0,279310393853256
0,275217011044243
0,278498481350785
0,276835356130135
0,274462226413374
0,269993884108435
0,271193435833417
0,263889003957229
0,260714001043
0,261105718002888
0,268126586589681
0,256599213066112
0,257947281851378
0,249907631767239
0,24886598368323
0,249977021377218
0,247156874108477
0,246258663870333
0,250380834710778
0,248383587223029
0,240850587494846
0,240590137965894
0,243965105411025
0,237327293508323
0,240864297863843
0,234882954227902
0,236709118612039
0,232477533967784
0,231439263979841
0,228098906188464
0,229232615856215
0,231660525466961
0,22664497428553
0,222674347574042
0,222713831171177
0,219004758898661
0,216918657609278
0,221541157898325
0,21791850998098
0,209798483707868
0,217468020638175
0,215046753669718
0,213181053083139
0,215250985914287
0,206489040393825
0,201149430420215
0,207293890646164
0,203656784284728
0,206719196042946
0,203408822927187
0,201445214813338
0,198104969972098
0,200264819598886
0,193691273841953
0,195594581502796
0,195815335764635
0,191290367850825
0,189324832243361
0,188965869983066
0,182822247357222
0,195737508064814
0,186829961985031
0,184645342206183
0,181961779696307
0,183839525904125
0,181849951053993
0,177189930157125
0,177624831841845
0,177001314167689
0,180670042054513
0,174173270767567
0,175023998633304
0,174999230180929
0,172503092014593
0,171435553188649
0,169463364988053
0,17001006684701
0,167021156956684
0,169395741498569
0,170373230964667
0,171865375631377
0,162802675315213
0,166966187451627
0,163951017874454
0,168892865620589
0,163346549108256
0,160681735989566
0,15882738468205
0,158762542826553
0,159383488165401
0,155088419711076
0,158141588593401
0,161333731037057
0,156613005565077
0,155107789177997
0,158044834448571
0,148490641407688
0,145992126231652
0,14937911136475
0,145158591714039
0,152530552930554
0,149213183490172
0,144194534811172
0,139424154898579
0,149623406502456
0,142106796905961
0,145640528465696
0,144271650374992
0,1485872836278
0,14128166037996
0,145366723819281
0,139255860074431
0,137785965242264
0,138764636685595
0,139418416067376
0,134161783804374
0,136199796137548
0,134381900810849
0,1336671337286
0,129825226214185
0,131171825268403
0,128082966600339
0,127957771120739
0,129054998711688
0,131398177738248
0,126393740450629
0,12739526612645
0,126709746109824
0,128864211980587
0,119708379195887
0,126398319402008
0,121243385028503
0,122543749294833
0,122912565470761
0,12205432934437
0,11764939053273
0,119177661534727
0,114069548300468
0,116573901009951
0,119730186614275
0,116500861623743
0,118914051314311
0,118747205126657
0,112493184287329
0,116956684454758
0,112009805927732
0,111555393685138
0,113507260261289
0,112044532399447
0,112240486890422
0,11179471864115
0,108988169399551
0,109480712280208
0,108072252225586
0,108530991381744
0,105349423631666
0,105685982849417
0,107816085576752
0,108473322352712
0,103338118974996
0,105870307360108
0,104132603233893
0,104560516038778
0,101824186346415
0,103286207568571
0,101399255323833
0,103806399219164
0,0985168296204671
0,107089919086953
0,104928709670956
0,101285257888157
0,101365264228053
0,0972885891416807
0,0953789657576426
0,10041779024759
0,0966579144306643
0,098719850720519
0,0959214639651222
0,0979998985926382
0,0963316317090237
0,0977288597227989
0,0967613041324603
0,0922985145198014
0,095815951258524
0,095792034200655
0,0913110697451646
0,0917324072003375
0,0975956846409377
0,0932110557078242
0,090561461795061
0,095003709880192
0,0965061880063068
0,090898074861072
0,0892600157009124
0,0904793861283959
0,089183480450383
0,0931626141683061
0,0888189734263074
0,0908506683755786
0,0862758536262377
0,0884639917889629
0,0859913757661526
0,0881333848923887
0,0889291503696668
0,0851964857837787
0,0882651421640332
0,0855170098494984
0,0829320704920975
0,0882257800613687
0,0859575901738864
0,0819947947027766
0,0852542868156533
0,0813540116300589
0,0840535564067801
0,0856282607405687
0,0836622185613249
0,0813832487280434
0,0812169500704129
0,0818417757763133
0,0818243508179013
0,0788960231092657
0,0794959108292633
0,083582820308309
0,0758568080428086
0,0832372920522083
0,0821160565823076
0,0832997239426371
0,0788877043642933
0,0819967469121272
0,078011369434356
0,0788769246810254
0,0791408303024561
0,0794340896871225
0,0767877447543017
0,0766845477919022
0,0726008022039934
0,0764103162802728
0,0763505236483132
0,0785560070416297
0,0753513260435562
0,0757928891441388
0,0712191509335342
0,0718927909990715
0,0668813898085783
0,0760542395772631
0,0760956640837874
0,0689679889306953
0,0723992333949013
0,0748439408397117
0,0700104206107539
0,076944430345711
0,0747291149662263
0,0744009538903517
0,0759489694145287
0,0737766964217409
0,0702073036287013
0,0753952456636913
0,0752236813562473
0,0722859700744543
0,070173992504749
0,0718456418769907
0,0732718151682033
0,0691399612220026
0,0737060254631728
0,0696291537764096
0,0667189743069856
0,072722747122691
0,0692755188211939
0,0680597985477976
0,0652892240563027
0,0676698470768873
0,0643036705615884
0,0691867689891643
0,071297971241509
0,0700963897846478
0,0702437092273436
0,0712471026069392
0,0687238879005046
0,0686144454436641
0,0660556296190096
0,0680246510592845
0,0666912551152504
0,0682864672702966
0,0677511757664814
0,0675936387598582
0,0672680497347279
0,0666654774380572
0,0678832688668083
0,0662590116445857
0,0639037439220637
0,0656681520462766
0,0690072723041169
0,067163328166933
0,0669831002149074
0,0658247275247562
0,0656022160008186
0,069800132015817
0,0656675006560892
0,0639755089507833
0,0633622050835916
0,0688051869860555
0,0624437999198688
0,0662901401332866
0,0643143875677359
0,0640254243338028
0,0657689535720571
0,0633068159450459
0,0636869030150896
0,0622244358877428
0,0624573287800778
0,0629219156895612
0,0677005776812422
0,0621999421142462
0,0646285479677835
0,0638240098485737
0,0635475124727194
0,0632111185605079
0,061622666692688
0,063211203095117
0,0617689914474712
0,0608887430893669
0,0586392690202669
0,0634070199700216
0,0596345852353189
0,0626181721091792
0,0622517616662188
0,0647347216098323
0,0641232382909641
0,0639545761281188
0,0622854649441619
0,0640328896419329
0,0609872689617185
0,0580922088162548
0,0612835743397056
0,0627473064553523
0,0603520987120777
0,0620650120986366
0,0601137952957901
0,060015302923599
0,0608550524212819
0,0615080855088934
0,0573745808237391
0,0602085080905957
0,0613276764451618
0,0636429056481901
0,0641719143446733
0,0596252763656868
0,0593154606544195
0,0576023646154022
0,0588036044070006
0,0603816075155447
0,0597286592310003
0,0624168687173904
0,0591313647256537
0,0603170889943438
0,0602699517243389
0,060357390541767
0,0578264780141811
0,0590970202626697
0,0558279234103152
0,0609082298845897
0,0552928210710408
0,0611261962685562
0,0622215018867844
0,0607212956692006
0,0567946907427487
0,0568731532648049
0,0555960812210782
0,0567952765194085
0,0593438227145387
0,0592972350889013
0,0571048978773128
0,0597330986633438
0,0593245110995474
0,0577607754984077
0,0558757190334305
0,0558769484617393
0,0555168749331263
0,0574742061010342
0,0601944504515502
0,0583656960433914
0,0582495558161801
0,0542895369793216
0,0559511046180187
0,0595309221684487
0,0592164104497708
0,0577836321399923
0,0570933827501524
0,0558985228885434
0,0592754008561237
0,0566397748342602
0,059500502652573
0,0565143960712681
0,0565327131253605
0,0580526432178718
0,056722233187948
0,0610138577792231
0,0592236819458208
0,0592507201339145
0,0565216823934921
0,0575240781947567
0,0579184007141187
0,0601674651641305
0,056875297675193
0,0591018820809287
0,0561281729155076
0,0565514136194675
0,0568133867809248
0,0551263122029442
0,0550219987345007
0,0585439515304197
0,0565766462626074
0,0602992022232158
0,0567923966902342
0,0578050941607292
0,0570423376088065
0,0589928881271055
0,0602698468909654
0,0569271712791457
0,0560960834990668
0,0557534406812202
0,0558144914855592
0,0595296821437733
0,0578948671285145
0,0565843618568522
0,0546373732076966
0,0553949667394992
0,0585680473467133
0,0565409760761305
0,0571207979084334
0,0565070590766888
0,0557386087227356
0,0609795521517843
0,0596568688025766
0,0583900292739245
0,0554181637990917
0,0569329510955062
0,0565026552263945
0,0568009436384198
0,0561362557754638
0,0579705704238084
0,0589974441634777
0,0587896526457464
0,0574070236119412
0,0569559714984019
0,0567385096200898
0,0608678959669995
0,056592902712232
0,0583581364238365
0,0582759935534977
0,0596434619243919
0,0550986091377576
0,0585699186476926
0,0592653952903281
0,0608944233976629
0,0593590340887524
0,0621166395318269
0,0582320734187052
0,0610673592841368
0,0569149746900996
0,0575583207247191
0,0608525957861469
0,0592980582901133
0,0575471130836511
0,0604018478714844
0,0573590647640529
0,0611543837880362
0,0604065432121342
0,0584430874714447
0,0586596696938125
0,0606199205767426
0,0616773902042838
0,0585926531180609
0,0611102048845387
0,0617602357860615
0,057753348577677
0,0604220262174928
0,0551130115610691
0,0591798963396005
0,059156101458928
0,0585799300304387
0,0595108287749077
0,0578374362243393
0,0629902518710851
0,059736761501034
0,0596251733483948
0,0597213303246824
0,0585628098940387
0,0601669903691004
0,0600161836375106
0,0591898053366809
0,0613872545018207
0,0612214246170194
0,0579160880923077
0,0608159641593745
0,0610152147815674
0,0612263144451864
0,0580640149963397
0,0618123613778601
0,0592013337775905
0,0610953053544297
0,0608006205741372
0,0609251023411129
0,0625172903852596
0,0624078686847442
0,0610833972883852
0,0621708806067082
0,06541576100892
0,0598285759544934
0,0611346241179901
0,0624939462188661
0,0614731787735726
0,0621015919673844
0,0576685999999838
0,0629973612291654
0,0622931216274522
0,0624563349300482
0,0581212793373033
0,0626479134094613
0,0663328967208755
0,0636634128134695
0,0629178509366435
0,0646071137493432
0,0618282944183649
0,0602937339913958
0,0633562677328269
0,0662521806736023
0,0635385323607648
0,062869283593896
0,064042441835129
0,0604543616416947
0,0631349944039547
0,0646293739524017
0,0645613409022013
0,0636162554603775
0,0615529005638117
0,0632695846550045
0,0623405740680073
0,064888138321876
0,0609942932276739
0,0622075627392235
0,0638171769816087
0,0634412937969085
0,0632452412912436
0,062825512884421
0,0646292292085956
0,0640509941760403
0,0652033980688202
0,0631615041076107
0,0663319896303369
0,0664312144328887
0,0638130985498085
0,0641241128646195
0,063704633559362
0,0650576341884249
0,0633315206227917
0,0642926681121877
0,0654439443245943
0,0683461445788816
0,065682435126478
0,0645397383044516
0,0649788027501947
0,0663680582253619
0,0652619125703045
0,0647303229637948
0,0638819730018343
0,067447481465248
0,0667688562140354
0,0660057842449452
0,0657739627254153
0,0680782489678332
0,0666320643952817
0,0659983371462407
0,063702963056561
0,0662194902183442
0,0679930238234517
0,0673023422710085
0,066401995084173
0,0674122341022825
0,0681906807183576
0,0692794888940658
0,0669277345483796
0,0645464999737162
0,0669858994402828
0,0674986003046709
0,068832393853241
0,0674551098400471
0,0684126325655617
0,0707346624570936
0,0689319306184881
0,0693151005152173
0,0694684971350112
0,067038520653823
0,0698759168174961
0,0692623502278498
0,0707296725060021
0,0690463992353291
0,0694424217250341
0,0676891956921959
0,0684106553038608
0,06926693812034
0,0705924762073396
0,0709772389059781
0,0699852802438374
0,0696463826928111
0,0711621149537391
0,0694181882709807
0,071593108373734
0,069276535475518
0,073453238924283
0,0742074704934625
0,0719437050911444
0,0723124700220877
0,0735152433469396
0,0716357151772555
0,0722642702817827
0,071726409346322
0,0730755966113553
0,0751668229031762
0,0737997609540248
0,0735929931888576
0,0713062198383431
0,0711710828000756
0,0725869672898818
0,0717774208927255
0,073489471991133
0,0741095271236616
0,071394028911954
0,0716320309603426
0,0720011138788789
0,0743488987997837
0,0772905215896712
0,0729606362141436
0,0746577626117106
0,0735850106935649
0,0721259960839997
0,0740194283112131
0,0758691201626457
0,0742439586242535
0,0756948107958498
0,0746402486548343
0,0760268491475184
0,0784772003084338
0,0782811315213994
0,0778642547793408
0,0775169370047485
0,0766282490577077
0,0817261342549661
0,0765833270431606
0,0786828226848226
0,0738329770938239
0,0797458549196945
0,0756578813575261
0,0745217201584039
0,077024164139101
0,0797809194821457
0,0744206431703092
0,0777183256097823
0,0762788241623513
0,0773559085092665
0,077645361986237
0,0885334148466651
0,0800599969294688
0,0801773725759962
0,0772817466593136
0,0773168917892554
0,0774878897006989
0,0819787659735554
0,0739052273117542
0,0797747164427194
0,0753520383689052
0,082276421875895
0,07816117774307
0,0816941763950609
0,0739968708087731
0,086995482904867
0,0750603194358663
0,0847322067096256
0,0781949971000727
0,0840039375442721
0,0737456120389882
0,0873256959940578
0,0740408762171327
0,0916712547931282
0,0753700447657838
0,0939432220668719
0,075784045609772
0,0854021381338938
0,0743356611145157
0,0890489136019268
0,074332469917973
0,0909674367341141
0,0730179472553694
0,0946265216651386
0,0775858184958899
0,0868088601735839
0,0748109439688617
0,0893377238820567
0,0824191334683524
0,091899967778686
0,0807294273014229
0,0818829237386701
0,0853736051906619
0,0864867654845193
0,0876527962005596
0,0775686560619038
0,0976357109471147
0,0735687314079628
0,0989947072734235
0,0745512358444371
0,100621213965275
0,0742940509090631
0,100933550183698
0,0752520074076607
0,094950658836887
0,0810984393122796
0,0946785835272565
0,0831674597707221
0,0922389301345767
0,0882993660287589
0,0888010001034145
0,0866343864719342
0,0889077636026735
0,089674374259532
0,0917104991406072
0,0875228087105933
0,0910042546923626
0,0859265739811191
0,0921005349398529
0,0859861109588151
0,0931526906731863
0,0883011690189838
0,093538912037808
0,0874806395774094
0,0914395277987359
0,0903798744746607
0,0924170358305883
0,0898801872962844
0,0956765126879199
0,0889347359147688
0,0952880961532724
0,0902732014089214
0,092995757979155
0,0907445373640787
0,0963981698363092
0,0917215810447296
0,0935132738991449
0,0935478486904264
0,0958314537221255
0,0922093075937939
0,0969859595559374
0,0922083971343641
0,0949192589838452
0,0953010233581881
0,0986681177877675
0,093891172570448
0,0982383281590658
0,0964678893080497
0,0964103169146748
0,0954789680238647
0,0995305860357581
0,0951191827569452
0,100148088446914
0,0950545159178378
0,0983286601881814
0,096965451400757
0,0981327514685543
0,0965050173875049
0,100917891093873
0,0976363852988914
0,0993405779964359
0,096036307787303
0,101945120877765
0,0995226559258978
0,0994051367800027
0,0967289986667802
0,101402060527928
0,100773480764727
0,102572102882541
0,0994027736163351
0,101779582904898
0,101169345108659
0,104532986975992
0,101104193759301
0,103477119799664
0,102012566340329
0,106142217544134
0,104532533807551
0,105291284516662
0,102559979338117
0,104936609416159
0,10334370620753
0,105919103898316
0,105089883813683
0,105017654655789
0,103844740657167
0,106755968446325
0,103111645253127
0,10675130192931
0,106904956621821
0,109282475750814
0,105778527072819
0,107853335830788
0,107070278808037
0,108372638860452
0,107409210084131
0,109802448875525
0,108012306158219
0,110190498712962
0,107009257295506
0,110025611643261
0,111299533424656
0,111738733204288
0,111199230087402
0,111004744135476
0,10883057135166
0,113832688660617
0,110956091169568
0,111829814638443
0,110019353313498
0,112781938305324
0,110886940566585
0,111417370708886
0,111453517021127
0,113556286297057
0,110716353882423
0,113037695992199
0,113022459502272
0,11454634414666
0,113920782898953
0,115088572512617
0,111843877448429
0,116624051844197
0,114459533157275
0,117139199389225
0,116089333935077
0,115069991850534
0,115829853679358
0,119504141924943
0,1172017898787
0,119015231181154
0,11529427998078
0,118704097610364
0,117291445268783
0,118037075238741
0,118826145534316
0,119369033313401
0,11827294655953
0,117889717128099
0,115588525916357
0,12132589369808
0,11678641647002
0,11932132962403
0,119755594729018
0,119216035788874
0,118811686195032
0,12297632620902
0,121743731678933
0,119940817093717
0,120152680781176
0,122196405589349
0,120935363667428
0,122187178844052
0,121254106128496
0,12539245710615
0,120645607394815
0,121926922693207
0,123634150998053
0,125167002462751
0,121676797360489
0,122019747486302
0,12356383420837
0,123820122878469
0,119964913842692
0,125714764984392
0,124017225748953
0,124565552433063
0,123331586776883
0,124308397476289
0,126554900171139
0,127117173577179
0,126067056007383
0,128567802470968
0,124820752924903
0,125831326825354
0,12517895084839
0,126926866641219
0,125645559053628
0,12552485062663
0,125846427039653
0,127151224230269
0,126692498121206
0,129459163073781
0,128543738732187
0,129339624570426
0,123863510471385
0,126311079840243
0,127767711992212
0,129623120788918
0,126580571917004
0,126508759230532
0,129152496413624
0,128965116860188
0,12669788423356
0,130209929397807
0,128090206065104
0,128289889986309
0,128266506813646
0,130300767682652
0,127253763376977
0,128198880484385
0,130466274945312
0,130286608069978
0,128877913455351
0,130379871212169
0,12876102652707
0,129651485694366
0,129070365530217
0,130670208881369
0,127758093871604
0,128364856060206
0,126170180653223
0,127380555213083
0,128660825812189
0,132864266406975
0,130529857694198
0,12772613277371
0,126779741685987
0,128726295841013
0,128367449253826
0,129143344091513
0,129360083907986
0,12901285210332
0,127550158190533
0,131685190554579
0,127699560264883
0,128086228686115
0,127483966005923
0,12748656598069
0,126757065480029
0,128943052148685
0,128265195723401
0,128361960512181
0,128602413096343
0,129705655696454
0,128581692567893
0,128706563767551
0,128953432609385
0,128179546095331
0,127409555935111
0,128769810277887
0,126709605526447
0,127725405977411
0,128108041316578
0,129363787593224
0,128111855861984
0,12701502587507
0,125374953239677
0,127479128868778
0,125227317206804
0,125685367070578
0,125523734882123
0,126094646851701
0,126527994275347
0,12634646761237
0,122873397256891
0,124952850666929
0,124409830343504
0,121750659865928
0,124211386386491
0,125698475510808
0,126027309337081
0,127196769935331
0,123308918232599
0,123470553497377
0,123136484927146
0,123298145683685
0,121548380554849
0,124599660229416
0,122979313140277
0,124736380416367
0,123626822965549
0,124062888056901
0,123900563648758
0,124796956067108
0,121089826314251
0,120868508976286
0,121314176889998
0,121151925375845
0,121111449662486
0,122164548644614
0,120022129436829
0,121159884600406
0,119388823476994
0,120922636443465
0,120508827726927
0,118727771082119
0,12078454720652
0,118771472495267
0,117287306744232
0,118699728208077
0,11893422209057
0,117306068015753
0,116349621534365
0,118049112933912
0,118471578038727
0,116305858424856
0,114452007689736
0,115716846288607
0,11614433341216
0,11713147698656
0,112861051573471
0,114923844463242
0,116860376740311
0,118877788930089
0,116395420622601
0,11416443092568
0,114331615883438
0,113460864461694
0,110876572103443
0,113459343779196
0,11308615385644
0,114820339775986
0,11102179978429
0,111890180321205
0,113684714542376
0,112070527751715
0,111316201395347
0,114771111897961
0,111264426807635
0,108247603799284
0,109521029848603
0,110832092281758
0,108182912634976
0,107998567485768
0,108200852042727
0,108700989901834
0,108354203425908
0,107282261137514
0,107500042836191
0,108924049472324
0,106300385432255
0,105511052715985
0,105600626431817
0,107017096497879
0,107559460368102
0,106481601601181
0,106592569080176
0,105476358463252
0,104780330658217
0,104206364706163
0,105710340295404
0,103188792856954
0,103511852536512
0,103066187615618
0,104244418577889
0,103028397323503
0,106364520066135
0,104257093317841
0,101124088275173
0,104162543196759
0,101324596123981
0,101402432219634
0,101573909793505
0,102658240075241
0,0998681565990287
0,100441804244784
0,0993291487081669
0,100113997229549
0,0984952525819146
0,0984193749198537
0,099724182927724
0,098353771909337
0,0982574416455851
0,0993060148888076
0,0965621036545746
0,098482956309994
0,0989478572371548
0,097280965049933
0,0951783533606514
0,0964871797950115
0,0977515285825196
0,0967055001012202
0,0952522674621809
0,0973579098908843
0,0940803137922699
0,0957095073721001
0,0948617513451384
0,0963685254649155
0,0939561841698793
0,0951674978893832
0,0937340357210016
0,0927797818779269
0,0933090067067608
0,0945172916725064
0,0932535597234325
0,0918058826132611
0,0910524483374422
0,0933028252939602
0,0904554108402472
0,0917730936983389
0,0887706918942933
0,0928453810629569
0,0908374973887179
0,0934505967953015
0,0900074910473555
0,0920021311507011
0,0875728998734268
0,0933353711453476
0,092431430616464
0,0909078846469115
0,0913320389554225
0,0892926375419227
0,0885735166970354
0,088405367206575
0,0894738678081662
0,0878730550523385
0,0869661572539127
0,0872738525905459
0,0885348072795903
0,0868951873454338
0,0869487865536446
0,0873312944324964
0,0856718847989923
0,0878550855342721
0,0882994339841005
0,086593252309745
0,086754534998552
0,0861061595712525
0,0854186475728454
0,0861312678737567
0,0870845234599248
0,0890286316664271
0,0836939113100639
0,0861645555396512
0,0907320661571032
0,0851981201311781
0,088577117942976
0,0828188784136792
0,0860126632187372
0,0845785541190927
0,0838056028358956
0,0814028404719964
0,0863038022685064
0,0838829130500704
0,0856198335578622
0,0860245402190965
0,0816698473103344
0,0834241829795854
0,0821269302025509
0,0827447950025545
0,0812416175014088
0,0831242971433386
0,0823554451840426
0,0817898304445219
0,0830052546762593
0,0834700794602631
0,0815235562980314
0,0828626196305805
0,0833793512993995
0,0828006729963418
0,0847276154653416
0,0817157478297362
0,083699535034556
0,0835191632587863
0,0835016985772633
0,0845962698896378
0,0817163186588549
0,0828650901882984
0,0796198253409545
0,0834570576035521
0,0790476634472919
0,0813723114664793
0,0809694162125302
0,0826436014564347
0,0828206799991614
0,0843332280365693
0,0789652315705536
0,0815777320637689
0,0804120751414238
0,0806290595524985
0,079738762973183
0,0796323296226235
0,0830134082983875
0,0815629947258651
0,0831257798342492
0,0803623720577983
0,0839288613709018
0,0837076918804009
0,0843353884271095
0,0819810253088582
0,082227239735221
0,0795862684408915
0,0809286468380738
0,0813553930581331
0,0802145535683779
0,081352677013551
0,0820536324736226
0,0815833830634107
0,0806357808804066
0,0841172491680578
0,0819554890276632
0,0843657312716675
0,0810706935645383
0,0827300290869386
0,0780869549326946
0,0850973522432436
0,0827038055138602
0,0828200647053443
0,0789604542947556
0,0852712579835917
0,0813228106890249
0,085408845126701
0,0769684336378842
0,091697313196588
0,0839668358889065
0,0879539731283524
0,0830279050545545
0,0812939766418618
0,0807549658701977
0,0843611117269038
0,0835422434274657
0,0832019708454759
0,0825671540015401
0,0820281675124662
0,0814591817966032
0,0847186064344169
0,0836748502138387
0,0830291606308754
0,086434414306874
0,0868008843107342
0,084347114356046
0,0854576330814597
0,0809458940544841
0,0872070204275663
0,0899718930769295
0,0848611014438243
0,086197598844829
0,0819387874609722
0,0877605900708649
0,0836287714429122
0,087061683024631
0,0857567980768166
0,088696686441845
0,0877676705860771
0,0862136784021714
0,0878462116800736
0,0872022233128752
0,088818272749088
0,0837061934665439
0,0889082046359423
0,090170902019261
0,0896430209313345
0,0895540698562064
0,0892134305284435
0,0883394002924658
0,0864795837721349
0,0930880006317049
0,0887676710380553
0,092831317418338
0,0898725448649827
0,0871547555984143
0,0933741173662864
0,0926271378143622
0,0916530174882124
0,0931224263201012
0,0925536129838481
0,0956607112463087
0,089955006555612
0,0975819086972132
0,0945117697818016
0,0959699964452735
0,10432230532543
0,0932128124420744
0,099259641728209
0,0930387620277209
0,0994966826459122
0,0930782830417493
0,104652224832031
0,0958199288305909
0,10109149263139
0,0965259190861727
0,102747913937022
0,0988815628099361
0,102532549378524
0,102459099822929
0,103507706608659
0,0973798211701732
0,105322313534103
0,102391666707735
0,107613709055776
0,108891580961993
0,107788776827201
0,114068506890854
0,104955193347808
0,107030389794188
0,112592235120131
0,104720184399803
0,113044904607412
0,108593106621691
0,114161940811938
0,110113094724851
0,1150217848765
0,11796009881585
0,117702172881128
0,117443164697761
0,119498905185102
0,115946654246424
0,126600548731648
0,120096200349144
0,124131843855386
0,121588061132742
0,12618344121173
0,121229518970429
0,134436656616228
0,120886629247529
0,139987745602633
0,131780253680954
0,132180854713245
0,134602174890145
0,133103792244182
0,135966302556458
0,135741076944711
0,14226107549651
0,140467429583213
0,141587155675496
0,144672168751652
0,148896797602298
0,144455944290024
0,152645343444225
0,145677958112077
0,153470171234648
0,154137968129936
0,165961504433862
0,163811240861712
0,160923493707421
0,160379646541823
0,169965038486815
0,167956051119811
0,174756859658014
0,169018741602518
0,176811904029679
0,177949763025541
0,178461694258606
0,182862697703588
0,183522980111219
0,185448210767442
0,189571958549136
0,190647894765463
0,199261327683001
0,200232040506961
0,210156268913595
0,206017012634166
0,220052330975526
0,203247472649577
0,220206485729129
0,213741238780954
0,223466619568813
0,227129493123776
0,232868587676175
0,239818791858113
0,242423841889784
0,246942939882805
0,249676727022989
0,256274547211479
0,26491233765547
0,261210867115085
0,267990543894281
0,266035454652716
0,302658804570507
0,258610797403889
0,304088527144171
0,279720652937737
0,305055402950744
0,303062517661248
0,310965698161448
0,317237667743059
0,321943973422042
0,32614751013419
0,335537802243095
0,339063638076539
0,351184713470884
0,350117471370857
0,361098909232263
0,361648026410647
0,378967769958292
0,386483217510538
0,406607113213634
0,395497699025466
0,399354052062762
0,404371925966643
0,410922799109805
0,420471016711879
0,428083853406451
0,426268313574424
0,43665924731494
0,455097882811652
0,456711570548752
0,467254359402357
0,464094888276253
0,47903033455089
0,484751226161996
0,492062576706549
0,496083485430536
0,513096556461554
0,506063184203006
0,515062262257505
0,525175987905757
0,528734445670045
0,535923151304109
0,543535686458862
0,565694235868761
0,555361614057644
0,565788284135182
0,56595639611101
0,587610093003282
0,583117365841125
0,597991847785939
0,600840243870415
0,607253021308423
0,656132781622057
0,694000922284678
0,642604667137801
0,62775836494349
0,63603008073039
0,64049206172394
0,659168379597527
0,666065137722396
0,673464353924769
0,670383818708015
0,660687778459501
0,673143715058854
0,673940095704433
0,681073333177862
0,678867935174978
0,689863710829932
0,684451716931908
0,692938067570043
0,700329436089587
0,689556012199461
0,701311065649383
0,703455761803959
0,681213186288587
0,682544092843943
0,678327108146745
0,681885185821454
0,672890919531539
0,684805935265994
0,672404534861219
0,658229014637223
0,663752733819884
0,656368109680428
0,631312494393251
0,652130740852476
0,630726484508387
0,63415256771616
0,620737825101936
0,614210369102747
0,601056193783582
0,610784030440361
0,609648323554703
0,59787953003423
0,580358855243107
0,581319784033335
0,564403868325068
0,556564105399117
0,552453243082654
0,547697572642108
0,526286502942794
0,529214458947767
0,511473489925995
0,525164057881181
0,503869094120307
0,495516926522092
0,480857773009475
0,48896905355117
0,467169869017024
0,480261365078006
0,464601204393486
0,452838674674971
0,450189301661173
0,449132141863499
0,436458966917736
0,435817511656305
0,426472393024292
0,425571326515371
0,416789286394146
0,412368082541571
0,39881402554327
0,405056581029029
0,396978281932008
0,391744459511251
0,38300797874568
0,387709618407532
0,376841741237496
0,376703605670498
0,36948256659298
0,368383142176035
0,363007635374873
0,360089450436352
0,355542336304425
0,351433707241466
0,361819181533204
0,351302857674655
0,354338659284166
0,342463695381317
0,334947971261494
0,34541904953729
0,325341569567931
0,334326025349764
0,329080795238254
0,329138997170282
0,327959304338576
0,318653143192461
0,315455344326946
0,315797804328856
0,314006679730677
0,311396294264269
0,30393881621074
0,314000285449303
0,317488165869664
0,304120986694096
0,31811180515333
0,314131177463182
0,302696489720833
0,291020672057349
0,30898167590239
0,294724352415578
0,29519645764827
0,281970647652559
0,292209065365913
0,285510009951089
0,291121006593733
0,285856927488316
0,275215681588884
0,28028385760321
0,282460265813924
0,277900824112215
0,27693960856574
0,280599970106892
0,27858905254277
0,280885077513865
0,280709464833581
0,274859758275648
0,272586497502378
0,264420344598354
0,264624279087448
0,263921840487904
0,269744476600356
0,26218365465107
0,266761363021621
0,259442425799245
0,25616629529064
0,260493224030294
0,261004177292255
0,261338977770391
0,250717020099023
0,27003197505892
0,245662923042803
0,258664325900288
0,253854061565456
0,264696274567592
0,269311436842942
0,261093100465263
0,248829790619665
0,248424695818876
0,26576383379509
0,251967752601961
0,248921040679018
0,244294943337267
0,24266050675623
0,248705188283541
0,244100011246451
0,24228740010965
0,24357324845309
0,241642421564095
0,248281369463843
0,252322630892368
0,26324376326863
0,248997076115238
0,2372789282096
0,240161518977314
0,234334788446256
0,235343345452988
0,226828872007993
0,236272550345625
0,240835612261153
0,227471432841846
0,242484556698207
0,229247435968805
0,232941312274009
0,233253384765441
0,230385006541251
0,231155141346641
0,231042708983168
0,231748223823287
0,233638663042591
0,229448190894813
0,232395389771427
0,228105138789002
0,228944964068187
0,224231717491659
0,228708694333409
0,225282094632797
0,230955697450921
0,229381488661158
0,224203974071285
0,221039060742452
0,227885648812227
0,225561529292016
0,238377584504545
0,221483375571067
0,233582575838421
0,225003527816975
0,234973307196403
0,233855893753992
0,227627381992586
0,230020925740177
0,225739268566735
0,23128476067882
0,225971020043107
0,225130667724076
0,238983917278622
0,225533086880419
0,230614099255253
0,225371616188972
0,230329780709001
0,221761768663855
0,22520006080707
0,225089028926299
0,233160628465853
0,248592629069525
0,227222158628763
0,233267432656729
0,225463586776121
0,229085918960026
0,22766627355754
0,223168114524442
0,228062498705591
0,221100266477996
0,230504301631421
0,230249075699401
0,227954822423923
0,226325307358748
0,22358101538757
0,230962055522316
0,225301659156163
0,227170254205826
0,223128158875603
0,224675004440831
0,222981306084335
0,221899932052584
0,233130375978068
0,230115754249939
0,228984965378096
0,222821774857457
0,222203645671797
0,230017852670821
0,220819530536103
0,229192037832372
0,227173295777035
0,224902846058618
0,224963039553118
0,225413536523197
0,227201533630033
0,224264627074989
0,229610156947242
0,224864107112269
0,225528784470384
0,226512694853991
0,220064124184704
0,247786238401109
0,222314500984804
0,232906332467447
0,222303414792176
0,226874212909312
0,219003433939555
0,228104601159926
0,226519146564546
0,230285808219817
0,222255633487443
0,224788553408174
0,225480304904728
0,225556787242437
0,228033071184268
0,225505333301202
0,229426896980072
0,226199838516827
0,220553406866283
0,226808017998643
0,224580880105228
0,221473298989245
0,223570162027935
0,228460303357506
0,22059361981078
0,226912786412154
0,220875319171025
0,232123378274289
0,227720262949419
0,227713231868006
0,222735958432168
0,223108725661688
0,221691205419744
0,225822734976507
0,218571747714419
0,235444186040122
0,224763267394438
0,226659710540464
0,224164860766237
0,224166019658466
0,224303765066426
0,227733566972343
0,224502963905897
0,225993122804836
0,221214180088094
0,230295341095598
0,225670054843762
0,227611216888045
0,222540421354057
0,225941901878801
0,224361460734296
0,226313689993947
0,22122964541354
0,227781652451627
0,222684651414789
0,2283685535709
0,221959256709248
0,224207845328132
0,219326761986712
0,226018890853472
0,21746673686221
0,226832384074039
0,221617236340182
0,22147239243523
0,226645590446937
0,219064461936135
0,221659875073096
0,220315443112298
0,222830848554522
0,219028440223855
0,221034335412156
0,220234652867087
0,216776605554271
0,223168537849222
0,219922017887998
0,221565732327735
0,219572604292085
0,219915943700019
0,217733583256249
0,222425023302794
0,219658760761879
0,221022116551327
0,219003113702708
0,219277548914154
0,219987063775261
0,22052912467888
0,222483433143536
0,219515317493472
0,225303921613074
0,21870855066269
0,220902612064019
0,220144960936916
0,22062289792394
0,218215444302597
0,2136033290763
0,213446735775567
0,218272547529983
0,218251171593882
0,219164811154915
0,217575909075733
0,216808830215864
0,218833854394519
0,217136224277537
0,218341758247631
0,21739867170159
0,216087536158789
0,217193603283397
0,217718375927167
0,217564553378535
0,219527742502083
0,215236385498966
0,220065926446533
0,218778215364402
0,217574019235579
0,217527075370983
0,219016150766783
0,216362930374476
0,218670234440625
0,216031705325533
0,218434792975699
0,215728664739629
0,219889391815984
0,21651194388514
0,216449051485321
0,216310511332393
0,217853383057847
0,218829036897152
0,214480668201722
0,216483881119607
0,213349330086809
0,214561891871354
0,213529687238621
0,214283187975013
0,214782110331876
0,215427034039087
0,216975204332477
0,213617920631291
0,213721665299188
0,212047520557532
0,215150862126023
0,214050028629557
0,216588222998148
0,214351294478934
0,214701353959303
0,214561152917805
0,213583069627277
0,214300077556203
0,216201329551492
0,214021858924048
0,21318818313885
0,214343689400244
0,212536550696711
0,213552032002246
0,214394497631101
0,210864138652127
0,214921823738609
0,214417329787508
0,214413082634612
0,213765810710329
0,212905839909527
0,213590560108601
0,216324447522861
0,216750071790488
0,216670519726383
0,215040158147001
0,214598562619714
0,212622459286328
0,214903965075557
0,214374751539739
0,214147151352416
0,215214994362695
0,215855137585206
0,213591444585869
0,216881974122219
0,215875775751183
0,21409511936691
0,214817821090017
0,214026366124973
0,213652815970404
0,215610054882795
0,215280088116803
0,214133851396687
0,215319817200868
0,214750816540353
0,212327908330765
0,213377792117632
0,212854711587142
0,214335022815934
0,214284275196138
0,215210373807434
0,214140629761588
0,212469197168343
0,214028671422951
0,211808003396757
0,213440824790137
0,214366938880559
0,211756952622662
0,212105255498036
0,212841775900665
0,21260764212283
0,213651342130913
0,213778670220527
0,210732389827099
0,213405684569739
0,209614837780248
0,212487573841373
0,213094291387237
0,212614764109647
0,212532019947705
0,211686863414774
0,209215612982048
0,212473756688996
0,212629060672268
0,211053317852298
0,209893383607998
0,21223116971013
0,211093106907937
0,209426707308468
0,210127729367658
0,209358244547639
0,209703772152721
0,210880669209385
0,209641281653652
0,209212564022125
0,207919384189171
0,20811000899851
0,207582467372035
0,20918454022655
0,207557291213952
0,207469516886735
0,208574683691468
0,208529161358748
0,210382371487351
0,208383470315649
0,209088089691911
0,207226441864808
0,207973615208778
0,209900532373818
0,208499612283209
0,208347995642055
0,20583871691562
0,205885294410554
0,208102978378219
0,20635406463962
0,204794841901285
0,207645084658755
0,207558993939648
0,20669321914383
0,204393074527068
0,205573464496401
0,205147095352314
0,20765299557113
0,205502020504804
0,206664242636917
0,205207030988649
0,20786542573115
0,206237422248589
0,207017701256541
0,205476201893985
0,207524169695504
0,207539668381098
0,208878481610624
0,209856010600193
0,210004436949288
0,211096378229682
0,212569760654294
0,211457923451222
0,214242063726966
0,21350233082476
0,214844831343215
0,215532339901647
0,217348593851829
0,218590332930563
0,219165518838054
0,219567422340445
0,222433657584797
0,220797789330978
0,224099643331417
0,226348502947864
0,228002037473467
0,226577475750336
0,228000703254689
0,227298927481283
0,229053962503831
0,227492033774003
0,226367547538862
0,227521865822259
0,22729227335396
0,227620077939811
0,227630094437988
0,229372541493522
0,227525692000619
0,228259954021766
0,226422395739997
0,223937657387306
0,225618465520314
0,225242101721788
0,228896197159696
0,227388042762801
0,226103935678479
0,223390655434799
0,224769796453747
0,225215528786443
0,22423396304953
0,223150437793022
0,227299397667249
0,226226575670503
0,226566666691213
0,227991624635112
0,227345326432244
0,228449464282723
0,229088645918509
0,227473357907627
0,232049157698916
0,230632462049294
0,232856895426392
0,235420879243328
0,23275672764414
0,235809146954514
0,237853346406302
0,238710426968187
0,239129394609071
0,239775144971188
0,241787150961284
0,241149550350828
0,240641316998759
0,239168213323164
0,242723382167144
0,239341310560008
0,239751588821225
0,240385332232221
0,239075737069036
0,237696828627149
0,239475053933289
0,236723049207608
0,237204883657152
0,234547797374997
0,236262763690269
0,236169944503903
0,238611488228401
0,241272039627245
0,240063035902479
0,242696362540958
0,243487165476987
0,248624575506326
0,247280871723823
0,248138176723309
0,247335757271082
0,249569327012817
0,249554548447505
0,252947595703879
0,25467395631736
0,253992541742059
0,255104864478469
0,256968394439076
0,257480830453468
0,258446307033891
0,259320756089039
0,263443155727737
0,261485685149726
0,26452762584487
0,26772715396332
0,270373693561228
0,271742128592993
0,271849193830502
0,275799853139094
0,278295916105798
0,277897264978736
0,276185636671667
0,281152646119161
0,279907258607038
0,278844146915418
0,279773974784434
0,281447904518133
0,27819617498468
0,280442406630946
0,279401850303815
0,279313044098321
0,280302501120554
0,274700858442448
0,274584653409664
0,269035600352589
0,266760328121086
0,268215108072356
0,266465408286757
0,266639023306323
0,268254785575717
0,267864650536574
0,265584623476368
0,266643990111118
0,265791432897606
0,269243922991208
0,269168115252261
0,264259019983013
0,266214524600005
0,273440525390217
0,274404808257127
0,270665110866395
0,272722140316273
0,2727473399796
0,275140527653662
0,277028811862902
0,275185291114306
0,275274061974429
0,277263581599169
0,279590334998012
0,278302939369703
0,278426815157697
0,277811882860529
0,28067026341152
0,278195227217051
0,278455162677424
0,278894926292042
0,278133872827836
0,278466743863287
0,275961452973418
0,278626610381928
0,27814529105541
0,277124439900224
0,277752219423584
0,276111320915726
0,277325718013823
0,271032400880682
0,272737170935473
0,275389682845034
0,273124013167962
0,270426955961404
0,269170429250091
0,271329184205562
0,26941716866027
0,268817582876953
0,268864747280652
0,265436686035253
0,261499132025032
0,261257872836476
0,260890454442552
0,258686316671294
0,25779147572897
0,251642424764291
0,253541342491198
0,251338204299381
0,25164397483416
0,253230268397612
0,250452435888104
0,249412756103327
0,247518641475458
0,249693221011395
0,252874924856154
0,249112358349417
0,25098240979727
0,253146093132458
0,252470749265811
0,255587834937089
0,256260319940279
0,254660762670524
0,256703270494589
0,254529814870636
0,255975365776266
0,255493587114466
0,255348091377275
0,257001950805926
0,25702099988798
0,25541112793377
0,255896730991948
0,254598757522815
0,255613061763073
0,259040267449682
0,257413102096345
0,257365027592484
0,256842122339491
0,254266030469533
0,256072479738802
0,256185280032122
0,255927817602102
0,256905654282528
0,257237041612113
0,258721232206945
0,257396861871321
0,255548845508061
0,257114610074963
0,260021233875496
0,257053211100357
0,258945192784544
0,260846779061912
0,257830473799494
0,258740082210791
0,261360281667129
0,261791597085437
0,264812341771808
0,264401440224788
0,265462010369138
0,26566424028181
0,265482835464918
0,264634661285574
0,267744101963135
0,270225687281478
0,269811459780236
0,271730500629754
0,273944350814822
0,276308289426864
0,277207771545683
0,274951183378549
0,280702528782205
0,279955905867111
0,282646164422962
0,284529882614949
0,286778381945322
0,287600134323919
0,286112205672903
0,286502886692375
0,286148935988278
0,286133522413172
0,289520924538722
0,290436788347688
0,29045339280278
0,292502898431561
0,296953136357498
0,296383448007955
0,300249976367856
0,304239489312998
0,3057243010405
0,305694651547124
0,307732601856345
0,309120920223434
0,308679010346182
0,311446614218994
0,310203973631393
0,310396568560021
0,312218191408985
0,315194551116132
0,321858323632558
0,322595860459848
0,324660836170439
0,32447775013641
0,324168186287422
0,327715594738327
0,33465547190706
0,33527724850259
0,332113454977293
0,330410407799632
0,337550751024365
0,336984833260353
0,341390707168645
0,344920096108228
0,343982663754603
0,346658076637935
0,350523993228588
0,352079828392747
0,357930949531549
0,361738190169968
0,363058146672374
0,362313486332382
0,370317978911477
0,365463627788962
0,368095698043142
0,378882393668857
0,378675864419429
0,379115690663737
0,384782857282902
0,385762542638947
0,382225596998251
0,385292185766265
0,396081871350202
0,398572884129282
0,399116101732207
0,400544933112925
0,405764548031248
0,404365438917622
0,408430496789229
0,412076733088912
0,411610955017831
0,413622983474626
0,422656912243633
0,424812141862455
0,424588420096824
0,428832532375421
0,435145794418974
0,430658078317814
0,436759442399477
0,442419232757154
0,444247072302337
0,445390656606722
0,44725281002306
0,450835969706675
0,463097881258562
0,45989447791721
0,457079896835765
0,457552254528593
0,47264102905878
0,470245285913872
0,4693000419428
0,470378553465879
0,475574584313214
0,480376390848556
0,490891179563015
0,501669859911316
0,495327169195657
0,48863407528546
0,496942252404544
0,494760110527754
0,50393429508857
0,509155271454901
0,509904115508235
0,513797928650448
0,525881222347739
0,525497514523699
0,52470329355576
0,530250302883473
0,532117225420304
0,539579781365316
0,553105427764184
0,541791425237711
0,546889527959301
0,543919079984005
0,55460257480662
0,556253502474828
0,561034218333097
0,573397737168625
0,568173458141831
0,572640725478025
0,574551089280427
0,560168339964409
0,590504429316719
0,588811806497198
0,589358296233878
0,599926063985758
0,57654208065999
0,59576859066101
0,620012262235292
0,601190382627585
0,60122438221896
0,62016686919631
0,630409653393335
0,613481156240502
0,614747634825704
0,622411383231372
0,624249181524076
0,638151765902129
0,647345779735339
0,643774176829373
0,638718703853297
0,645566076459174
0,650836031946476
0,642974638767296
0,658035304782937
0,669551697321786
0,685678361526452
0,664993747245569
0,6768295232382
0,691814143396904
0,673609274582931
0,675779256934918
0,700127149927162
0,680768643034485
0,698530298506309
0,726056371430809
0,715589683947071
0,711858512131713
0,706508441790654
0,699221033519341
0,756559257052432
0,737895327967622
0,724871447327686
0,752732680949237
0,744329566577425
0,732252897782388
0,757174580718468
0,744763387011071
0,76103136940289
0,770476122287507
0,768359724022449
0,764866819985276
0,761959474484996
0,7468506818884
0,792917916208693
0,787639590927455
0,758989038835233
0,772859389629675
0,797597263190946
0,798246868869381
0,839360865422739
0,835036702408557
0,846249478217823
0,825350121702765
0,872913349961568
0,858004132017428
0,837542558920551
0,849694465907726
0,836696368042803
0,840444933815134
0,865266232209262
0,84232029315907
0,818549379274556
0,890179705189485
0,89545058765064
0,843908954369431
0,862331686356532
0,851083079618196
0,876502666729869
0,842281503711784
0,864857525600767
0,891297306515688
0,893164403118041
0,873622889225206
0,873132477190008
0,883440034050678
0,903375912527732
0,913970187363027
0,9154377829708
0,910985224325741
0,938780558339001
0,946311495693717
0,947620562076108
0,940572788767947
0,90524266668655
0,934489389138943
1,04160459261743
0,942965506967632
0,91230461477732
0,935991504668457
0,980143107981142
0,964618697124907
1,00813155665507
1,00403660777218
1,02469356868563
0,997379820482605
0,957482145119854
1,01496887698948
0,973078362854102
1,02293324660358
1,11614917898214
1,02088863391374
1,03469834116878
0,901238665524954
0,885141260946125
1,06250764221183
1,15401888213347
1,10010952171416
0,975026629065062
0,965731697339915
0,962395192024846
0,978225075240274
1,00792559883288
0,991243059438081
1,134459572233
1,08807150926104
1,01998251720082
1,11498758135087
1,35997173224558
1,25881129874189
1,23264012803374
1,31686026562542
1,12171563249621
1,1646297330789
1,0810268097663
0,954508351295041
1,1148099713554
1,06568595298929
1,13078055729467
1,14855388348254
1,18243760572332
1,03791680108819
1,15849266049524
1,12754039397977
1,12529479371774
1,36194387894465
1,17624379965624
1,11288781727275
1,01594865015689
1,23827576943656
1,18294345401357
0,973635831044486
1,1872289893819
1,16537237885019
1,08430090782132
1,05482313411604
1,1554033669562
1,12032984749841
1,26214162679624
1,2079336213933
1,04779615369503
1,11065031447476
1,23574953796388
1,27552698304747
1,03201871233772
1,0847402354588
1,24557478538971
1,40410439750094
1,38820042114297
5
1,8202089477789
5
3,37951514669736
1,06147279791277
1,36065545213068
5
1,49459610807241
0,920824509874426
1,10839730924757
1,7621131861438
1,34048753362095
0,980887114358092
0,933017499628015
1,01869109070403
1,20912719331405
0,805013751442893
0,818412796418969
1,35554985725608
1,321494863111
5
5
1,67542034151257
1,29214015522346
1,38047671809713
1,52501058582473
5
1,34584456477396
1,17622479514631
5
5
5
5
3,23384355449011
1,21751587587345
0,510272281674394
0,68903682803624
1,59537690874135
5
