3596
4000,36533379555
650,420452594757
1
2
2
0,0103532990131402
0,0163384661675169
0,00836434823355742
0,0263911726475114
0,0140722641894447
0,0260749495388579
0,0194867171006465
0,0175893809923338
0,00590225495883359
0,0211015157837863
0,0140775999336533
0,0192852336242614
0,00864071275689577
0,0172811629535914
0,00940905028805901
0,018778194247546
0,0104231036888372
0,022090012650596
0,0151539737827833
0,0228632139511551
0,019223039435262
0,0177122444012487
0,012064118047876
0,0229372253125295
0,0154909352122352
0,0164353923762218
0,0127567522983772
0,0285029220002823
0,0122746059168459
0,0124667134235059
0,0170621055468176
0,0226858718039206
0,0140728301790411
0,0191774859133997
0,0165419389311138
0,0265087177059515
0,00933304912211907
0,0101026400860896
0,00918842451741065
0,0278902727516528
0,0158748575317931
0,0224488439336855
0,0112516715059751
0,0148943596857257
0,0226462878389302
0,0170226956911035
0,00719090049502861
0,0152261695627994
0,0147689969674052
0,0187078310335961
0,0175969578065704
0,0216132430654491
0,0224758118748419
0,0189874646612169
0,0117203111668542
0,0208902846775337
0,00533024356503442
0,0182157145745968
0,0184070325431793
0,0232048391593127
0,0185864756782021
0,02505998533378
0,0222179168855972
0,0200210831787912
0,0156776070587204
0,0199634220142052
0,00556155389177364
0,0237738161188764
0,0141052120812552
0,0289740811582621
0,0175474849732702
0,0304923405040885
0,000487275189092962
0,01957844481475
0,0131916067570902
0,013989953813638
0,011689960210048
0,0170060479418
0,0121805757499066
0,0367039993805682
0,0128948925621231
0,0253118881939947
0,0135977963880953
0,0230700019985984
0,0133502081785173
0,0302190243286826
0,00227343204262036
0,0338526481571591
0,00532241078508865
0,0204244951683575
0,0181718743224628
0,0293150877917048
0,00690338635666057
0,0220158522381868
0,00791650198525364
0,0245050012601607
0,0127522360427846
0,0298984041944683
0,00887564752455948
0,0294366549501517
0,00995621186476748
0,0204747761936298
0,0145258224709032
0,00547667881648489
0,043819697684692
0,00835440851802583
0,0208813055628113
0,0245978020530714
0,0101420222930171
0,0311496134942162
0,00689619160574602
0,0221642462219831
0,0167305834576399
0,0348792968850225
0,00463870823004479
0,0467592750021449
0,00571795111381336
0,0215142981699157
0,0118121941211198
0,0244090731217653
0,00308822272234988
0,0419377358377336
0,0154884167809868
0,0224330700862069
0,0148035569502165
0,0240107629018016
0,00842620967565639
0,0207779477462216
0,00521724838348704
0,0198977637155372
0,0146364219633774
0,0214167341162094
0,0131358588628545
0,0241872048419755
0,0293817978626269
0,0207943087942727
0,0221151264201556
0,0205967571599476
0,0230348664725224
0,0253004040644826
0,0125282676438587
0,020971665508911
0,00847395209964444
0,0226359610049649
0,00469225366562244
0,0201235749655815
0,0192448712715154
0,0199313397638497
0,00231862900977961
0,0202818809498742
0,0176439913630488
0,02594399576031
0,0120594472388825
0,0275021644148819
0,00502255866355886
0,0663197657545359
0,00969058410814242
0,0139319984792861
0,0286276575397651
0,00293372877331277
0,0333383174592229
0,0193260542849831
0,0179481919764424
0,0119054444983225
0,0237614780583772
0,0225764790163222
0,0192953179398625
0,0235094926626909
0,0201887292846507
0,0209846659183893
0,00846572247891676
0,0214357349034868
0,0129118538920628
0,0379678154024423
0,00413912919856873
0,0235900436859542
0,0190064645491301
0,0235897201168109
0,00759560769650085
0,014691767061681
0,0138610337021045
0,0210235714537737
0,0220442895259299
0,0260864796555871
0,0247768893956427
0,0294159427806484
0,0151209696479054
0,0213140953769079
0,0222755334068193
0,0214261745995238
0,0192287518613056
0,0232656966951565
0,012231457226183
0,0131514309456688
0,021852656937651
0,0125405381764757
0,0360924369930318
0,0231163576973105
0,0214813867065902
0,0252312673062437
0,0218640144668259
0,0210461505715652
0,0200451366568803
0,0276374187284379
0,0228444554767351
0,0168635006611802
0,039755567482102
0,00992638783171027
0,0289181166261657
0,019663146674707
0,0181081445299613
0,0146402933089831
0,033139871540174
0,0272714013434293
0,0119113433028334
0,0278303467596965
0,0116248686199654
0,021734863829058
0,0185947517854609
0,0257446504919039
0,0197510974583898
0,0242479246015125
0,0197792876182218
0,0193962046029236
0,0274606700595819
0,0357575247190452
0,0237274750254052
0,0193601702738322
0,0176958341356916
0,0271306024837479
0,0279205178015634
0,0220037844506453
0,0214260136762227
0,0291271276690201
0,0196624874439696
0,0284549874378036
0,0263769299465095
0,0207866848898876
0,0298360607004452
0,0197294546746085
0,0207841847546781
0,0270544868599331
0,0305755697811576
0,0259153588925352
0,0271002073982367
0,0243901142343898
0,0299623962625828
0,00975702032356781
0,0293780295782658
0,0196171169583334
0,0386639954182247
0,0272900271990968
0,0245132894872379
0,0290861546200748
0,0284873387739616
0,0272649305352981
0,0284297815825406
0,0391017628568388
0,0202189024874011
0,0272392953959687
0,0284524587674995
0,0324011565198012
0,0284171002687702
0,0423116671683505
0,0210930248216872
0,0415603200352404
0,0217282951936893
0,0272153081517177
0,0316294039310729
0,0269694888286602
0,0307916371732161
0,0426332152041257
0,0296954758517752
0,0718085814138452
0,0185521764798647
0,0324261932103414
0,0222208760836749
0,0394554093455392
0,0268170415529911
0,0419445466567408
0,0291800539154871
0,0391034583883066
0,0249801371338535
0,0133373858469257
0,0562462760644948
0,0196200070435288
0,0509323135743871
0,0335145465365899
0,0328099593014042
0,0379990453079677
0,0348340556496266
0,037571301252193
0,0419835826597516
0,0364087912535102
0,0325782745907641
0,0524306752182008
0,0381764300256969
0,0568945399834793
0,0317359460627508
0,0502707192629557
0,035906272166566
0,0515811567446804
0,0344600510573969
0,0456802127183612
0,0364918365448453
0,0538267436129742
0,0494707908252981
0,051494568865178
0,045634710107712
0,0495815418461341
0,0475913902399883
0,0625417626404469
0,0465450339706854
0,0557635477298324
0,0413583731537458
0,0522181357525543
0,0454364921856593
0,059034795676063
0,0453402609929057
0,069846799871296
0,0549942642608372
0,062037176378584
0,0559140822414873
0,0650606522405597
0,0638453116524876
0,0701452575280738
0,0653198797685794
0,0801373435883808
0,0763468133909585
0,0739228452340792
0,0743051305626191
0,0923266034871682
0,0589471946241174
0,0943572389530088
0,0774479301440199
0,0773985581932551
0,0874668937535232
0,0847677922794824
0,087084698344665
0,0893455535994286
0,0907797763612365
0,0968452539085758
0,0949827920281195
0,107492455011106
0,103225205329857
0,112321654895607
0,134206495886559
0,130740671135564
0,126234250112822
0,114890484559105
0,130094048751812
0,12466148428721
0,142227235304461
0,142608152837642
0,128101124922782
0,153842128868019
0,125441345398049
0,155102362025181
0,142669900292153
0,160139574585932
0,150494279778955
0,163643491663232
0,157424808909228
0,175534766640857
0,170017305020684
0,176182807979957
0,172711738681918
0,188750196937628
0,181171859504062
0,183587368672917
0,191473427416606
0,201968368085125
0,194034300830632
0,224339121142489
0,205092916788272
0,226693191801999
0,21919389579648
0,221022983521693
0,227092296197596
0,21005930611553
0,229830566934796
0,223783437439992
0,230768200059368
0,24626516516522
0,240008478376515
0,237122752139182
0,252871795538302
0,258904936537792
0,251782143227526
0,249513282198032
0,264921165619906
0,259377271688528
0,2749317013095
0,260085112278938
0,26292214797885
0,273923113140622
0,297510510533017
0,300914160013325
0,278774429379296
0,289648999151619
0,269657627477857
0,30053649316634
0,286664439989937
0,304833144008632
0,2957174156896
0,316129690964684
0,29196379807225
0,335627828214719
0,319095162969465
0,322877297823411
0,313251074740124
0,310303913436474
0,323943589267753
0,337541682188362
0,316813589927796
0,336845169689885
0,337013508627015
0,342827833179367
0,342794051084051
0,355900478444542
0,331592497878086
0,364801324270819
0,332556426501436
0,359346855690893
0,3617129439502
0,373465008310815
0,362721296586758
0,374442988445965
0,364348619907311
0,373252190823255
0,366425983151243
0,378324913338241
0,383797819946388
0,402131238559855
0,385345203813246
0,379122649423532
0,378443254326458
0,380099055876086
0,395412097943401
0,401707651006659
0,385510092125637
0,414461170997887
0,392511412149033
0,419249595994216
0,391801339793516
0,41690628786018
0,417674022303497
0,429249543394478
0,429205323842913
0,446321216582221
0,433170481465261
0,440827085317733
0,421092406574885
0,464454108085242
0,444294890060305
0,440382912260715
0,434718333294069
0,454355734081312
0,444123882171978
0,444603949997941
0,44500419068686
0,48051184251641
0,472541089532172
0,488024137026287
0,469707166034425
0,502598067133854
0,465291670355287
0,481426163062659
0,47919869294022
0,504508174712699
0,483066267763549
0,495411912516775
0,496708756663483
0,508411629863232
0,484134580454119
0,497142263161332
0,493404886436658
0,538160434791633
0,53466671853139
0,510772421177565
0,514646341797435
0,548410491678211
0,533684684323373
0,544650084643882
0,534984811448968
0,54947296019094
0,542117425183613
0,562378144072054
0,544991996914919
0,558461087654403
0,54878953314639
0,56635533111897
0,551939525664035
0,580424138679935
0,577576174748208
0,572641683640967
0,575071081381151
0,586871471249507
0,578811343685765
0,594346826685788
0,579865309330874
0,616454385759151
0,599303509013665
0,593751708857687
0,588638108598631
0,615093274848025
0,591452488637817
0,631057568808376
0,598402924462765
0,616985969481794
0,627558285017577
0,633289137489608
0,610149017765605
0,637886748288538
0,631082061589778
0,644493207694082
0,641564896566551
0,638004215172769
0,672746279880108
0,707878701100537
0,670375109434548
0,657752024400729
0,669658680086088
0,681946964789612
0,662898801206923
0,702611736815666
0,669695090350621
0,682531325013027
0,683004515918938
0,702512924880697
0,686125759011907
0,683790958163194
0,680527077741523
0,717180304872693
0,692500957126851
0,711995543533578
0,695166646034992
0,719962299331583
0,70062483662598
0,740976654089915
0,716920028123018
0,715792186498291
0,742320943485393
0,735441719504756
0,757947995346144
0,802886736088709
0,738161825934209
0,737593298740353
0,753856913053949
0,75792470667781
0,728251483693157
0,775104450369125
0,789097586757409
0,806673151106648
0,822796928288582
0,771833999407801
0,738759606348367
0,796524190024905
0,759152286833405
0,763732336080369
0,792037523845949
0,790298353041104
0,760531138081768
0,821155651384218
0,831437539790794
0,795172114194043
0,808192530184882
0,797569133356699
0,775253166839819
0,873776758399388
0,821342237685624
0,789934456203095
0,867952136119544
0,872317002860382
0,850686136608112
0,850060485871025
0,840891262455302
0,879730500442378
0,84606896606439
0,866350600005272
0,852681389573011
0,913349176165506
0,887970133802364
0,88821068544521
0,897745950645771
0,917524113578979
0,919003185462914
0,911685055731832
0,919765081191115
0,971040290692939
0,953966592143697
0,945099445070593
0,919040066886496
0,889184066507822
0,898535378450151
0,885449117446602
0,923396466668858
0,976528589703628
0,94011965718645
0,942544626800327
0,903886775529128
0,938439136867981
0,905485718930936
0,936302114880282
0,988895687781803
0,972076220873896
0,94913000296576
0,983970314734069
0,958976903047087
0,957946451950367
0,996577195088797
0,971771238519092
0,960542133257235
1,00143589061941
0,986320919642748
0,964398863375334
0,909893439111521
0,990011752902573
1,07639642328523
1,04666764138105
1,02996960468978
1,0743979332112
1,03945996525863
1,0288884487183
1,03205152679679
0,99741210129169
1,04149949483431
1,08693352745573
0,976452666902733
1,01326055416334
1,11488857423742
1,08239946199364
1,01483921194426
1,0985302827977
1,09991223802432
1,04416483997926
1,10043821830511
1,10851823933678
1,03769289327582
1,01879856415043
1,0695612319215
1,08529708414074
1,08074141066136
1,06843249753217
1,09085631631922
1,08055848784768
1,12730697168028
1,1625269706952
1,12391781568024
1,07451206821142
1,08364553038021
1,12668282136627
1,10757288605188
1,09587431566772
1,12521690980324
1,14420095490667
1,1128199048679
1,11413175824099
1,14187388239714
1,190270405523
1,15883572879636
1,11965798925488
1,13001649628222
1,12724723635279
1,12175954688874
1,10807044957169
1,14930780451285
1,12818047041232
1,1648038025688
1,18231591327297
1,13479924900399
1,13767692887237
1,13279256204896
1,09490257014235
1,12735444759507
1,09704874933868
1,10497441307275
1,18260547194812
1,13520999883867
1,14749345793486
1,2443463129727
1,19850446082561
1,17703405875708
1,17767404752953
1,18806845101204
1,1611123298522
1,11850729768109
1,16041864320174
1,18202749485026
1,17300835650504
1,21234162567828
1,2975815612034
1,1445140035948
1,11880815815509
1,19154803812187
1,17024058792571
1,17161434479795
1,1733668319781
1,20189249298199
1,24222391323429
1,20433726860971
1,17615511807299
1,2162044636414
1,14577948987898
1,24902261400802
1,16046257439012
1,10641058349508
1,14274423632487
1,1260786360051
1,18039756416021
1,16838439708253
1,13070743312064
1,16317096348118
1,18472253118835
1,211373002474
1,17835369126764
1,17203923425374
1,21410084094983
1,25898687245843
1,1250326059417
1,20128613073104
1,20624072737572
1,12815271267053
1,16612150291523
1,21242150795034
1,14634491355548
1,18998577139739
1,21710267824293
1,18491848134169
1,13037019626061
1,17250042069956
1,21437729904215
1,20001102318384
1,17514010164226
1,20909173318429
1,18542704761408
1,12050040318812
1,12193484370051
1,14746310099423
1,14993028327128
1,19323978315595
1,11556303590864
1,20207797531436
1,1858703778467
1,19610235368631
1,20198837188912
1,15776756965914
1,16817182868114
1,20323345512704
1,18508529742136
1,14853761053145
1,13506272956471
1,18858586058344
1,18779757766023
1,20895021438015
1,21659699419394
1,20159422264865
1,17668834467485
1,16047740569747
1,10431554373924
1,13413658301771
1,15920849448933
1,18587732643553
1,11400844976706
1,17290896383382
1,20302757300362
1,15887299903031
1,19926234166788
1,21145754557902
1,19013018260338
1,16926321717181
1,1190957562361
1,21103522835076
1,22463620392278
1,19802719826791
1,20928566714545
1,18962407601335
1,17355534616489
1,15433687534093
1,13151385054936
1,17985269586541
1,19876993477194
1,19305767074323
1,19832493642578
1,15920797249212
1,17003938550142
1,20058754279319
1,16051647005726
1,18501056150544
1,22140228678567
1,16078143554203
1,12736792874509
1,20789559638894
1,17422201412194
1,16887991773459
1,12246264032729
1,17520659316053
1,17916126665056
1,15343360433132
1,12739179406001
1,15813664879718
1,14652870933241
1,18046072452682
1,10334362478187
1,11444920317386
1,14670971992221
1,16617501863913
1,15904742156395
1,15261068444479
1,14481473324034
1,17859477489144
1,14041970016114
1,16375586561009
1,12814999239471
1,16486022634746
1,14748513309677
1,16888631327894
1,13800644870343
1,15669870898772
1,13460341474343
1,14122483640314
1,13759531820141
1,14231031960326
1,14247786938604
1,13501154550352
1,17198877361718
1,16427280796388
1,17474676023627
1,16446881993755
1,12491863017483
1,13435638466955
1,1521692204222
1,14937059929904
1,14496894117064
1,17928850877279
1,06949453069376
1,14129915189518
1,14594756842207
1,09310774136511
1,12052173806283
1,13681078116352
1,1004159699396
1,08865076563083
1,0880804299295
1,17060310277784
1,0865269290754
1,13932746789245
1,09823368486995
1,06073183403959
1,04263466407702
1,1110964609998
1,06342292663866
1,06947730833556
1,02808681978573
1,068130458914
1,10605115613269
1,11396571376141
1,04361508396113
1,04140832815618
1,03215554594081
1,08559816108279
1,06485559332326
1,06645782954385
1,06329379606798
1,03512800326406
1,04160581054598
1,04651889164336
1,02231687360039
1,05195716122863
1,03320431763994
1,05289552054123
1,05385187278613
1,06822742283565
0,989570328211512
1,00351811317455
1,01402713381484
0,998089733034523
0,96029599438243
1,00624555232357
0,986431332975468
0,978368959517907
0,976894266665997
0,995352851096438
0,974600491968214
0,968640816187749
0,966112416501359
0,967661405302262
0,940393895871998
0,946342634564572
0,918569356001554
0,939135233598953
0,938466771985482
0,92041724163414
0,923856344122521
0,926024878994409
0,903820348488417
0,907406039369692
0,910975213190208
0,891568113701539
0,907346416173098
0,886627688450856
0,867737978965785
0,891237800720758
0,868227123235242
0,859671634833742
0,868525982710282
0,856303016402886
0,83639694572901
0,835206302244943
0,838322077100828
0,861742018354302
0,827828414332321
0,831874875946416
0,817547069011849
0,839114178670899
0,816523601767423
0,829341052087067
0,816838845201507
0,802411477082982
0,789371539166465
0,803238546655279
0,788699644828886
0,805657380492804
0,782174035384932
0,796674987436426
0,770097044608444
0,770333094322053
0,759681595369847
0,745789686137586
0,741057997654001
0,745590472563052
0,751066072620084
0,757500339431708
0,735171421499671
0,72994713190443
0,71900348895165
0,726138262927834
0,707917974212839
0,709340804861727
0,704494146833349
0,694187732448297
0,685165441069534
0,692735924195249
0,692892842867535
0,699685743141014
0,702658255439767
0,66395477043802
0,662620217149227
0,670242368340095
0,665637878943895
0,656221293400932
0,645626633711079
0,66063201240001
0,65642615385706
0,636915557361521
0,626542301863398
0,63745673274857
0,628241868184282
0,628414763178052
0,622399740180773
0,618546665303681
0,623191660359157
0,616020033994106
0,602474781838956
0,61568045793139
0,577021611292534
0,599860173623473
0,594804990320791
0,585002059949822
0,590085182062648
0,575200152364632
0,568836199704966
0,579524981581519
0,567579617515327
0,558095188557821
0,552652473179068
0,553876254905675
0,543683647711873
0,550045224929979
0,542072464308527
0,547353864867168
0,53988148665679
0,526922980966147
0,522646217558048
0,526341774695383
0,512389815203217
0,523245426952605
0,514187971537336
0,515386918775724
0,503693918650966
0,501549583953043
0,49100990244492
0,497050882845883
0,492874319091154
0,494734315418844
0,482393161882822
0,483729978201626
0,469274439364243
0,478715888244593
0,473311276718865
0,476180789087352
0,460192811528126
0,467612313269427
0,457555992411449
0,460589369078892
0,449862719747311
0,440708959208501
0,443162617704961
0,442569137262839
0,442821957478188
0,445907472742007
0,437173372160149
0,434328198774428
0,428337979210172
0,432018053797372
0,419911128514137
0,421751299042474
0,423487057900955
0,417909736541847
0,408905739389737
0,412383394322603
0,399251098625233
0,408919091810495
0,385783053879404
0,385685976376775
0,39580254899018
0,398381506364471
0,375806737791886
0,382179346397259
0,382317202176167
0,388264296188904
0,372866230238103
0,383866629805283
0,372127521111061
0,365968607823629
0,368246401853918
0,361520818474176
0,36405381839917
0,364531086994646
0,356243793226623
0,356956971185644
0,346273482134764
0,348624110401048
0,348974230770276
0,345123793879955
0,340142033766004
0,339224388889153
0,340741614486527
0,338752896078951
0,33002758411404
0,330880059578355
0,324506149631113
0,32721560187786
0,321355218362087
0,32475515263409
0,317618048986868
0,318498632426166
0,318039602502136
0,31343080438944
0,307511889921787
0,307594469190672
0,306255391576492
0,30893364587534
0,3038474677204
0,291640672449769
0,295622374990845
0,296899883743781
0,290275287657534
0,292728937597027
0,28800480023774
0,295256951530388
0,286556819815782
0,284460360495032
0,283319854024537
0,28044736686001
0,272230636428227
0,272538970553303
0,272178703633753
0,272544496791108
0,259948178956133
0,273567309010795
0,270585898489305
0,265602333472308
0,260806143814482
0,260750751578213
0,256701082270987
0,259527407495998
0,255604590325899
0,257857659843546
0,251713964900379
0,255203058307486
0,242532732027115
0,246871123512624
0,240672006879412
0,246467291352471
0,24175993913279
0,239598341766634
0,230647397063826
0,237940177625411
0,238715853793115
0,236645170631094
0,237336017548661
0,23202264109178
0,230563190906967
0,226697453773649
0,220013969766076
0,226092985538308
0,219737911605081
0,221723685536542
0,217834170944858
0,215075236487921
0,211306977483669
0,216014718953991
0,216248829510729
0,208816496523599
0,209881388179336
0,209408135563912
0,20891814196752
0,201311851608323
0,205834445209266
0,199573586934897
0,195658881181148
0,204077526973236
0,203454422549225
0,197927611563911
0,194536004664775
0,196467461021602
0,193156909356172
0,193263740530897
0,191715572085789
0,192371422248563
0,189678138224079
0,185729508792407
0,18371266188527
0,187742982849797
0,182585383105578
0,188396833320096
0,184113736528321
0,186197635474898
0,181530942506746
0,175727325144203
0,176552158715802
0,173285403680033
0,173455853007204
0,178536560582785
0,175017288862368
0,171889171357082
0,170014573879692
0,173495618358034
0,166815382122787
0,164252947589105
0,169038486407551
0,167464344896021
0,160967593772291
0,160173405748021
0,162254952134015
0,158966963758128
0,157908655632007
0,162408891720383
0,156483721536905
0,159533128260935
0,155117956272901
0,148027612799174
0,154844191709002
0,143878334287682
0,14662608723711
0,150784287682769
0,153522591019496
0,150660497202602
0,146610554804169
0,150334648847955
0,146003150729639
0,144934436997569
0,141694343024696
0,146389973627231
0,137718874523234
0,142286438906666
0,137724551045628
0,143554001542427
0,135011084504175
0,138216606956102
0,140090715756151
0,137476555940493
0,13950021848125
0,134918805879891
0,138911916755853
0,135769643998543
0,137373621476765
0,131391392146294
0,132016416647354
0,135395511173876
0,130958412257293
0,131018753723208
0,13449439248143
0,125102223615024
0,12475931740723
0,126013871536405
0,120973225208581
0,128871850180146
0,125416464380912
0,127591340414632
0,12089960254834
0,122495482448676
0,121788467662743
0,124115462178382
0,117075554503468
0,122351485662232
0,120317490454269
0,118426165892826
0,116020587671839
0,113270379156678
0,117410547483314
0,117986915904723
0,115373534427844
0,115358952851305
0,117274536318544
0,112614411548878
0,108528716765893
0,11310915331054
0,110266972824225
0,107121049083521
0,113149640662091
0,113424495223562
0,109570525765375
0,10848579489903
0,103884281695003
0,105868059164128
0,100945346750907
0,107426933759704
0,105099369969062
0,105732448648476
0,104553025157686
0,104578716996531
0,0991102610932966
0,101359031498876
0,0966265141094437
0,102491074685081
0,0989858053256814
0,102480754903676
0,100271893311796
0,0992236797054094
0,0987771087673703
0,103924635706163
0,0975570070806852
0,100627016561591
0,0941942579852818
0,0966030456604754
0,0933137506520987
0,0924266677607924
0,0944275466714114
0,0969189929295784
0,0920610471511165
0,0898493035447223
0,090382812262343
0,0932965835452544
0,094344071553
0,0947414019538001
0,0916730627350644
0,0871386187352188
0,0891116824402387
0,0878604919269009
0,0917569625857175
0,0876546158823134
0,0890155070185638
0,0881035187500247
0,0876493807398115
0,0867575995160538
0,0887535062899062
0,0853289789940856
0,0873772834426142
0,0832750482333254
0,0832247587641858
0,0890092036363654
0,0854384008966499
0,0850420475638045
0,0839159064234619
0,0830948138775096
0,083289702117317
0,083961271675965
0,0823013638262042
0,0815239662446983
0,0836601249554774
0,0841056515114903
0,0801582745823436
0,0798580729375415
0,0797658595772719
0,0806968021415037
0,0802468966734049
0,0799481686357295
0,0789462643509357
0,0776584501499463
0,0751236602844456
0,077922362820188
0,0774784974811046
0,0778796926613301
0,0777246279265515
0,0776723488819242
0,0755589571310937
0,0769036403781855
0,075268887111295
0,0745406346565158
0,0767376974296514
0,0734412462541586
0,072894898937691
0,0756268332057641
0,0769437255128673
0,0745840460190411
0,0773203063154513
0,0690758695218094
0,07191563286491
0,0749271163623414
0,0742781727340074
0,0731566389029766
0,0729180328441495
0,0681611301747168
0,0718655109593207
0,0698071271053696
0,0726285879171122
0,0697496898670547
0,0688253003358534
0,0726720307413393
0,0701138048402902
0,0711585568804632
0,0682057788582694
0,0710052484114317
0,0707190370197636
0,0714586864870338
0,0687498442306732
0,0714014934645126
0,0706116136514831
0,0715498721629814
0,0653493521458434
0,0656907959299516
0,0649149959231935
0,0683224479086931
0,068424107282129
0,070434127506009
0,0625181979796802
0,0678247865850825
0,0647581477465088
0,06297302094087
0,0647098032283149
0,06751689386313
0,0652820856342357
0,0634669522473268
0,0630180095749289
0,0679000990316739
0,0614624779920875
0,06687614272956
0,0635876472332577
0,0658217992241517
0,0654238296557362
0,0653092501265293
0,0609234605216374
0,0665013462834641
0,0658350111208145
0,062150757927489
0,058005488825452
0,0653762688642345
0,0636973253808939
0,0594292094476682
0,0630067095011154
0,0589449941337205
0,0595646445311463
0,0630982210967539
0,0637670577758024
0,0619596688984037
0,0611196993838403
0,0568320892316627
0,0599128828318016
0,0620123718580787
0,0633224539152455
0,0609617902927761
0,0609181806644387
0,0591794064780454
0,0606224894927284
0,0599893280350873
0,0593898649513544
0,0604805597314822
0,0604558961553782
0,0599465246007751
0,0597106995629584
0,0583228264629767
0,0597090389405627
0,0599365576170788
0,0595686977272957
0,0583170216908406
0,0568724066943716
0,0549949989165879
0,0565464788081242
0,0595366025254896
0,0584437795362393
0,0560877734772647
0,057370658272186
0,0598261298712655
0,0584364306335504
0,0588750503384161
0,05433969414492
0,0566971137241143
0,0579805313651468
0,0601921139044593
0,0546020967960554
0,0566398861446138
0,053435724393671
0,0577630236508012
0,0583545925816325
0,0548002633892125
0,0554747039932389
0,0559207712566843
0,0554301723234335
0,0567698824346719
0,0549044757834836
0,0571547657915627
0,0541773811810427
0,0571902693705813
0,0543602116281427
0,0551461006245342
0,0540561145518756
0,0536797826350585
0,054224898608182
0,0551425181611398
0,0539664373670623
0,0542667040910613
0,0542839720548065
0,0558739099371105
0,0560907758181034
0,0519046061940531
0,0546493885064578
0,0564677947484477
0,053949862918775
0,0541290559851692
0,0535247352223685
0,0507600604341115
0,0547377809117965
0,054986585991889
0,0537668200462428
0,0584524729851625
0,0551821665456315
0,0524412204897706
0,0528588255566845
0,0560710785263525
0,0578012493617455
0,0521103662215748
0,051829598529868
0,0543135352909898
0,0544288012108636
0,0529786491799727
0,0536083345623236
0,0535656577472813
0,0562635536723209
0,0548535650054845
0,0537879664674193
0,0521975712367274
0,0549276748796623
0,0551905341771047
0,0507365807838495
0,0537392003467121
0,051746010474929
0,0550195129932788
0,0494255054263776
0,054589335890777
0,0535000756016329
0,0537858105228581
0,0497380099038712
0,0529323918178799
0,051342241859518
0,0519301571220158
0,047630451526016
0,0524674722359965
0,051230728607315
0,0538568119355027
0,0514840990825137
0,052967402240301
0,0472017460598933
0,0526146443801266
0,0519397411330284
0,0491128389033025
0,0530065954567917
0,0511913539304095
0,0492500281056445
0,0499622169116841
0,0519223037014584
0,0536957729000914
0,0517625596044067
0,0511481522388233
0,0512814509420393
0,0502679897679453
0,050116635440459
0,051444179909604
0,0515387126356585
0,0528314086125769
0,0494047809829383
0,0529266662559601
0,0504766499696134
0,056528304253016
0,0511825706149308
0,0520099176864818
0,0488906319137167
0,0506033955609902
0,0537012518578893
0,0548117644629312
0,0508441057008927
0,0538192738600642
0,0498471782369155
0,0528718232210541
0,0502987616821247
0,0497197281237365
0,0508487047096236
0,0513662329994589
0,0505734733173736
0,0542579848278881
0,0491142256278545
0,0505402079551516
0,0511856859591157
0,0529277488462268
0,0532101536542774
0,05195816054801
0,0476783657560728
0,0516924785513415
0,0512696273860518
0,0532066253818231
0,0507457819972822
0,0531730664411855
0,0507052575517983
0,0530293610335925
0,0516344890140401
0,0522208264300942
0,0508481188363412
0,0502139152237776
0,0505712500887884
0,0532451500371656
0,0558365283011138
0,049799068346356
0,0485901880796244
0,0518586510080348
0,0511171033363309
0,0522438439765791
0,0504482820153014
0,0497633771152059
0,0527767344550053
0,0546945895053375
0,0507152072855263
0,0509480386448018
0,0514397248860447
0,0558236149835688
0,0548589944294222
0,0519384831199373
0,0544722970083372
0,0501919626012924
0,0490633107128809
0,0516438412370595
0,054541316812357
0,0543976494236115
0,0526011875609077
0,0532953114007435
0,0510864975412206
0,0525195143874284
0,0535278130944361
0,0518235870518161
0,0525006245858443
0,0517186369139945
0,0509344063606808
0,05129800511909
0,0531509528659233
0,0553886506288192
0,055360736646238
0,0523364090287632
0,0529901070814213
0,0545661701204452
0,0526159326974854
0,0542150311288796
0,0562624754035081
0,0548777457680951
0,049681419440549
0,0522714372402423
0,0510228584961175
0,0537216614558283
0,0538473128480826
0,0555303783978091
0,0536899117070686
0,0534372093065429
0,0564235321626392
0,0555522346145193
0,0532758111826008
0,0554937778376995
0,0527149249302589
0,0543660008647313
0,0529794208091136
0,0528104684114726
0,0534173269745599
0,0549059349987489
0,0487642900031378
0,054162539358076
0,0526543508204467
0,0542477312168678
0,0543743344925397
0,0534893568342689
0,0534809884956021
0,053672754767107
0,0543290830881789
0,0539163504789105
0,0557057946997648
0,0552933915747266
0,0541172344226495
0,0558126653566726
0,0560031648414917
0,057061233753591
0,0523174106522307
0,0563277947788648
0,0537975403560797
0,0541100176103779
0,0527245879372566
0,0541245450072893
0,0539025987788187
0,0575804471360338
0,0532778428058634
0,0546187453832344
0,0586802750451531
0,0564774441114973
0,0572971917343316
0,0542635425512168
0,0559231706501818
0,0555459026693087
0,0542926645898801
0,0592016730872344
0,0566764345285274
0,0565653293995428
0,0568161080692636
0,056612172272896
0,056205417354169
0,0591295632621572
0,0582386576363101
0,058071961625367
0,0558866199959755
0,0550279533396744
0,0564247927362677
0,0577272317106693
0,0547970972254825
0,0573526363898866
0,0568713855903217
0,0580496618141679
0,0561932061624196
0,0539014614176072
0,0548417336852656
0,057866545148016
0,0576463757085955
0,0586101591940288
0,0584002252839393
0,0578484165646892
0,0562325603859709
0,0555450892051964
0,0574193638104111
0,0571157110691507
0,055541544930125
0,0602315573907802
0,0567457573419525
0,0592895254949216
0,0588405188996561
0,0540412740818894
0,0577943667967404
0,0598937265944472
0,0582681442458387
0,0579684724887226
0,0552291460025546
0,0576126335550868
0,0597315656217256
0,0603332294336857
0,0590848783793638
0,0591836817746101
0,0586238664976386
0,0606568013829371
0,0575621547506227
0,0601560074134084
0,0593034490712457
0,0574911373583628
0,0603221922067973
0,0600141653476313
0,0596500658740199
0,0606099367041457
0,0620383658826177
0,0576414198741095
0,059479106952941
0,0603735083192726
0,0608810038828917
0,0609146352651321
0,0616030164317103
0,0627792628695333
0,0619335069073965
0,0587017869770228
0,0594398798136992
0,0616171015272117
0,0621695970862668
0,0598202333682268
0,0610027581496105
0,0599226381755914
0,0621731510524086
0,0594991821942701
0,0600484294045939
0,063070726215932
0,0620890775893334
0,0620394660112584
0,0635956709428266
0,0626499596069198
0,0628757331642855
0,0627502853691678
0,0636600492713707
0,0615814433067807
0,0650890152357657
0,0639972993910232
0,0648310951308843
0,0631216522968597
0,0620969370428943
0,0627290963588643
0,0615161314155908
0,063387389174489
0,0623720441008638
0,0633872429232868
0,065458510122804
0,0631518171741201
0,0621905700846475
0,0622892981540133
0,061622782186059
0,064470069107857
0,0645784624792963
0,066111096575531
0,0638780562200719
0,060533260877757
0,0645267034864271
0,0649249616702362
0,0653776270393079
0,0643230048202111
0,0662998676224664
0,0644407925784168
0,0642579181681361
0,0668258954685851
0,0669425213799995
0,0652572902100072
0,0679375024186334
0,0644468359886188
0,0660794182719953
0,0679401513340912
0,0699905878581533
0,0705073204848112
0,0699128911537979
0,0694547074698126
0,0728556164989218
0,0679907659894285
0,0715398135923418
0,0643456664193835
0,0710009504237313
0,0692888439184859
0,0677266044613567
0,0656093585809343
0,0804992019223913
0,0686538123745129
0,0712041903462694
0,0686258856861323
0,0717342675823608
0,0642319976758868
0,077638136755468
0,0688164858034012
0,0745451094140307
0,0744561417283518
0,0717573093148779
0,0691059041153047
0,07135055455141
0,0628132001228291
0,0715220491230607
0,0631133459243286
0,0754873793625495
0,0687789629767489
0,0742562961446399
0,0654254699002613
0,0784653099832535
0,0682844247697186
0,0783041430726354
0,0654573245902456
0,0789084776897635
0,062020386817155
0,0802356703586349
0,0682445842037495
0,0833323425683334
0,0648396531427521
0,0835831939752818
0,0668683973625959
0,0840625477270091
0,0610115687694563
0,081720419117751
0,0603138193654214
0,0838644639713649
0,0632116938866963
0,0866944153408155
0,0664104283226894
0,0841892051196392
0,0631233291618413
0,0826416313696967
0,068047632150824
0,0823800384267432
0,0672022150385111
0,0765426128712126
0,07333996379307
0,0790675575731283
0,0788894559497392
0,0672139591532422
0,0903508231400655
0,0644777269502483
0,0887836444878066
0,0615581753669896
0,0948034103632562
0,0613094323318763
0,0949063013466344
0,0640822971073101
0,0908799790998619
0,06806155133523
0,0842044374208009
0,0709911371795146
0,0809094287768468
0,0754755678248831
0,0784485861282028
0,0750313133361877
0,0780811052095887
0,0769205832719233
0,0785517415142859
0,0752380254985208
0,0812310305342563
0,0727801123380201
0,080935904397131
0,0752836102468159
0,0832655481773685
0,0762098275419091
0,0808516723742697
0,0763564608679863
0,0808024165488456
0,0780641584645282
0,0820384334306004
0,0795489233936066
0,0823601680848079
0,0780445794435548
0,082463680115827
0,0788599160237724
0,0830118185219312
0,0759957423240417
0,0833238807144842
0,0801882760175933
0,0833092308979147
0,0796120981981395
0,0844461030621745
0,0796342947003795
0,0825525444835115
0,0787471551604289
0,0834564475742283
0,0808619656672849
0,0859485651866827
0,0826030217332291
0,0858421998252485
0,0807713125183238
0,0850898815123767
0,0822015833933109
0,085765194834588
0,084072116636541
0,0854425159631648
0,0815126511470146
0,0859027089004971
0,0845795956216768
0,0876670766567771
0,0833855370669978
0,0850465340811941
0,0837083000749923
0,084799860678241
0,0819537401767446
0,0881701832150059
0,0835011764438736
0,0857074398243702
0,0835109970540823
0,0889513624964351
0,0866868684074055
0,0885778484566517
0,0873181122352285
0,0892765296217637
0,085635616453322
0,0906720437061989
0,0863856871253026
0,0890076875109366
0,0883063076948019
0,0935018647025482
0,0892849368971268
0,0904422004616174
0,0878099494001686
0,0904768317632952
0,087855615793433
0,0907831839970775
0,0902043849277651
0,0898921759673718
0,0855426048393127
0,0919254815228052
0,0894353808976811
0,0903869348054321
0,0896204539119631
0,0925058324438535
0,0885747574535608
0,0918977069241628
0,0902749792859835
0,0939213227479245
0,0925034088094611
0,0938611609594406
0,0921671270825516
0,0951209097608376
0,0909829555322502
0,0935934620064757
0,0931482477919441
0,096636295037115
0,096279692057941
0,0975243074939124
0,0916670939096634
0,0948411215230186
0,0942101304151171
0,0967999899434574
0,0963467843808203
0,0970903756842938
0,0950014296059252
0,0974989255583811
0,0950164202858427
0,096193432370005
0,0967802236846999
0,0984074284823277
0,0963842051032903
0,0999097849986561
0,0965431420742606
0,100033807613467
0,0981235277860331
0,0996665990385365
0,0998028820088082
0,099944053680996
0,0991006937716555
0,0992809044499076
0,0981575114939588
0,104527245644103
0,10198091894024
0,100975676551123
0,0979334061927369
0,100889803761025
0,098636183774284
0,099788548804363
0,101681651468005
0,104162463960223
0,100809482389113
0,102211846078667
0,100448403214889
0,103815390900663
0,100433593987275
0,104111205644002
0,103863207555989
0,102871726814392
0,10250997255178
0,105830673101871
0,102949443793859
0,102365939664528
0,102362982660867
0,105257881404002
0,10209254896215
0,103874573632857
0,10201439202755
0,104906602024449
0,102091055194064
0,104627715630437
0,105222295202785
0,106928559420369
0,106303548421482
0,107231329582951
0,104124828521231
0,106185283449288
0,10490407139219
0,10922285298062
0,106031422123539
0,105450920707469
0,106128217078752
0,107724379571523
0,108020792041748
0,108875442858349
0,105296053982369
0,107024086737227
0,105581836699588
0,109704747525849
0,107433010395548
0,108298150513754
0,107484601038967
0,106921554119819
0,107648529688442
0,109366520574408
0,106170646720191
0,109507599008243
0,111000298948151
0,109756533911358
0,105482915972643
0,108192879816346
0,106516208805831
0,109653473038613
0,108363788349059
0,108877083995522
0,108581700195328
0,110029688750012
0,110954006262567
0,111807290912049
0,10758814050225
0,110869373610676
0,109502849950059
0,110189655309408
0,109486957678491
0,1116654655001
0,111021762504421
0,111436846593239
0,109455412988503
0,109975380966378
0,107867071681056
0,110140489308987
0,110914686192849
0,112235939813561
0,106957145244623
0,107953097007798
0,108435675756375
0,11107412770689
0,110325830024638
0,112366600692069
0,110534880930533
0,109314265917632
0,108227832332681
0,110403235169187
0,110786492240594
0,11317100244608
0,109742428006243
0,110968144458293
0,1104550632268
0,111373203130837
0,10835357612327
0,110134346344536
0,10859792914625
0,108846893540379
0,109237054888762
0,10960115673426
0,109087112671459
0,111418042945172
0,110009473202778
0,111025711210545
0,110669196625034
0,109676774793052
0,107858612623385
0,110032813732193
0,10947744341986
0,109059270630534
0,107361632856432
0,108601714194861
0,108021099507089
0,10933473369876
0,107631807527798
0,108884693074573
0,107396885047928
0,108131680780491
0,107541010413766
0,108607367466891
0,107894152899891
0,107969816490237
0,106262944793586
0,107285437101651
0,105447737984173
0,107085539102722
0,106412990434143
0,104712033950945
0,10656246297026
0,108000617924255
0,107863294591207
0,110674589821111
0,10542905564581
0,107394828262325
0,108259396409482
0,10744319542892
0,102930266658328
0,108110469190366
0,106605747453934
0,106525443723167
0,105840624791608
0,105311810598785
0,104466696734593
0,106205255012111
0,103738144994376
0,105032826878538
0,102923111258219
0,104377579325692
0,103577430554906
0,102803742465664
0,102275876676457
0,102836567944327
0,103068062642741
0,104563384303126
0,102009311598273
0,10232288108156
0,102820917935277
0,104393679591585
0,100918176561902
0,101371647700216
0,103083546983876
0,101629057839544
0,101361176496733
0,102498565970025
0,0992455725247057
0,0996230867852161
0,100678163738424
0,100142373905621
0,100266722258857
0,100834037879266
0,0978988721722827
0,100038077357843
0,100154188796723
0,101821321658188
0,0971650233963626
0,0992427591669721
0,0984910400029839
0,0962312671388466
0,0963370703042356
0,0980603206301288
0,0957068196976876
0,0996530033979572
0,0950831341550978
0,0951774101310235
0,0968073718296835
0,0985331006868688
0,097075511517268
0,0994369462492538
0,0971472221730828
0,0935987335928155
0,0943925610321117
0,0946670483105667
0,0932860649075522
0,0945703961494599
0,0920680681409866
0,0949048905226804
0,0936033741352729
0,0928650380493809
0,0931195426207835
0,0940468591478465
0,0921918616834612
0,0919254566631594
0,0912825457921487
0,0890708845166825
0,0916705587718187
0,0925070735224397
0,0924989889064826
0,0908608705093093
0,0911716448923632
0,0903658625490073
0,0900264676573464
0,0887050379042195
0,0897592948137321
0,0900243025676471
0,0894051884922789
0,0890220832558516
0,0913805607311708
0,0892798254075973
0,0872759512577594
0,0911839863743442
0,0891557006812382
0,0876556642706412
0,0872759735725798
0,0879996287008659
0,0848670631827046
0,0874831085175539
0,0864386120937681
0,0866344102870046
0,0846951999374092
0,0860939206762195
0,0857085301203853
0,0848119878556751
0,0854079313881546
0,0872413408712173
0,0823163649182124
0,0829286895693244
0,083832433571986
0,0842738784307891
0,0830238208846103
0,0822256795378029
0,0831330815017924
0,0851548776250176
0,0815437747309684
0,0826613980033289
0,0788941003808005
0,0827244837356335
0,0811851132660238
0,0813822470894971
0,0807518053226611
0,0829684516463985
0,081307200217556
0,0787352872630719
0,0795330551047691
0,0824289541194149
0,0800172795125545
0,0811651300181285
0,0778678852549498
0,0808099789493218
0,0788201932809161
0,0796494464924998
0,0774024784249919
0,0791378484295311
0,0786567656651248
0,0814417131604398
0,0750947315066991
0,0797170796022318
0,0748022364983451
0,0798248295431226
0,0787822138324129
0,0810381761501186
0,0763892058549343
0,0744625059791951
0,077502673929905
0,0754017688924816
0,0765726351190271
0,0748612442574541
0,0745695223423417
0,0761497074382074
0,0758891929920371
0,0756643348010909
0,0759457639092093
0,0754290875363983
0,0753492404798997
0,0775463710355452
0,0746022108454251
0,0740825910117724
0,07333348178071
0,0742030166192433
0,0738624711758192
0,0744711040987033
0,0750427635109037
0,07577580286025
0,0721254325057989
0,0760055841699319
0,0770723117075299
0,0734694374496722
0,0782286962002652
0,0689813101352604
0,0731446030097295
0,0725629908452206
0,0727887267171093
0,0701662426707724
0,0744591156887169
0,0716298483762318
0,0738395028300895
0,0725049214266095
0,0714574936195208
0,0735678709963843
0,0727445194340317
0,0720111419474888
0,0699041203284903
0,0733311148041361
0,0719874794070943
0,0716530073369793
0,0712989141218568
0,0702849185161704
0,0708510150578812
0,0703400050123261
0,0704601863956568
0,0717226319273275
0,0730632329284788
0,0709082139124132
0,0712619568219702
0,070658466046229
0,0728266433566719
0,0718008813176544
0,0682790640630859
0,0717571123625464
0,0707677093162445
0,0726534336848238
0,0675385314911008
0,0705716774220519
0,0677618342968372
0,0715282506890361
0,0701542130248169
0,0704667472706593
0,0682464945276504
0,0706234664301324
0,0679604698829777
0,0708123683497721
0,0682100163025276
0,0685338438849478
0,0714831628672095
0,0708156623313974
0,0698315177563347
0,0679782791310987
0,0723645076047737
0,0720102181789902
0,0720640285399389
0,0679708106151158
0,0702999106055214
0,0682263352904353
0,0681864430772259
0,0695703800499366
0,0696180799577262
0,0695453271877803
0,0722093958351662
0,0701592822207251
0,0696092756542337
0,0716663865580211
0,0681386525799567
0,0727245042234133
0,0721371590575707
0,0680918143242574
0,0656083031859241
0,0721929815392554
0,0696563226246923
0,0714554536799739
0,0677834984501748
0,0735649974821645
0,0679932255660307
0,0740867725536785
0,0638618968462652
0,082421479601694
0,0696986802428828
0,0783755394226166
0,0701523754820872
0,0689795425135658
0,0700004223670441
0,0710752751873054
0,0712946302564628
0,0713440485501564
0,0705602153240281
0,0705504638000864
0,0715676347481106
0,0714628487986759
0,071852241159913
0,070089699793994
0,0723282176714837
0,0752769240047687
0,0710691175478396
0,0737573078681876
0,0709613981367513
0,0740740411498336
0,074578750623567
0,0740244036062414
0,0731378187978705
0,0701256207663778
0,0767603702930986
0,0699518087098216
0,0731995546279738
0,0722180751869575
0,0746392715548469
0,0744036684979732
0,0730271263186259
0,0738130402049515
0,0741054835503049
0,0770532769626159
0,0725950471794743
0,0793842988784046
0,0744632336412506
0,0744152196142349
0,0752556921695355
0,0751731179829962
0,0769830576833487
0,0737871088487322
0,0801793475188149
0,0754819811863335
0,0792644009992014
0,076179023425135
0,075064139230251
0,0798223327541048
0,079235254390884
0,0790003600491126
0,0789062609049347
0,0785821374491164
0,0823216191058435
0,0756421018637044
0,0833448542534777
0,0812243652111295
0,0819663545859676
0,0858989085955882
0,07744520104459
0,0869266884013281
0,0788500366474361
0,0850730324504158
0,0779496652739431
0,0921613026413969
0,079299094556148
0,0871352918355819
0,0795401087750413
0,0915092482858213
0,0797990893866173
0,0870884359089272
0,0851348498202114
0,0863695056401658
0,0839354042487158
0,0902780738971914
0,0864792855924214
0,0899106591519083
0,0925366799271384
0,0933355707597439
0,0996460675547001
0,0924880724360968
0,0903451722888531
0,0954732363242679
0,0861329575946828
0,0961908636532754
0,0891350123233011
0,0985865528602639
0,090073931079218
0,0997990212866492
0,1029997420338
0,100329797737622
0,10003901950487
0,0990196134582082
0,0991292490428548
0,109339681988587
0,0995396775287774
0,105500930538615
0,100751202817055
0,108433037815053
0,0998882633173405
0,117115979526933
0,101532976393188
0,120952116755411
0,111069277055992
0,115400390014907
0,116029234952212
0,114518304915176
0,116210194552601
0,114191991182938
0,122418369758047
0,119144180009119
0,119705891587996
0,121944563084716
0,124318065428314
0,122386678107422
0,13041910612321
0,123642448922086
0,129968149519846
0,132198662790611
0,14274397130237
0,135217117425956
0,138127606775491
0,135449634872063
0,140941947813162
0,142459400063369
0,146829888481986
0,141626945247443
0,148070416463767
0,148794850386973
0,150925986638356
0,154469857294899
0,152535496927437
0,158802953331313
0,15857118713686
0,160923508560375
0,167679378229664
0,175447972077026
0,18300334077052
0,170675735543084
0,188687040690767
0,168442083590535
0,189337896406079
0,180410481487437
0,19012286525641
0,189031839803664
0,195447494168958
0,20280657749831
0,20347924982183
0,207284795830394
0,210235663119895
0,215053732916641
0,225998378475764
0,21917279123399
0,230341949439617
0,222778042635673
0,264847255747992
0,200100098098351
0,259687199619181
0,233790687002173
0,261411939857341
0,260007405849646
0,266665615125372
0,26629879611475
0,270535173818799
0,275376835625991
0,279373943624034
0,283052829797903
0,292505956522604
0,294459547876178
0,302502386319301
0,301703633899683
0,317529828425923
0,314477709293368
0,347329107793314
0,330745446494478
0,333079751790885
0,336955808313613
0,350442298106081
0,347971007189869
0,358395741298482
0,357242915497913
0,368431253948454
0,384634692808815
0,38591980007563
0,389099394738458
0,387123537231286
0,400840946128455
0,401227713818571
0,418491182624396
0,407971609181716
0,430761458550763
0,42802337106936
0,432881461810423
0,437023149682874
0,446740327496655
0,457503931903281
0,459113037826532
0,470605170139054
0,469432054340065
0,475600279303541
0,480155830808189
0,492052359389529
0,497458466476296
0,499941262889183
0,506426836036382
0,51532042393186
0,533785369586604
0,545258705550858
0,536704155974705
0,533561190473201
0,536837739474143
0,552476988928006
0,559192110111146
0,569013231884582
0,556758358396488
0,573904143847969
0,562669095859532
0,561934710313699
0,569635488226612
0,576677899029612
0,566711606481155
0,570079764296334
0,581215027352613
0,584057822536284
0,590331521294693
0,600409226940532
0,617278218999293
0,584005437114648
0,573969338246866
0,578438110316184
0,573227991772898
0,574317135480799
0,565308239504744
0,578334018241245
0,58074803257565
0,581772018453663
0,556626815813062
0,558150215703186
0,553493545608756
0,562107843890446
0,531695310587877
0,53988285772575
0,536826242641155
0,520253029433583
0,517992316824175
0,52761334289423
0,514544330322833
0,505198047766695
0,475899613320937
0,480785569715732
0,468715762517798
0,480737555722428
0,458689091791447
0,451462036006643
0,450008513299487
0,456947077666304
0,44007872953388
0,434314106242638
0,420400246049102
0,421335749191624
0,409486990713677
0,408279844890826
0,401201051563282
0,397586112574104
0,388536118753661
0,381842016847829
0,378437603550256
0,377397041254929
0,367513257506843
0,364841707772974
0,359437971360006
0,360972471172396
0,347996868986178
0,34359804112093
0,341768139169354
0,334930480357101
0,333884210735727
0,329495901571081
0,32232621293697
0,324172015413695
0,318109364425439
0,312991307047451
0,313154441190836
0,307188770058684
0,308079230458596
0,301625889151698
0,301050114802968
0,299196432292891
0,301479341610204
0,297965958372815
0,294359142928649
0,289925932108797
0,278556066773568
0,292160522760878
0,271977681105141
0,284891244320117
0,27931083372063
0,274726023158703
0,275594567410347
0,265856772759342
0,263495243690144
0,275313701688265
0,261951514982922
0,267146318927892
0,251448041228365
0,268763392225173
0,256346031380677
0,263909434345439
0,26924626792718
0,264037254775734
0,252330869427597
0,244718776918568
0,269747296154435
0,241556930718126
0,252127666670871
0,24153508695047
0,245979529977449
0,238552164191745
0,240766060031028
0,241182062358307
0,232112003533257
0,238035545075045
0,244088293275524
0,234794519180113
0,237940526613477
0,2396388801071
0,232352162260987
0,232842642132336
0,230128596924217
0,2378164772332
0,226833257522376
0,226981196860831
0,221433561620985
0,217226058795011
0,232193635486001
0,216189857559534
0,225461614446828
0,214885418669645
0,219238150674017
0,219937636941498
0,217239744154304
0,219296487643296
0,212944384383677
0,225371069789659
0,214714364684178
0,216948509087704
0,214551498257673
0,220564076810595
0,231419170053199
0,212547549084848
0,210144890991718
0,209959042841672
0,231564565849679
0,204237920223794
0,21478875658799
0,202994540222717
0,205874017408621
0,216752921319954
0,204593937128308
0,206909347356198
0,208855271816382
0,207359899979505
0,215361924304367
0,211946478627641
0,227263257330708
0,214137979930391
0,196554173698913
0,203034202470318
0,194234078003534
0,200513909830691
0,19224817158764
0,20042564776096
0,205976501704218
0,19233582783978
0,204250410249772
0,196101090912515
0,195655740070505
0,195810226591757
0,189942125986842
0,195414846395061
0,192947145577433
0,198813031370769
0,199088685076508
0,191967525352911
0,200147836699494
0,192013005135398
0,192991264348403
0,188735284142303
0,192613958614883
0,189170623199227
0,195209150010686
0,192817075143308
0,190044597676603
0,188902526893765
0,191473697659124
0,186001093983256
0,20557414211816
0,183642694295399
0,201839242296334
0,187906980785294
0,202388675800612
0,194751664360822
0,188691668483821
0,193295656649481
0,187986625088803
0,188668294986343
0,189212199898773
0,186833044971146
0,201498269789549
0,182968231233459
0,194991028975507
0,182971953894256
0,195801608044254
0,182954443939284
0,197744298690773
0,188961196785375
0,193477790297429
0,207780908889939
0,186509437371597
0,196210770076471
0,188382195104064
0,189622621144153
0,190647001903273
0,18599069172954
0,189118783072529
0,181508430668469
0,194784710236617
0,191118083850339
0,192363852175919
0,188609267070306
0,187933944665303
0,186952492286833
0,184519421336405
0,191264395700837
0,1849903779455
0,184664361000046
0,18699807495459
0,182195702319934
0,196351067425006
0,184729592117029
0,186666461967637
0,18785531370423
0,183357716970982
0,192656042976946
0,182451117712621
0,192922116274274
0,188263379102477
0,183065802276395
0,18910070439311
0,186303228064798
0,188529730629266
0,181794787455602
0,190320161965632
0,185660913580799
0,18874511608027
0,186655805003089
0,182487657226374
0,210178846753132
0,178502181656935
0,195482459588506
0,184758693034166
0,189507464183701
0,183340947645704
0,186379947910129
0,184418129487407
0,189962871032715
0,184845575796539
0,189597434205748
0,185342756001935
0,186582449905208
0,187633167003273
0,182136356266835
0,189490488074761
0,187458866909978
0,186082943698822
0,186717966348921
0,185352415792584
0,182756533693796
0,184626778024176
0,190122700098471
0,181706137604494
0,190659953978153
0,180390261262269
0,190795540228593
0,187897988881002
0,186413823556449
0,187262661867913
0,184623110384438
0,184214766025088
0,185739016132102
0,180265257678733
0,195603372912624
0,184466369685354
0,189076022728199
0,181112673362227
0,185788555745011
0,180617894057288
0,189046048687693
0,183424834780838
0,187181841132148
0,182043557562846
0,185428254952102
0,186905826128967
0,185778897889357
0,184916494725709
0,189788694047895
0,18949956453617
0,188909132149132
0,185746239289559
0,188334842679216
0,181768103237633
0,186998820865109
0,183575335886559
0,187261642922996
0,178898353608861
0,189882078413816
0,178796318779814
0,190618609164724
0,184526866860328
0,184103976472904
0,190834452268721
0,181254178069491
0,183965900358281
0,181160675992315
0,184228301854609
0,184752607984912
0,183715138837985
0,184210517888016
0,18195344691165
0,181850424397946
0,182582488391284
0,181438000768962
0,180469755529346
0,182091115263172
0,181704712634328
0,180264942860435
0,180538578530097
0,184338456459665
0,181295135370271
0,182088139892497
0,18144576780449
0,180555953072689
0,186578585250412
0,184771931214189
0,186655706163103
0,178312772062414
0,185645652795212
0,180250637868006
0,179118038403819
0,180739407511686
0,179048031257821
0,178053596411127
0,182221925542092
0,18120986529454
0,179286517861778
0,181325230378343
0,180088172117191
0,179371033209537
0,178981657652611
0,181490187739538
0,179498065900149
0,180920089084039
0,180976190151866
0,183228161840094
0,175743773034184
0,185169083672088
0,177095844284231
0,18190243883631
0,177324615056813
0,184857645607464
0,177752696981345
0,183487121193366
0,178150416390634
0,179852412744555
0,176508353597778
0,18278597323463
0,179153126930064
0,180310201572768
0,176523650927712
0,180076720023373
0,178656396351803
0,181470584158881
0,178930738083808
0,179596208868742
0,17711689670925
0,180041664771961
0,175657676764049
0,179389259675277
0,179165064472439
0,17930599189373
0,178424430990033
0,176460615746041
0,179419618453556
0,17962942435349
0,177165683366294
0,177810576919294
0,178640203509306
0,178538871696134
0,177009095247053
0,178736953477186
0,179010111549599
0,176681914658247
0,1795945979556
0,176432460043434
0,180311752806195
0,177406549056703
0,181096319719888
0,176185805734607
0,176752642967102
0,17755051692906
0,177672551176845
0,176309440402319
0,178185052432571
0,177539018592651
0,176757364148808
0,176490560416419
0,179806335278481
0,177663878601645
0,178592211698057
0,178278742400831
0,1760825173535
0,176929490435199
0,178673413607377
0,177788916904735
0,178402798861377
0,177917747381331
0,177336493753522
0,179696384783943
0,178084423527615
0,179831919272096
0,178107058995281
0,180419065929475
0,175215082791702
0,177943785732891
0,177122166205551
0,180148531676472
0,178185421206
0,179817844621899
0,177939270557588
0,178743108494211
0,177723035282685
0,178595064107424
0,175075200933095
0,17758390704888
0,17590653756652
0,178798754585888
0,179148290634674
0,177606254715551
0,177654894691761
0,178376364934613
0,176603926703781
0,176723876663618
0,176137983909951
0,17826036246926
0,176108007425865
0,174846060831793
0,175484140596165
0,176185377341289
0,177024078017684
0,176794694953709
0,176273937753041
0,175540796514295
0,178231638471599
0,17852518179663
0,176138441487849
0,175832478264925
0,177707912491437
0,176281471603405
0,175417239700452
0,175950617214525
0,175795186051321
0,175763128459691
0,176187544333542
0,174082399476047
0,175673183038354
0,173897625170445
0,174222224857785
0,174809868502555
0,174115500653595
0,175181057231852
0,171206806075721
0,172833015949602
0,172172627675653
0,173945801797033
0,172239780915622
0,174038359162954
0,173525279225057
0,173679895314633
0,174149996184156
0,172787809807834
0,173556180912921
0,173399901560353
0,170916034485473
0,172492313771646
0,17297245920547
0,173166970088743
0,172124943395994
0,172996477713401
0,172557083496581
0,17087466914209
0,170335120337645
0,172656769405101
0,171330713712718
0,17029294364126
0,172191840707697
0,171968773953925
0,17182659201157
0,170224027749288
0,172060472213488
0,173979785943329
0,170455317398359
0,170592797075499
0,172553681989843
0,171863137186469
0,172874371706762
0,172964936719969
0,173089849502897
0,17365107000338
0,173306299738213
0,1720642799981
0,174263031686391
0,17501164861229
0,174899745037524
0,176415396645801
0,175218069170374
0,175553433387536
0,176597481614935
0,177452461130426
0,178875239249059
0,178420419137795
0,180678042138151
0,18136030416748
0,18090327609875
0,183053389527719
0,184143661759218
0,186398291174266
0,184472314559432
0,184946738149708
0,18324141597904
0,187348834388914
0,184537177759833
0,184861785141487
0,184217986573912
0,185164705840648
0,181515263672652
0,186472363882981
0,185854716057496
0,183782669241308
0,18258726921946
0,18248502687888
0,182231533897469
0,183209408661412
0,18350271493986
0,183629992110611
0,183189486896643
0,183001524025158
0,183497242585791
0,183536452875392
0,181830969142018
0,182066838801396
0,181844530879085
0,183012271298838
0,181103179128421
0,183629154923347
0,183186285674287
0,182653730498954
0,185175408407751
0,186076060478233
0,185229154911563
0,185106395527215
0,187559628169998
0,185303884193915
0,189599855636651
0,187946394459793
0,190269332194734
0,189730338372822
0,191520341041429
0,191225304360299
0,191726864500346
0,193837727796778
0,192242353490963
0,193043031598839
0,192251389418952
0,192726403349393
0,191630064754584
0,191698375189328
0,190291934747891
0,19445782922518
0,189723246130348
0,1897497151279
0,190615921911738
0,190798338434127
0,189486963049215
0,189276113309618
0,190340562526235
0,190769036177169
0,193964833117068
0,193225507312917
0,192177641011074
0,19553224001585
0,195105689655711
0,196771397886182
0,194646881310162
0,198219082928038
0,19724420172077
0,199651139468758
0,201535055011667
0,199087419406596
0,201171885469299
0,203026505779592
0,201233113008336
0,201816224658449
0,202211371569734
0,204796267321147
0,204288935289349
0,205762138192781
0,209787793659022
0,209417227855132
0,212223568024211
0,211284051330923
0,21356788439801
0,214208583386847
0,215775508688342
0,218280953513653
0,217668116901267
0,218131815253701
0,21964832128615
0,217786667905502
0,216769823742906
0,218798369956055
0,219359416289477
0,219021344131167
0,218444412138656
0,215857750798126
0,217650584315339
0,213490165017098
0,209663447748074
0,209132696753291
0,209517886094853
0,210216299483959
0,209766584497939
0,209937350832334
0,210105018346204
0,208922783495345
0,210028627201143
0,210365917157345
0,20970822964148
0,210335571266708
0,211032499660548
0,211748526387613
0,212168420542039
0,215469972963391
0,214182223202143
0,211319958325253
0,213548307157975
0,215253110659337
0,215248707956908
0,21449007245192
0,215714586977418
0,215685844634124
0,215362165267219
0,218719582107338
0,217828196039487
0,217350336199468
0,219549248343729
0,220569175017807
0,217013419387079
0,21923436606748
0,216831961079048
0,216845836679499
0,21687485611374
0,218094135692218
0,220257141870071
0,220362052551518
0,217762672692558
0,21629748564892
0,217287889507943
0,213666515765342
0,21481655911431
0,215622511823272
0,219270829978665
0,214818957921907
0,21507798848412
0,21518715680385
0,214588161524293
0,211610608698163
0,212745220168545
0,213797810783219
0,212908214248815
0,208465188872002
0,207720720848341
0,204294304447767
0,205737854275285
0,202989117574467
0,203904264105624
0,201942684114886
0,20277591779758
0,202370431990207
0,202868860136009
0,202492584257315
0,203278711658862
0,198288541149179
0,201147169363821
0,205651499030097
0,202232536692558
0,205176978887809
0,207518993299343
0,205228303776655
0,208690454219428
0,209776965086069
0,206391601082607
0,207572636273051
0,207086380151346
0,207277112432747
0,208757050446598
0,210143825524998
0,208325078433411
0,209928319668126
0,210327236011656
0,209005426508633
0,209341853307178
0,210771465401175
0,209110698631298
0,21142532647831
0,21094985164659
0,208868243269721
0,211097481068964
0,210043670672621
0,209353174926612
0,211785393018771
0,212843435764206
0,211809189989498
0,214071987490167
0,21365627876349
0,212628159624117
0,211995806027446
0,215196736229795
0,215818252550096
0,216489283522952
0,214354869857608
0,216200088729003
0,218450785096534
0,218009034107909
0,220857518976947
0,221229875236094
0,218503440379934
0,219749229867225
0,220226358411127
0,218896343084585
0,221913075911453
0,222213362235831
0,223954712530944
0,225879061833246
0,22478168916142
0,226630137950343
0,229673600681578
0,22807322476758
0,230098558943974
0,235336175063006
0,232149742441192
0,232587692688731
0,237968904771284
0,235512993358073
0,237161775313033
0,235073594107938
0,240434177025641
0,241836237895957
0,23851026840292
0,242604150558845
0,241023781097925
0,243146524177728
0,244724773963491
0,251389749212164
0,245326644169439
0,248483552045644
0,250902364137489
0,253159293779822
0,254920354263195
0,254694016394353
0,256098351381699
0,255179205513499
0,259212045062714
0,26437358529326
0,26076209390368
0,264618767677122
0,267803197624635
0,269417641563332
0,265741170739871
0,26629373448861
0,268687373779551
0,27390186548734
0,270818806342072
0,277820873190613
0,27525360506206
0,280736202034444
0,282985040898751
0,283471864737553
0,283433709801922
0,283672910252322
0,283939940248176
0,294154239930089
0,288837982282168
0,291403892413085
0,29729125864913
0,298444253945477
0,300205163713699
0,302357141279618
0,305207719781433
0,309823238109888
0,310780381204941
0,308754418598409
0,311944680316818
0,315575274868023
0,313015719437546
0,318748608069099
0,322862682732388
0,320835471516317
0,322368324486565
0,327344025954051
0,332978594445323
0,328408697793856
0,336913828070685
0,343251548809122
0,335891844305524
0,338413782504097
0,339113157925324
0,346818460824111
0,350081490543752
0,349599325474972
0,352040446833062
0,34897370167648
0,356574275574944
0,363917246654652
0,362144469308825
0,365325287734284
0,366922528786781
0,369075051661502
0,368338179744061
0,369093557258584
0,371160199589908
0,3865688264947
0,384266569680939
0,380104642609438
0,386749393214523
0,392798761141378
0,396690430786235
0,394982389013511
0,388382745429324
0,410147854410746
0,406084754522172
0,406251890184201
0,403758033234703
0,40436101665776
0,416367107209248
0,426703994563864
0,420771872977203
0,427418181256067
0,417335988078168
0,425096848997745
0,42995573993579
0,43346655443593
0,438792614303566
0,437687152971644
0,447134680537678
0,446248851839545
0,44472089516213
0,451961436607181
0,461134938992573
0,46792968532782
0,459814920530511
0,456588671768911
0,467728139737222
0,474531101703291
0,468565398011036
0,477905887609567
0,48490202119943
0,482376604079611
0,479813265873919
0,487505543885831
0,480590504490429
0,482411736321744
0,496805758892373
0,496926637974533
0,507752946414103
0,509632691661804
0,51144824128776
0,507132041528213
0,510549284955251
0,524735563487155
0,512660776376483
0,529360675796486
0,535932536331129
0,534470436867823
0,54071068293464
0,535096818891342
0,52937520148339
0,541678557215595
0,551113032608913
0,548623935913584
0,539259574794351
0,557012110195201
0,561193781886717
0,564424362845682
0,553606395753111
0,567598521685148
0,593381234441155
0,595783863481361
0,588226046864938
0,575525143226379
0,578386538254058
0,592456229209885
0,589331158017044
0,603867348995726
0,605699549725696
0,6008570001888
0,591691968530168
0,598954951213917
0,615751447546244
0,60601514820824
0,600031683180476
0,627866241997191
0,619051719522721
0,62650541245222
0,645672512605252
0,628766017047614
0,637477201873981
0,642928943312809
0,649125005329225
0,660599521267082
0,666110423654044
0,680952443914161
0,68865014737355
0,665018824355687
0,664221518272308
0,682782864498593
0,662861083960466
0,675962330307211
0,6718684763523
0,681618092802462
0,671215005991897
0,686053925362266
0,669355985635509
0,671516345144361
0,692557501596146
0,737579483691516
0,724990508235672
0,726209796422073
0,690726249729089
0,685746701384844
0,696830560751195
0,721309891404936
0,759026449451628
0,726284935353272
0,711057943896899
0,74984368763594
0,743065226755211
0,770964134869367
0,771146925067715
0,763282329959697
0,753589862840054
0,761768828588068
0,750381701373971
0,735370834799283
0,777846840032813
0,831478480522838
0,798231672344883
0,796102753200007
0,819219587322482
0,77602903833659
0,787620187464969
0,794040151817931
0,763181408261015
0,825387995497326
0,785696929147898
0,843463529021502
0,836093661154502
0,784789749437477
0,837244693128572
0,852166006733103
0,794953635306526
0,816473282091932
0,858040050086365
0,840006912532623
0,842001596305729
0,877118777382795
0,852000384383437
0,836880523101108
0,878623229892963
0,890599520382089
0,908180956032046
0,949751463461799
0,901834724439569
0,881183107783013
0,860482998442497
0,939911900167823
0,929781053837548
0,902020316655871
0,845798768945374
0,825649871977432
0,902235290649913
0,873173638674753
0,904077526867592
0,879033124071984
0,816168059453434
0,910915700713578
0,907431339487804
1,0594895140531
0,912483003395198
0,854616220762508
0,969514622640851
0,873382369498989
0,846842150074158
0,945843945371273
0,93215449281548
1,06343551589877
1,0386759178413
0,945478152348839
1,00860856344092
1,02773087468033
0,918488748138017
0,9946674361023
1,06075650227075
1,14432462963762
1,17777617582037
1,03450780225257
0,923603431834393
0,960743587991373
1,09136334175115
1,03047210560384
1,08147315206344
1,03033361953427
1,02246008094075
1,01842917867987
1,1331030431992
1,08727231937411
1,03508979599205
1,01196355880965
1,06044097472831
1,23559485320599
1,07673574555253
1,26389906988076
1,14226424508642
1,03506313385383
1,04083136983058
1,23875541792505
1,2594886259665
0,92139278725404
1,41861789495035
1,07103304928879
0,814945407897146
0,938736237946715
0,971444527891442
1,46012263143792
1,10932864731029
1,07976782889358
1,55056104407751
5
1,5879376066769
1,29652730538276
1,20159403316216
1,17732913702661
0,99864004787686
1,21371366450267
5
1,23201459300788
0,863173121320495
1,06419636963189
1,57904383708542
1,03024989691825
0,681992135222935
1,58128636506532
1,30911133801441
1,27905445912003
5
5
1,39414710336992
5
1,73077459512121
5
5
5
5
5
1,07685030160295
