3596
4000,36533379555
650,420452594757
1
2
2
0,011925351324972
0,024327945671075
0,0208355895995873
0,0205166950778974
0,0162717121730176
0,0251005589739521
0,0201514723699032
0,0211655840018686
0,0102368619795003
0,0300962920540483
0,0124750377461702
0,0244214288308816
0,0175357146992738
0,0206809570866131
0,0134246367648111
0,0207884006501421
0,00862305031443432
0,0259095673774899
0,0145139717075896
0,0270613250564904
0,0146938123851871
0,0254008065709848
0,0181963158604383
0,0246543187659846
0,0158097611916383
0,0241866545539445
0,0113906896554319
0,0302866654824884
0,0130919028693146
0,0208620771644779
0,0181814910938381
0,0288930166225487
0,0208160625865365
0,0245522016054857
0,0195245185670686
0,0280392747983799
0,0131532851879962
0,0191637528501459
0,00968815602930102
0,0299995963905119
0,0128570708495593
0,0319550460139707
0,01106468573804
0,0171229774042425
0,0260213680694147
0,0242448836256995
0,014759169416229
0,0219273362509116
0,0167125497534922
0,0179824376270817
0,0199940084679553
0,0256459287203216
0,0219577322343757
0,0258012104621528
0,0196208957239474
0,0285124224946005
0,00325603250635904
0,0242146259482164
0,0168257624249611
0,0264233827808407
0,0276942900201297
0,0215596785453926
0,0219222811437341
0,028640792947233
0,0181656635891525
0,0271564715107296
0,0192390238557703
0,0285201078087205
0,0246995976912771
0,0376100561686161
0,0130944352497223
0,0317657370453994
0,00593221749668945
0,0229701933421314
0,0182745546340393
0,0170456484135797
0,0151666022498201
0,0231120773821695
0,00973250815265668
0,0389896560276999
0,0157981719403677
0,0237271034387839
0,0198726912502172
0,0261971020858025
0,0198957230539359
0,0257294344357371
0,00761037123813581
0,0394828814105792
0,00848631399534687
0,0296387604228106
0,0188156701016005
0,0352655747931719
0,0133884107335595
0,0259174959746891
0,0124090159672038
0,0313271491163159
0,0165858226352854
0,0273041476830983
0,00846654766229629
0,0359121503097817
0,0194225704283214
0,0454645871805519
0,0109157803995767
0,0108184065454378
0,0511461893536026
0,00622345020975534
0,0244250628286597
0,0226435931058948
0,0074027748383895
0,0327213926845093
0,0112801216975118
0,0284364197341702
0,0173607964851744
0,0366123385741734
0,0133444241725707
0,0530352830161752
0,0114569219027198
0,0238693996227569
0,00823839296159818
0,0334671396769604
0,00964413139717866
0,0474671823176465
0,0123798739111491
0,0303360655768311
0,0133862723802832
0,0253198767524462
0,0207727223793346
0,0347051960307136
0,00134360916646136
0,0248709716519148
0,0146039118293462
0,0316302715270192
0,0145088994454192
0,0336982598033
0,0258441221588777
0,0121559550209407
0,0294324939448529
0,0353352613118761
0,0355320263937267
0,0320781786137019
0,00711254757337147
0,0260159712664808
0,0112690259806988
0,0338471302762999
0,019440423257431
0,0279194271938081
0,0138381542020597
0,0209711669791098
0,00652722411863224
0,0288938924563863
0,0199032555969206
0,0281138870918026
0,018119648658148
0,028282263218098
0,00845352091233365
0,0857715714544132
-0,000665180862434989
0,0430530176222892
0,0228602948947823
0,0153513673232569
0,0349477499763041
0,0201145131469722
0,0179104876046728
0,0168218039092691
0,0258059055783413
0,0263577918449402
0,0278196126512391
0,027908619846228
0,0218132586211985
0,025384483661531
0,0220094017118645
0,0178741206806375
0,0186269965445132
0,0515157209094853
0,00368296819530377
0,0385286140422843
0,0199695252271719
0,0302959308816016
0,0082727010952766
0,0291039197766778
0,0145783146175839
0,0229487578400478
0,0280890834018241
0,0270914325448757
0,0211956797265812
0,0331644991829086
0,0162871681637309
0,0249651880690721
0,0194865303540889
0,0234525072238406
0,0297395504507324
0,0386565381238299
0,0133832912640469
0,0132312077594001
0,0268104195741111
0,0236492679186674
0,0502177045894473
0,0263230013918046
0,0202786760040949
0,0269297490621709
0,0210682905579642
0,0267971828381213
0,0134015230385443
0,028551822328582
0,0236185228231056
0,0223187372240897
0,0352049378772995
0,00926174522437037
0,0260266328693898
0,0189644843083289
0,0240358470553121
0,021752102207838
0,0474253748008538
0,0199353124929734
0,0202822416044577
0,0312767093778549
0,0232657841666196
0,022897942966683
0,0130825946286845
0,0298695227453861
0,0287103990814211
0,0289515205407015
0,0202046792279538
0,0276473077907161
0,0272118775523576
0,0344014117442247
0,0226625544514686
0,021854535054249
0,0226892564756718
0,0285578952445692
0,0293904566590836
0,029060400980528
0,0260244361912626
0,032613019456334
0,0236232786478466
0,0371363901535178
0,0260387364633533
0,030683296992052
0,0306057165418348
0,0289322015626563
0,0234527767520336
0,0332783036586769
0,0295290139457391
0,0286837187949834
0,0343830399101829
0,0249919930816585
0,0347295530350514
0,016442658902743
0,0296746883831202
0,0146036276503876
0,0493624821795699
0,0292384026971683
0,0277958662224728
0,0284626604516322
0,0280136035760583
0,0321695919956591
0,0420255653815623
0,043394626759668
0,0249504333035571
0,0254252705821159
0,0354991186152505
0,0339100653391057
0,0267823715218868
0,0505552662296637
0,029571345615822
0,0518431081684079
0,0160556984023618
0,0368546176557034
0,0342776437088049
0,0267306817592272
0,0327411658786925
0,0371713186408648
0,0325453156540802
0,0865854556084342
0,0168898304360478
0,027928004377479
0,021904420281796
0,0466556214616525
0,0240753313603057
0,0476982928326804
0,0346065130290815
0,0472059802414783
0,0303143718274974
0,0293217443191237
0,0535321414065206
0,0209267004253649
0,0553039076304472
0,031165771153116
0,040361588588207
0,036320017643824
0,042391526732794
0,0386906040860066
0,0416838376131407
0,0438266520557994
0,0359460041316426
0,0512739269332366
0,0384218883098318
0,0611808126916527
0,0349523360785612
0,0485069724855833
0,0421877448799669
0,0558486608900216
0,0346372894419079
0,0540728664002811
0,0385442357686907
0,0572923577092986
0,0447716518087371
0,0567124137771918
0,0379918854878015
0,0535578097547969
0,0505416628237802
0,0719749702696881
0,0445086011909248
0,0545207515128893
0,0404853021709729
0,0540840416575335
0,0508068682697378
0,0637816009546853
0,0418443440772876
0,0787580398271672
0,0516485806904799
0,0635780585957486
0,0503627447328958
0,0624468890051207
0,0568595847224768
0,0708567712149109
0,0640309951612815
0,0771886071538926
0,0804282974477739
0,0772847775626473
0,073203116833456
0,087432161590337
0,0620152313100026
0,103306341069737
0,0833248340833949
0,0816288337216838
0,0827470214076618
0,0871747807435209
0,0921470343158854
0,0916421673914053
0,0909578897438964
0,0968880260070265
0,100001836003611
0,111834009276256
0,10113834215774
0,116874120785964
0,124711315477205
0,141203456196738
0,127133819835644
0,115528291287775
0,120032465973436
0,126590432564804
0,143284806537566
0,134057240747231
0,123651435976395
0,143526110643278
0,123181613782701
0,159880170945469
0,143554387476273
0,161912689077205
0,147067414059815
0,166778527000488
0,158266163835428
0,171491070581079
0,163508285333773
0,178378158866302
0,161623016804446
0,189609869105601
0,189672949225313
0,182069754525349
0,178238227229578
0,205445132272841
0,190486946967102
0,236776173464165
0,196343316392369
0,240455349135152
0,215871682071298
0,225453674991226
0,218601864877542
0,214352392982653
0,221171162059504
0,220928462364882
0,232829815945167
0,234668295849845
0,227436987039267
0,239111296627074
0,236323342404066
0,250958634996271
0,24981910017657
0,250820736174102
0,257558165240894
0,254992325224086
0,264401915258316
0,261950007416205
0,268689077082131
0,271371253859116
0,299835923121262
0,309702879248425
0,285820616588147
0,288069463586391
0,278575513884269
0,292562704192055
0,278783895459681
0,300563202081979
0,292165343746866
0,318854416141846
0,291367653449897
0,335783806872799
0,301143859797741
0,330865505286609
0,306585701262726
0,303432958135444
0,319346286329519
0,323025063144884
0,335510447710518
0,34156766985302
0,319938538786904
0,336491905013028
0,345196434671975
0,346928375926702
0,329036878064155
0,370350406884643
0,339575824564058
0,355367820874247
0,345982805518946
0,376302953514505
0,351208446637241
0,38106643100552
0,365929423237684
0,373408878637697
0,372726440377728
0,38356638079766
0,370729181370573
0,38660315532043
0,380409087227169
0,385944761259769
0,389566169281236
0,390473749255812
0,410294845476391
0,400191304889955
0,392160810871631
0,415706855606694
0,392994629172636
0,401759492169184
0,378819470000623
0,416616960753005
0,405262746053767
0,424927334545033
0,413369332050516
0,450685800236031
0,424900876401537
0,448566354487143
0,425102956080189
0,441975637297048
0,419103027323269
0,445747396138663
0,427097997465956
0,443714115066595
0,452372188429835
0,455538434696446
0,449178155153356
0,471138744104106
0,478962296395738
0,496663069623361
0,473002198140136
0,495244598855057
0,460180139744156
0,474169303343683
0,469614628631898
0,495329305625776
0,489975230545038
0,49586191181533
0,484618180012223
0,521034141895783
0,495313568282981
0,509858483684381
0,495348165853848
0,516921831979011
0,508253196427595
0,519128956915225
0,487144500175194
0,517753922898582
0,498186792607809
0,537924432701163
0,522485047429193
0,557653173657784
0,53203569671393
0,549700914493421
0,527473550240667
0,557060968066455
0,532157993856049
0,564611685850747
0,541026668204382
0,594334766889266
0,569305733724687
0,586168296719407
0,55849823126449
0,606271892271765
0,550492439691417
0,566361477574879
0,542970431630988
0,603627924324334
0,554885138384293
0,593497310248458
0,598391618323664
0,613810780222618
0,586380104382487
0,622041296260217
0,608294114892412
0,614321731658831
0,608808264490894
0,643491673341828
0,641410313459718
0,647123158354434
0,620306620243592
0,655306043547931
0,643224759577394
0,682413184941124
0,64495623037441
0,665379530852692
0,627926129981889
0,670952420139662
0,646652517494924
0,702701723754195
0,670390584456348
0,658000051008377
0,662555509854223
0,693943399165958
0,653652138170897
0,687888032353697
0,666440530600875
0,727335058536306
0,677126650615707
0,709567929015561
0,723396664866248
0,713759329202363
0,669836412894901
0,728342366195508
0,698161989258763
0,731867918788895
0,714430475193781
0,731432268503471
0,711035445092391
0,738743429347988
0,752140161713036
0,742553181388601
0,689177565735346
0,754953312695939
0,76368345504217
0,767925677138288
0,707965680852159
0,755103670361984
0,772260838762889
0,783451234756253
0,751931997171125
0,787924732003078
0,763253715369694
0,800899455838659
0,783681426588769
0,834537227576392
0,751414681015225
0,765184000410354
0,795214258209248
0,820505445199737
0,803965667850012
0,840446830158601
0,777434825622023
0,825669352063641
0,811294586565596
0,796068413725416
0,814293264225956
0,835382938016156
0,865531104054742
0,88963031729101
0,835232856911306
0,871653505047979
0,865212655791159
0,883553218935737
0,848588030763567
0,860638421259228
0,836257829528238
0,880299659493039
0,878297757967103
0,897171464419493
0,848688238964534
0,877814112481035
0,868067249305194
0,926596507016525
0,854339573262064
0,93457395217301
0,880967394016509
0,928198539141924
0,904399387412029
0,94970188941729
0,920989013645082
0,949598884838931
0,875749526482022
0,916936056575109
0,931113074027116
0,936495825946583
0,907983785875966
1,0048775741407
0,927482405121786
0,988933877269097
0,963653914682491
0,94572067192011
0,942107566947878
0,968748886123182
1,00834124053045
0,997412456751632
0,943799448954989
1,0455136278481
0,959441850884422
1,00377181151035
0,984833322309789
0,985897767822998
1,04920175856991
1,04037131801269
1,06877080371469
1,08399881879986
0,989122886544097
1,02551698021519
0,985745293143972
1,07040315831194
1,05380897658629
1,04432207699144
0,979447384524449
1,04441368053167
0,987898024748192
0,995233234256559
1,04823747614718
1,05922964416401
1,02273144735728
1,07460198290682
1,05633970768537
1,11527890474361
1,10756715033283
1,04413921309887
1,09272532370337
1,13436473484879
1,03912522281425
1,02352656019685
1,02512427283232
1,05889590398158
1,01965872769332
1,07350541083808
1,13631134854748
1,17256902599339
1,1223133052309
1,14068663463791
1,08122901440517
1,08304725721432
1,16688761835729
1,21048489293448
1,13694055570275
1,14020770881481
1,12917571398408
1,11094553367876
1,14244315608661
1,11580356968101
1,01930985614109
1,14827306516022
1,15621999974684
1,11747314731066
1,09844933528422
1,20592585664253
1,1497023605858
1,09495307092426
1,12591972669812
1,21435112996982
1,19850434937234
1,14507753039244
1,1761973977591
1,24740372048913
1,1567887707553
1,10420545103356
1,11465857494485
1,15084335486721
1,1622815727663
1,19455394772839
1,19510981413835
1,16453521816457
1,17011569459215
1,19737249739848
1,13478131244356
1,16922274375153
1,14832353141474
1,26932134454393
1,20668704634842
1,14711443133269
1,24167174487756
1,25335485976323
1,23446216408323
1,15136615017401
1,11531807061577
1,14633608619891
1,09559131574966
1,17881455861878
1,15934210000282
1,19566100080625
1,2686539112297
1,2123974439815
1,16485850679722
1,21583369846889
1,12095334094846
1,15542771188814
1,15495563537921
1,1434329844253
1,13376652070526
1,15586546841876
1,25592980472462
1,27429267022989
1,20835856380177
1,17880547335266
1,13843107944952
1,18843466224902
1,2054719607615
1,17861705639381
1,1745995928469
1,21650659870059
1,22941679820382
1,16601885326406
1,18547174723987
1,17119877002027
1,17288757789171
1,23489486175356
1,17062418888744
1,19792114920194
1,18468637997021
1,16688066880972
1,19111019129641
1,18931112999848
1,17553661244649
1,17134660979438
1,10303387421809
1,15505843041709
1,2077548538079
1,21499058623555
1,19333214037589
1,12888396503083
1,17944475719404
1,21690496570514
1,1367282490888
1,12056556313595
1,13709313129793
1,18278478936989
1,16363820923079
1,20933719282692
1,19223996805629
1,17772476163728
1,18733372380425
1,22182760255614
1,21772742403097
1,19511460410665
1,16986055319531
1,13513782411689
1,16101927253463
1,20544264517638
1,2021654948955
1,14822624938109
1,14205054939125
1,22602497363827
1,1849927243964
1,11169124357158
1,18461781828477
1,22949587796697
1,14743870055061
1,16396177457154
1,23044970114755
1,17288493035802
1,14502704231603
1,16116504258118
1,16036507024617
1,13901640036066
1,16114497846768
1,15078685562041
1,19459052120087
1,18748122108084
1,12312162201172
1,17397247008953
1,22666918052334
1,16463909261567
1,11232130024085
1,19785918641386
1,1661406442315
1,12350795952762
1,16083992777068
1,13278891571699
1,15967315017568
1,22403479473032
1,12263359879559
1,16181392856666
1,19688585765489
1,15821073407354
1,1623731415086
1,1608497271677
1,14397188447257
1,14012023200269
1,1669562425992
1,16967471807926
1,16409541430421
1,1844105948522
1,14449956250774
1,09623921740624
1,16298014528169
1,19938813942531
1,20916950239042
1,20621487166471
1,16149099374494
1,18352957249712
1,16804228072849
1,18086546579299
1,22610997980102
1,13458392044116
1,16504906339223
1,14300933447685
1,13027850814737
1,17599422144362
1,22126762754714
1,19093158961529
1,15788419970479
1,12955911305826
1,16344549318238
1,12284490161576
1,11195998730987
1,17893843385151
1,18093653778666
1,12037638964142
1,09637706665367
1,11934129656246
1,14395663584665
1,14268559382128
1,1689013327832
1,13910836255237
1,12901105824347
1,2036157440937
1,17110852886879
1,10615926020503
1,13247684366189
1,09993948735344
1,09550851206048
1,12205287715996
1,10550631545192
1,08152228237266
1,13018595865864
1,09705725047392
1,08194306433509
1,10984110061492
1,12492832016034
1,02445172876652
1,05875616807986
1,08508961604776
1,09028259320753
1,12512033938476
1,11790143197732
1,08409406893683
1,09026765479375
1,0822659342007
1,09100993243298
1,03346106510737
1,06005350001239
1,05194591150283
1,05131976847344
1,05947652470958
1,07935330714066
1,07964776334922
1,07951045957008
0,982914991145525
1,01416115420614
1,0291376483438
1,04927798080414
1,01120358742719
1,0138805493667
1,02408608454216
1,04312735023884
1,01559878042684
1,0018986941279
0,985881459487387
0,995453250790701
0,983396010493844
0,980441890648537
0,975075713071768
0,959913350063958
0,959818840833506
0,970364331595142
0,951396539543688
0,937472111573484
0,936518971936612
0,95063681954029
0,932487568297965
0,935175027228105
0,940957060324881
0,900725089376724
0,910076986706699
0,929987267889135
0,914695094821532
0,914176145588185
0,92615182195295
0,912087006690138
0,912250906828798
0,890002811840596
0,881088900030871
0,887937145883533
0,868595895465122
0,855021812035979
0,852756081226806
0,86449706044255
0,865123909934657
0,853557594802324
0,848548229329644
0,868853336303828
0,835608666445351
0,831562805192889
0,834157824034346
0,824021545218055
0,815249577234561
0,830836113525876
0,802912727855904
0,809871886189986
0,792833910454905
0,792510416964627
0,793168774209336
0,790683054601188
0,757796125893991
0,782491478720874
0,773931008693931
0,758630344163092
0,766427469721453
0,763102582354983
0,757787510476229
0,750347173623682
0,73154525692162
0,733780772299944
0,73430255524948
0,746999950868203
0,723013732495558
0,725023227745208
0,723112495013558
0,709672093342082
0,698491719107564
0,70113296459712
0,691214870873047
0,68684317605447
0,667347142903377
0,685923070313349
0,691377922431765
0,686175698182477
0,674413758194341
0,668320936761898
0,664917595314212
0,668742975107779
0,660356657873095
0,647570262208185
0,642522876258102
0,650950294335574
0,635862415631571
0,635793384496431
0,632604557121821
0,626776947628135
0,629196224237162
0,621877873408413
0,609822879146663
0,618701392977726
0,608635138849792
0,606421414246242
0,592931401999611
0,592077468877205
0,593062514902351
0,589294152747137
0,579473337732549
0,571463289050382
0,568351903792254
0,567734239186287
0,551117760516436
0,56429408631791
0,551819910488896
0,562576480793282
0,556011533869273
0,544115436299372
0,536202586234461
0,533414320542292
0,524703200256022
0,5365298191101
0,523521402710592
0,533078564386071
0,530708385095028
0,517126832117001
0,507195712319941
0,51524615096399
0,510754978120617
0,505838667454171
0,500703292044944
0,485589967338626
0,484693903394376
0,489648926085728
0,478638324990501
0,486162206171792
0,474086264986049
0,481631765074064
0,47327702044327
0,464827173427081
0,462874894632158
0,457140324661828
0,446214104000993
0,449930430695193
0,460686674631533
0,456767913070821
0,450622884499791
0,44472089625424
0,438078662751545
0,445339050189924
0,441027324523033
0,44030661916303
0,423640872429352
0,432035451106252
0,426521194342258
0,410144022543452
0,407901858367609
0,414734498825312
0,411274193927061
0,406992316507635
0,399611253860933
0,398225546157281
0,394299097197059
0,402090189572212
0,395406250403873
0,39484469551032
0,380949137392524
0,381820755039022
0,372578168209112
0,380912550436485
0,377878939370327
0,371668391226075
0,368134504925347
0,372840806684693
0,369907449515553
0,363215760767231
0,365810867045497
0,365459136784645
0,350966775008395
0,35598960327764
0,354292677894398
0,347742743062987
0,346127783206372
0,345121223658399
0,338066079946296
0,333128105890661
0,337304889454147
0,339952614422
0,324860904672303
0,327243619296793
0,330361807108568
0,324857631455195
0,316332277390688
0,319045077520396
0,313371521220308
0,313221795997134
0,312528359079928
0,308833879613271
0,303093486007899
0,307467841772513
0,302983341540624
0,301594173974034
0,305590895279228
0,297344751586481
0,294399986365379
0,291614917401152
0,293650152167345
0,288016130726028
0,288394163594451
0,285521078394591
0,282428549064816
0,277159833897602
0,282694231527511
0,279055203361637
0,271637872331383
0,273794808023333
0,272169937104212
0,271002322963376
0,267894875080054
0,268738649932957
0,265355683102386
0,267671700529045
0,259109363463279
0,259728769009413
0,259985933697602
0,262086997692513
0,250841781409155
0,256537215724822
0,253560251229794
0,250643615445945
0,24093884456852
0,245117327839622
0,243266101970445
0,239997722632603
0,236814404226566
0,241068305511073
0,23978888751838
0,233926447389798
0,230235689734745
0,234049264721907
0,237300610517686
0,229685562979744
0,220611166139031
0,226889550564016
0,220504084108139
0,221283330862442
0,214627457924199
0,223530051086864
0,217386007145065
0,219684714065995
0,21837365562847
0,211793273481998
0,212225965739505
0,210941848565955
0,209227114465535
0,208193455887026
0,206635442345065
0,203941853226402
0,205137384061421
0,200954075134092
0,197757229109081
0,201356010780935
0,199291146276626
0,198905317177738
0,193123477543817
0,193523708330597
0,192280524075128
0,189574639142624
0,194373212311642
0,193103887709181
0,18537428957492
0,189199568019902
0,184926334572617
0,183062673818162
0,183199162660753
0,188234481279021
0,181183108766278
0,180189250543237
0,182162115517907
0,178787182946448
0,177535995201173
0,176522485393912
0,175957156733017
0,176424388498599
0,171466041391918
0,170783048692001
0,169793161267256
0,172991329006181
0,166006633156913
0,166118730126573
0,161401922748674
0,165980918743854
0,166593424273445
0,163841359163244
0,162169725270469
0,162068493727685
0,157282463613428
0,157599119752583
0,16046323706655
0,160076323719201
0,153382723492897
0,158292035948074
0,154677425091075
0,152480654958413
0,151862855113848
0,152813866506853
0,148994157742457
0,151289627859518
0,145846936319922
0,147895373259033
0,1454100919381
0,148173194237794
0,143022605058007
0,143364020637786
0,139073612174767
0,140601083428765
0,146623542206502
0,146395800910584
0,138039862694127
0,140834111761759
0,136681073032666
0,141523394592279
0,139199088867917
0,135655103045102
0,136993164309767
0,134714027265027
0,138294301826387
0,137660328179349
0,133590543198011
0,137823462893495
0,134004851602134
0,131842574005872
0,132441821430349
0,126648160740488
0,129548061899899
0,127843467800871
0,123483189922505
0,124842895481394
0,125181254323345
0,130506602003872
0,12433549179574
0,130059612559571
0,122628655194444
0,120649657487429
0,125365930099946
0,127844814274031
0,121880219770743
0,120377770955909
0,117308033807727
0,117082988435248
0,118269601944983
0,118343427759082
0,114107165869474
0,112426532672058
0,114154122935775
0,113039073545678
0,110551131128049
0,113675101627254
0,111225173980284
0,113696902115068
0,114036299093641
0,11129679396103
0,109888858723188
0,111277346680145
0,108477827387832
0,111421337882914
0,101627068233158
0,104599704268232
0,10513906025674
0,10586276381396
0,108945912306327
0,103177657056511
0,1026276309321
0,101227758510458
0,101882161361026
0,103637860622197
0,0997487962182667
0,0974719944954482
0,10295578536789
0,0990317114408768
0,101021683445664
0,101313021561708
0,100809144743576
0,100056653520423
0,0966302822816336
0,0965241017343682
0,0955223173606608
0,0957101662024576
0,097288709493228
0,0967506739852984
0,0943669281711201
0,094107225329915
0,0928789840924324
0,0916913779238107
0,090415305284481
0,0937637084464618
0,0896277206513046
0,0910384964181803
0,0902107475593346
0,0935706037182929
0,0922807017501736
0,0899499273149318
0,0907737554394683
0,0864869256655456
0,0869543088934167
0,0864196104844734
0,0893742079264981
0,0903761574120317
0,089097339692595
0,0889251877468744
0,0870611493187919
0,0867425443713439
0,0843660102820274
0,0850419776067143
0,0840083784392327
0,0842431968136772
0,0811353419507076
0,0846509992757217
0,0846759662500505
0,0815328655850073
0,0862720299034195
0,0882597095788751
0,0812263557817493
0,082095030370032
0,0814261808313385
0,0785188181341653
0,0802225315472837
0,0822206569773402
0,0848557792668127
0,0822367400447609
0,0792897232798041
0,0791781996888827
0,0762759547792348
0,0810692768483994
0,0816642435206987
0,0807026081746664
0,0771184629393163
0,0789295239986928
0,0779027859977678
0,07557818178573
0,0765232766389183
0,0765906927515896
0,0747065301611762
0,0744677531663844
0,0756880195767276
0,0767504688145537
0,0781415739079577
0,0706680648336073
0,0760847558343185
0,071698172914578
0,069723716674418
0,0766514469618664
0,0730879105889551
0,0748648075694747
0,0728787054554063
0,0731615153880395
0,0729550130321322
0,0737564226773746
0,0671427169770756
0,0763301529398829
0,0690530311912327
0,0717003902292476
0,0677469335790482
0,0725542650960683
0,0708363062781025
0,073087038326878
0,0682259838184839
0,0706199595795602
0,0688094777759885
0,0712148947396039
0,0647462835889547
0,0700650444217934
0,0634707580813687
0,0675021448503726
0,0684414860315554
0,0703438578702373
0,0681462668799999
0,0650464454754114
0,064501293156904
0,0618343153747978
0,0646706135185589
0,0670143619785912
0,0666048564487803
0,0656578375568076
0,0641894911121857
0,0661525692861798
0,0620325779216493
0,0673697393797304
0,0654086772565003
0,0655379545058899
0,0699603061304113
0,0676500342880553
0,0619456503226792
0,0680722379064001
0,0662696838423969
0,0651334571172563
0,0639289525349551
0,064673492683197
0,0633001935361306
0,0642604324275557
0,0672908025260736
0,0628049996830398
0,0620535828050416
0,0631524383020619
0,0654714137703126
0,0639582670623625
0,0602094300521727
0,0587719997666337
0,0606267522641563
0,0595366748480989
0,0631761269119316
0,062551348705701
0,0635979805946539
0,0644772069097977
0,0640031186175905
0,0629032332130764
0,0601439155368041
0,0588539244729619
0,0576282142884431
0,0611922174289667
0,0630490597369721
0,0621476850293621
0,061347177985131
0,062592981218994
0,0592627279811041
0,0618913011367703
0,0578154277082631
0,0572066187922843
0,0618338602671533
0,0590284733426851
0,059932789321163
0,0562822896264467
0,0593145377448244
0,0623684089098331
0,0596877538185605
0,0556083269110587
0,0576424441360217
0,0597631370667293
0,0591456104803778
0,0608276207142586
0,0593666889323717
0,0574728923960186
0,0587551647017003
0,0587068166816161
0,0571392991538461
0,059009445043271
0,0569472799221091
0,0544690730050217
0,0548389044388302
0,0568934924010223
0,0565339899603226
0,055988395060649
0,0583672135268433
0,0571975350814833
0,0604373924505405
0,0573532559743086
0,0537428630115584
0,0541156470167652
0,0526035118870348
0,0582984816118376
0,0540857928261723
0,0549946488499579
0,0577166761754932
0,0580559276270606
0,0577740619286176
0,0546889425242939
0,0547675236397611
0,0567067935213705
0,0545608396013474
0,0553068941267744
0,0521901290468486
0,0538320629487467
0,0530593809065573
0,0572212543982671
0,0560256567491187
0,0561735065055586
0,0578596849846086
0,0555763944203563
0,0537633181808753
0,0586163123747672
0,0571219962985021
0,0551690471680722
0,053169104966372
0,0554227034147544
0,0533579537874261
0,0543409981990914
0,0536053737945859
0,0555797181111851
0,0539961218448946
0,0568521649699645
0,0530430535906728
0,0536599427114278
0,0519779607709472
0,0555201641199526
0,0538124606145124
0,0546062806630674
0,0547693000726467
0,0557020746794651
0,0518370202233939
0,0570700177034425
0,0566285569476577
0,0555416730027224
0,0524760054822613
0,053954887883295
0,0529519243255211
0,0515563473420779
0,0526936483663696
0,0509118238087263
0,0515821025064172
0,0532121027333342
0,0535121189560616
0,0532818662982855
0,0494197709902948
0,0529215253418629
0,0509641984757351
0,0528695632106498
0,0527301126424167
0,0519795627288386
0,0518390927297006
0,0485243197056277
0,0514172773232048
0,0523711606812879
0,056339087345297
0,0508598277228421
0,0492538802969111
0,0533743378689738
0,0501718182418218
0,05369672164706
0,0519999317576241
0,0527433552203375
0,0536175583390821
0,0516442777730231
0,050598433101613
0,0561521785048715
0,054947974917864
0,0556357771996679
0,0515761388377827
0,0523005575772054
0,053407767780197
0,0544913902698506
0,051849697017147
0,0504771637611584
0,0509455329169802
0,0530095945534996
0,0509809407600709
0,0507873961544695
0,0512091864238976
0,0511594928281366
0,050386192723553
0,0558334698293858
0,0512678779737286
0,0513620757724925
0,0534312425913356
0,0569721599762984
0,0544263403623398
0,051893484766685
0,0517062578463596
0,0503743493807352
0,0510568523880174
0,053821903413231
0,0542273499439606
0,0557905793479267
0,0506921586849664
0,0512263347168962
0,0533249405061744
0,049803660338087
0,0510046222144851
0,0529892561854016
0,0525131944056461
0,0534517155171479
0,0513267025226289
0,0532925047868115
0,0510103287663159
0,0519892864217597
0,0527212683896053
0,053047312600661
0,0516796941835346
0,0524892010046148
0,0511978602843248
0,0536846864488887
0,0512136463431718
0,0540002553860605
0,052704947814872
0,0567111157896064
0,0517781102869965
0,0524991641615875
0,0565308578813714
0,0537549915597158
0,0505830489240391
0,0525563996087672
0,0520416688932265
0,0537422764013114
0,05290857033767
0,0542381905408278
0,0533208749703232
0,0505174012392159
0,0555784959248486
0,0523153320108572
0,0523688481517388
0,0518158781057036
0,0550687418582309
0,0516624657980484
0,0526710960357638
0,0537182435667096
0,0569489094959194
0,0524810765581183
0,055322130809208
0,0559467751506492
0,0538832336804049
0,0502419290593655
0,0542220939836804
0,0564743333466153
0,051938777294687
0,0525308172447181
0,0530974527315123
0,0536854821309275
0,0528993282521046
0,0521572666653329
0,0542497350100253
0,0532173469542934
0,056423514694236
0,0564414318042122
0,0535930630072078
0,055326242680524
0,0520904965485409
0,0534001954315891
0,0534906331051418
0,053208485987952
0,0546616555789654
0,0529528071367225
0,051419374535301
0,0565048696985189
0,0529803259694694
0,0544114180050605
0,0529402288179613
0,0566784232869554
0,0549177768259092
0,0549502597507539
0,0541656992348641
0,0547849517057812
0,054251391661578
0,0566385639492173
0,0557542201565742
0,0573489001760353
0,0566576913087956
0,0546657987377719
0,0555925515604774
0,0573014319484357
0,054949483447652
0,0552005401508037
0,05230880587686
0,0556315088506646
0,0555043066376816
0,0571431291972561
0,0550701978077798
0,0562942524132533
0,0580279219894292
0,054845546395087
0,0547677724759879
0,056618652094473
0,055650433506153
0,0554765382306592
0,0559255693492542
0,0582911713603125
0,0552258685171338
0,0558191323914638
0,0590301676225772
0,0538291564444763
0,0550835347694608
0,0585617268312096
0,0564041693199778
0,0564987180985106
0,0543647802407568
0,0561896506175679
0,0582039544785432
0,0566988879600213
0,0541716976760865
0,0583532673107715
0,0550077311656804
0,0590794456605264
0,0561561969432491
0,0544919168989711
0,0561813771126317
0,0595649459344105
0,0573675639835416
0,0567683044956018
0,0589662468150636
0,0577363527820595
0,0581475910280981
0,0559017378240833
0,0540578193274563
0,0573310079313377
0,0553831688545618
0,0570257215131343
0,0579435080119393
0,0593697258567077
0,0584961664374042
0,0572764469636046
0,0572038386479405
0,0597252080105716
0,0591778476453098
0,0565436970475937
0,0551341354290824
0,059685043231559
0,0596364117918776
0,0589796526315441
0,0575659992591871
0,0582098734184593
0,059165922297041
0,0599421294242453
0,0581706669182173
0,0601732458844377
0,0601551271859086
0,0567823167509572
0,0606069717720364
0,0598447175511007
0,0566916853647179
0,0598156331677682
0,0589503970850506
0,0560180685343099
0,0586415381585669
0,0610134219873003
0,0596647879936588
0,0608329288499435
0,0620761312794364
0,0639843410074957
0,0615125943109389
0,0583693616764317
0,0605581806511742
0,0591850240668285
0,0618629362526166
0,0615242913813035
0,0605088224309224
0,0606162131805411
0,0609099215406816
0,0605729631383374
0,0599328295452844
0,0612563785518136
0,0612286473606212
0,0593806388992394
0,0606649447434933
0,0632769567775942
0,064553716557503
0,0616524251963688
0,0626155229102679
0,0619644600025206
0,0652870977456469
0,0625720988192708
0,0625650840031138
0,0616778632884645
0,0637173256173811
0,0615817065488436
0,0611780839544124
0,0641443755076322
0,0645322672228241
0,0628789479409472
0,0639635476020127
0,0639145311446275
0,0617246095716705
0,061136532894833
0,0631015458241472
0,0639235776113666
0,0624226524265459
0,0639851986353736
0,0654064881146209
0,0616407035376012
0,0635728712136358
0,0657235350358629
0,0667139102272449
0,0636263486324887
0,06601693890624
0,0640678370104625
0,0639515948580716
0,0671430513184528
0,0663860405735343
0,0671864696218141
0,06903126199742
0,0650048720451091
0,0686499161864224
0,066435759834992
0,067770275217683
0,0740437930271145
0,072550947679663
0,0702881764783708
0,0714559258076138
0,0726850428901994
0,0771425484231249
0,0693661110529723
0,0712539262693346
0,0696652186060525
0,0724201762941296
0,0710137685116282
0,0773672438242108
0,0720751222589498
0,0733113751039148
0,0682088934039258
0,0735669537168854
0,0640816581241929
0,0789220288014583
0,0705637378855226
0,0728250972299422
0,0711136125000384
0,0734141064463368
0,0675329110319498
0,0770810291176164
0,0665140578022708
0,0748351947290928
0,0657022203361336
0,0729273161090429
0,0684911431534011
0,0740819982660699
0,0642700448970849
0,0794821528920021
0,0653887293732027
0,080187624709267
0,0663527194102934
0,0794026258796071
0,0652018773661978
0,0837039489808577
0,0625578150038938
0,0857179740954612
0,0659718190481427
0,0866015174168178
0,0651560194582785
0,0898252028136124
0,0572136707543129
0,0877117115013395
0,0584996962941282
0,0882367689013051
0,0558666488307192
0,0955271922790017
0,0630439072201027
0,0922044062900704
0,0577817652469576
0,0918818617575937
0,0633891007653965
0,0920936873945232
0,0608817356130337
0,0810124173248912
0,0688732161399248
0,085015994582396
0,0752298455053836
0,071128364805908
0,0864932146112642
0,0650137934656394
0,0879995990351465
0,0600963479636001
0,0975865805740999
0,0569480254514529
0,0982265211610794
0,0588897737166524
0,0936379283699132
0,0609794621865962
0,0875908625898082
0,0674139429950387
0,0823479292799318
0,0753426246792263
0,0805901500617314
0,0770710714435637
0,0776986841738931
0,0755557362913076
0,0788849212709068
0,0756431581260933
0,0815869124842445
0,072676408923819
0,0827952106587632
0,0726344418169607
0,0818030568813767
0,0731677662912914
0,0806400800738802
0,0739860895092554
0,0794655035146485
0,0761761444036441
0,0818219011374148
0,0777748353716685
0,0836300368127838
0,074099125223004
0,0822155278923939
0,0766239917555432
0,0804439918776596
0,0738064546929513
0,0801194627004767
0,0761017870068874
0,0803754331699451
0,0784999231311687
0,0822013179325998
0,0760355253724445
0,0810511286596923
0,0770874990176023
0,0818847557010257
0,0805136167369508
0,0847011883211271
0,0782218503370707
0,0822471836546044
0,0796118839269591
0,084361900022468
0,0804207055730705
0,084621362414006
0,0802347318678934
0,0854113740401428
0,0798819474109219
0,0832378636095879
0,0819767827057793
0,087117190355476
0,0805691371716164
0,083870815675801
0,0798460826742858
0,0850417748797147
0,0836112579212619
0,0869104800204257
0,0823571374121254
0,0852399301532286
0,0811001362475994
0,0886053043105559
0,0857486772688367
0,0885746082247563
0,0860557846539141
0,086581474324141
0,0822979178928488
0,0898225846432795
0,0861228951330298
0,0892781817609953
0,0859768775319545
0,0897373703631328
0,085313399143483
0,0869494735093586
0,0849281639572425
0,0886708619574056
0,0860715674840782
0,0899138606444584
0,0865404662508941
0,0903455229411713
0,0870382021741657
0,091250956510716
0,0850556051606578
0,0902986034432336
0,0874816309873443
0,0912640261803271
0,088742669204494
0,0909612914690849
0,0899035421039664
0,0910009806376716
0,0876798762136042
0,0914278871660979
0,0916042506489668
0,0956544657885523
0,0912728363330811
0,0921852280406024
0,0913221642310887
0,0932895688551806
0,0923706528628399
0,0946803685539131
0,0905778256443176
0,0949456090782412
0,0916915734152874
0,0945500790798322
0,0945696385706637
0,0957145897647844
0,0939603869549083
0,0939657178415688
0,0914336964831971
0,0966614853377355
0,092608303257372
0,093246779896011
0,0937117679793364
0,0968254171181516
0,0922344917394521
0,0980855245559749
0,0950158989839819
0,097484397505894
0,0940668767961828
0,0990192871184185
0,0980826760708266
0,0968981643292259
0,0948486825198461
0,100586174808947
0,099746894285027
0,102032179852101
0,0948023767383829
0,100477607404318
0,0960153235949513
0,0975353748863468
0,0986739188786972
0,10097335697004
0,0971318261174804
0,0981792133929398
0,0971649545459913
0,102864513964139
0,0955969893300204
0,099449997341348
0,100277537613164
0,100205231336256
0,0994169862870141
0,104255146097643
0,0991689495657093
0,100749224496887
0,100905187019494
0,101686477858048
0,100466305880974
0,101625616200739
0,0991755166275507
0,102845952766743
0,101415701595572
0,103507083050537
0,10269041446016
0,105626837591076
0,100658481393101
0,102773906819416
0,102109162704878
0,102687217443079
0,101867861394481
0,106610615906057
0,10250161920395
0,103735729631567
0,102901004048233
0,103965106382813
0,103709501769062
0,106616463963658
0,105056965230192
0,106635650036686
0,103233004359142
0,106320808472432
0,104905745039922
0,105892789661877
0,104607223260871
0,105679776536128
0,103925239107405
0,105601956530191
0,105068693856415
0,109130967854828
0,105168496756674
0,108293738410743
0,104117320862014
0,107847375539295
0,105939203669044
0,108389033564344
0,105823092336991
0,105485962561222
0,107222731499479
0,109915165034308
0,10789209281136
0,110099765641747
0,104879915918227
0,106101932566473
0,104920168583073
0,106683703705006
0,106377087218529
0,108085814924688
0,105733102842742
0,109088261028114
0,107491007270592
0,107839862786891
0,105407260513096
0,108893525391907
0,107509347933716
0,110755494018295
0,106309416147007
0,107253030591848
0,105122743810454
0,107788010255021
0,109117161162327
0,110279437298227
0,109234887010538
0,106998458987108
0,104184995894288
0,10878846779029
0,107382504413036
0,108037499577124
0,107137581179995
0,108487793852324
0,104602132322023
0,108356523615964
0,106060528671829
0,108219272263597
0,107329948433511
0,107770357587501
0,105593636747528
0,107385910641041
0,107250407867965
0,109397100888616
0,10753102780383
0,108928623780222
0,107452994210551
0,10661528069842
0,105397262113722
0,106626387650813
0,102825153640506
0,109125295775288
0,106788199092441
0,106621482623069
0,105699029126599
0,107356925936385
0,104734126205888
0,105492340659764
0,106640821670669
0,106645747683691
0,103967067889002
0,105743610466909
0,103408626342229
0,10608941602989
0,104681977916711
0,106508507186452
0,102267570606511
0,103547290677856
0,10388816624908
0,104053142453114
0,103696596560529
0,105663796799829
0,105556688285416
0,106779052283558
0,103035816001911
0,104656568949398
0,105253377737567
0,105420418326058
0,101027152984684
0,10610341537165
0,101710153109639
0,103808305956969
0,104036840425632
0,103101634577485
0,100483509955004
0,102952030547089
0,100743610396694
0,102451714094485
0,101221153629249
0,102740839368034
0,100640332673577
0,102281139045469
0,102056134272128
0,102014203309391
0,100955115341401
0,100434328084008
0,0991020131112189
0,100459049888364
0,0991550002214981
0,100449154569337
0,0971784215194646
0,0984274545316298
0,0973225810907961
0,0976765360116961
0,0961211447108742
0,0991446191518887
0,097796215540343
0,0967818764746038
0,0974314861165754
0,0988294164989314
0,0964751020781528
0,0981604315046155
0,0945125587659546
0,0987963751375429
0,09807303465813
0,0977110919396559
0,0959587149409438
0,0967148939420548
0,0948328653261018
0,0956390103959451
0,0928790585610086
0,0941870852066733
0,0944204589907261
0,0983744894654004
0,0935547184007504
0,0955787783887063
0,0915917075998354
0,0931541675354158
0,09337093384272
0,0947696994610603
0,093841880366758
0,0930990581669787
0,0902640272848935
0,0920277276606668
0,091918496667956
0,0908129195939965
0,0897466638692536
0,0909165832522189
0,0909026351615812
0,090604818538521
0,0905081990842015
0,093532380121712
0,0900559776424085
0,0900983388484278
0,0894088371485724
0,0905133882146826
0,0896336023197175
0,088091083128075
0,0887793614695118
0,0883747645968182
0,0881726186921151
0,0878282990033716
0,087588231630424
0,0869110532009165
0,0869769476128908
0,085793617425726
0,0864229512090073
0,0854804071940778
0,0883227563697949
0,0866789777054955
0,085356924219719
0,0866571620890943
0,0846729312820629
0,0846063735286444
0,0838745536478069
0,0870426751541096
0,0847894446032283
0,0851216130610043
0,0819353584591748
0,0837025120250425
0,0842389737463386
0,0826378967884619
0,0838401395359501
0,0833464501734049
0,0816404515367345
0,0846606455832801
0,082509311735474
0,08207761100966
0,0805140447011778
0,0822144182465051
0,0817248439375202
0,0813213137770305
0,0812051625733678
0,0816505907842275
0,0787483877462475
0,0816133803194586
0,0771244141502778
0,080965238750657
0,0789779229264753
0,0788403961549601
0,0766874661174759
0,0790366377702361
0,0765498064503959
0,0777523972066309
0,0791062515441916
0,0803395035632586
0,0754549553986339
0,0774286930403289
0,0758369830185887
0,0787025517948574
0,0750073179734082
0,0768045348761224
0,074385892137905
0,0780419495073885
0,0752380146586307
0,0790434387726068
0,0731368862398729
0,0777082963193544
0,073808199262179
0,0788988123133161
0,0753648061503353
0,0787107414217416
0,0743805502485754
0,0746687628116416
0,0759539299468681
0,0731647113257891
0,0738998657711555
0,0727414192197776
0,0712032286619896
0,0766208748435232
0,0740900690752848
0,0733646769472143
0,073207298342033
0,0730452519810786
0,0742320524569914
0,073562880433906
0,0713499588193044
0,072171634693005
0,0727902435832058
0,0696501782816721
0,0699547109343313
0,0739395579593941
0,0736623896722574
0,0756466173174086
0,0699347492727812
0,0724786682181731
0,0738064856045574
0,070408417500287
0,0753275453098348
0,0666180604309365
0,0726528832551146
0,0698553114106703
0,072684385198268
0,0672596722827568
0,0706418656096498
0,0689195761808615
0,0714699722030304
0,0709950232800403
0,0703030007886888
0,0698733649528536
0,067628427821374
0,0699199968300319
0,0681744506607231
0,0700681782014575
0,0688708918693497
0,0694882030251944
0,0685193080235384
0,0682849593604332
0,0682217565230735
0,0665194411024362
0,0686199367938231
0,0683424263759824
0,0698786099660328
0,0669603676813272
0,0684682662558088
0,0663361801155772
0,0688307375198327
0,0694955917948316
0,0700185024595803
0,0696417726675952
0,0674766407983698
0,0702249320337329
0,0655267070151227
0,0692945557505563
0,0669043000266462
0,0686838815094337
0,0658100149490662
0,0690091433949682
0,0655036507423834
0,0684602056921817
0,0649329752184309
0,0669388703963941
0,0653849355785232
0,065795234874544
0,0661811121419342
0,0679542927019111
0,0701386619542295
0,0671935680030713
0,0713233477538028
0,0695098433024774
0,0722389410677857
0,0668023364915068
0,0671003659490518
0,0657883232237574
0,0675630371328632
0,0661194883438731
0,0646488887007777
0,0678558075889443
0,0673394922117995
0,0662724815238015
0,0673136974580111
0,0694576867632715
0,0670406404140086
0,0684715382264317
0,0666685982287264
0,0665864683256546
0,0642088404764152
0,069358735332162
0,0665057026506373
0,068496902342839
0,0648521355443853
0,0728289330804143
0,0650329924200265
0,0743233099631558
0,0604112956856834
0,0813657192825864
0,0644536604387481
0,0771486423110749
0,0654380934068994
0,0665336177799761
0,0664086295157896
0,0706709512468801
0,067961039046603
0,0697956939873595
0,0682311081217795
0,0666617715331501
0,0680213909857218
0,0708949729456664
0,069618126879336
0,0671170729605095
0,0696215344021218
0,0731317101814134
0,0694749788525951
0,0732334742861933
0,0666894863912122
0,0736151759938108
0,0735438873706674
0,0731682483782447
0,0707472789694318
0,0664010843379675
0,0732442134500382
0,0692395589973615
0,0705925011438083
0,0696334777166824
0,0756008007281418
0,0730681697300366
0,0714783049595247
0,0702811136901215
0,0712300721991513
0,0766110435408441
0,0704364098003995
0,0757215364992946
0,0739209251473795
0,0712731103532277
0,071836949660715
0,0718240691630219
0,075095100331685
0,0692286254262612
0,0758129046417447
0,0723841003085914
0,0773340561198434
0,0753027504924753
0,0729967596019222
0,0778111183778514
0,0760593834050111
0,0757805157565959
0,0759886731449776
0,0739061283360243
0,0823188376827908
0,0734359796961648
0,0830167426907094
0,0759197092960269
0,083050024406986
0,0842909439728208
0,0745427014967512
0,0826004820989994
0,0747338493365602
0,0831515073343853
0,0722351130349834
0,0894106368397767
0,0746119292848144
0,0888086179372939
0,0749557222462177
0,0904447370611388
0,074792324484311
0,0869471549466421
0,0793811200766266
0,0833780321712486
0,0809446481973757
0,0885148163088921
0,0821283488100062
0,0879413517106023
0,0906240594146753
0,091531743563471
0,0964007096535887
0,0872428416342978
0,0899459404399911
0,095422155813989
0,0784064408906261
0,0958003511183709
0,087006473821878
0,0955167907184179
0,0863418439290651
0,0974210979004066
0,0997996651633138
0,0978456671616402
0,0982560273457398
0,097054146132886
0,0934236534350095
0,106970477302921
0,0978318586129711
0,102352636392624
0,0954867815641685
0,106931995768617
0,0948307683315476
0,117063031077793
0,0923242344332043
0,120778465416952
0,105740914315047
0,115749674813636
0,114655027014066
0,109856517136025
0,10982579782166
0,113182473098081
0,119847353485077
0,114954108150643
0,113764655656637
0,119730081100226
0,121813520026261
0,116376371208805
0,127643597851119
0,120521702981286
0,127951404962797
0,12890420685052
0,138756289366894
0,137919990583364
0,131682562328823
0,129655874231312
0,141232159177141
0,139934368001988
0,14506992456234
0,135993699326763
0,141441550120133
0,142336584104933
0,14364330071309
0,149341370353989
0,147485219697184
0,153711225814287
0,150807567043053
0,156043027672573
0,166059173937888
0,17365562038269
0,17696378770614
0,163743137739458
0,186377491012076
0,164563550895031
0,183706720574766
0,172955464587843
0,184198033570324
0,186497344654747
0,190950259551809
0,194678291208638
0,194730171314409
0,206776979747341
0,20421520537585
0,211427560015562
0,219566278835637
0,21389964151172
0,218958548305311
0,218104591497341
0,267168971703707
0,187764638880274
0,258692799467742
0,225306586740528
0,257251562610345
0,246745602563492
0,253467615319785
0,262962753394269
0,260146143780934
0,268208498646052
0,275395090835888
0,272219584228742
0,284030032671394
0,290172061639454
0,293069862486889
0,294509771992328
0,309456765751968
0,314029900191885
0,341639293854201
0,329516967578541
0,333681769630046
0,328835310774415
0,34372210034786
0,34416265175163
0,353136138415997
0,347767568750266
0,361007172789893
0,374498068117831
0,375746591203691
0,381322238313789
0,375381869711769
0,395929527067054
0,391679144931831
0,415739227921089
0,395777314050754
0,427155124332313
0,417148543926056
0,430562929869189
0,434307782857496
0,435847784219444
0,450136272683715
0,447442579865318
0,468170127080288
0,46071373712397
0,467174499802511
0,474483390500938
0,478765998143281
0,485432767646277
0,487339846942974
0,503415934650038
0,510079224960781
0,543466500423958
0,530931419648658
0,521281968822406
0,514012105689759
0,519218582414876
0,539496131875016
0,529921359195033
0,557837025066401
0,546982663749587
0,557790536664575
0,558588009317776
0,55703475446676
0,55932354010644
0,558783688537282
0,560393423085809
0,55690874743941
0,574054500491324
0,563877551374518
0,579172745850045
0,589384432813599
0,603319513650342
0,581968178220017
0,569299031602183
0,579357215966996
0,566517380136345
0,57123552263911
0,553020166720587
0,569059510417331
0,557162152822493
0,569814809347316
0,545525964906542
0,558774860080295
0,539471280999225
0,543508758972938
0,523697239592158
0,530228362750215
0,525466123458054
0,513037146427954
0,504961140238048
0,505663425224405
0,490177827712292
0,491604307273673
0,481767582317575
0,478806193584791
0,469374309734263
0,468454811524522
0,453369096808078
0,449025581124619
0,444120909432091
0,439400830320268
0,427252638903815
0,428705526729642
0,404096719369161
0,412802082420191
0,403195142514751
0,398557139045313
0,39381952032145
0,391029548660774
0,382571118792055
0,379213165103807
0,365811221151868
0,369515657944357
0,361732648119686
0,362777452438144
0,349843815058009
0,357227403438199
0,339623187173972
0,337940530389559
0,336474766604115
0,326881710073311
0,326046953481071
0,325468571708519
0,31618987554761
0,321378418487428
0,312034913506221
0,309583566875891
0,306233244766515
0,305727515644796
0,301861883828803
0,295509029651436
0,295193300109594
0,285442503262264
0,302235226894333
0,282330346918024
0,282927252982244
0,28505088113677
0,274713291395106
0,278007065991699
0,265302786057345
0,285444275121632
0,274945500713123
0,272110989912447
0,264418171816659
0,263967708178954
0,259459466066355
0,267851234655535
0,255057341173807
0,259987317268376
0,243135834959092
0,267728228576341
0,242181218733845
0,262909700724438
0,284361326978525
0,257096564563644
0,249158922941236
0,239592615023432
0,269259856771004
0,234664710076785
0,249042517827064
0,229814846723949
0,23974271284776
0,23496040984512
0,235614566537529
0,234130882402682
0,22761538211045
0,237139834370672
0,234715309534261
0,22847804228227
0,233213874461581
0,239465395548225
0,222261053903336
0,233340582799368
0,233980716061585
0,245809508716723
0,224785762667083
0,216035852662593
0,213377248974883
0,21565132984174
0,228027646490257
0,213998184472655
0,220738189055981
0,212984096592651
0,21180293286177
0,213095517234688
0,213701742926681
0,216966712997769
0,203836501426378
0,228414627079338
0,196141765240923
0,2181949552133
0,203286893960951
0,223434838442707
0,217411900978684
0,214791180087303
0,202712931789837
0,206489596926978
0,224179636125852
0,198524735263498
0,211348334847801
0,199899573584118
0,198967286839047
0,211079190069076
0,194091145933404
0,200805292525837
0,202302293744773
0,202168872922338
0,217184480493031
0,209019281071023
0,226497819207899
0,204981968016704
0,190287763314634
0,196049986604242
0,189088197997845
0,197401517653285
0,188181659539471
0,19980226565513
0,192794777887159
0,184652140506526
0,210838557389839
0,185983603928409
0,193369222168321
0,190371252085038
0,190406232259376
0,190226413405233
0,19170786628317
0,196470831650861
0,197818016069756
0,188733898222939
0,195887272769746
0,184975816209815
0,194087957629621
0,180112490290989
0,190651329750475
0,182344398125505
0,191698018193642
0,185839782858542
0,187000680843212
0,18572971580976
0,185243645537248
0,184244332598838
0,205087945763265
0,176013803968098
0,201062815931645
0,179661559888423
0,205089497278019
0,192483691194536
0,185398845937775
0,190553446229263
0,183553383813332
0,188343927334559
0,188817497239862
0,181479109459766
0,201078893091273
0,186677706698544
0,19324462301659
0,181259649732556
0,190122055439157
0,179670125085727
0,194780710999689
0,185357135703525
0,197720666915809
0,209249197626967
0,180966934757792
0,196026829677787
0,180140417723356
0,191043449868246
0,18658846969149
0,186747133269608
0,187947742422506
0,182105603557996
0,192467405476988
0,182767340381929
0,187656123932717
0,183470512694049
0,186566053483597
0,185226056600631
0,17965013387823
0,184896954903654
0,182370193464825
0,181179127333996
0,183580068864091
0,178622941981528
0,203685039910748
0,188467825024339
0,185707220280219
0,187657623604887
0,180128373180519
0,187167427298696
0,179558748772867
0,188519458840016
0,184205951123646
0,180979669999045
0,186995490758027
0,181227941659393
0,187555524353018
0,176718284436562
0,191329282925171
0,181646254554844
0,185819308074428
0,182342654800033
0,180601788910466
0,212758918370156
0,177502612836026
0,199366689878982
0,175808138668352
0,189567472538251
0,177752253283468
0,18529182060463
0,182661722840817
0,186722228364901
0,1804007090646
0,186047702520737
0,184590964736816
0,1827529657927
0,184735380624329
0,182363279105444
0,188661522055512
0,182089691025562
0,182797342031005
0,186045755957806
0,18745022262651
0,181301463578525
0,183393134754631
0,191528711165974
0,180174698823248
0,187352456193772
0,177309598095764
0,193468575827396
0,187072798408999
0,180872170304024
0,183378763363305
0,18232888888783
0,178967985777715
0,184778856371412
0,179314452379935
0,191192849533186
0,18453728866719
0,185346014456413
0,177803677818722
0,184087882336427
0,180433013566777
0,183354121929807
0,177410315526262
0,184956728666636
0,18238568344848
0,18605255219388
0,179580694161399
0,187577132753818
0,183403370194839
0,182710832815832
0,18934330963259
0,184154198629002
0,182243953838487
0,187909035651979
0,178612879439693
0,187233108769302
0,183517920277212
0,183383092343196
0,17912787267102
0,185917480519207
0,174439027931854
0,190620660442677
0,17948307286477
0,181266925139912
0,183759366534762
0,176380722125544
0,179841582146356
0,178686241848239
0,182406166859715
0,178990626040867
0,179111289760149
0,179785491743395
0,177295888050635
0,176764058356177
0,176118139606247
0,178708788243926
0,179910912709609
0,17861013196677
0,179000318072485
0,180352488653381
0,178823203855124
0,18102861033795
0,179495333325885
0,177329296255942
0,176508587525679
0,177971039745209
0,181601801266858
0,180986584692227
0,180867066133024
0,177404980905622
0,184641149873501
0,177497004447343
0,17817980609464
0,177499071214986
0,177054724109955
0,17389940462607
0,178375697071451
0,175729794642939
0,175857948496094
0,178495889287736
0,177076624733946
0,177146995504584
0,178435308573542
0,179004192656929
0,178414343102941
0,178409323327002
0,175663841536497
0,176670656573918
0,175275027394503
0,175868148224962
0,171319270944156
0,17967005248244
0,175888594603712
0,178131207639368
0,175453967270044
0,179196030537235
0,178606823418792
0,17518031276326
0,175948411531596
0,177745976362977
0,176889299959389
0,179707250009017
0,175559328485012
0,175746036803345
0,175859643230072
0,176870208686473
0,178038799613128
0,174882901486365
0,173862853120906
0,175002721090254
0,176261473512437
0,174436580978709
0,175831197579384
0,175500224964451
0,173870507092108
0,175573298741775
0,174895695912538
0,174354789442338
0,173633107745068
0,172715845792263
0,174319500042279
0,175755197957267
0,175160121546989
0,176751167667762
0,171985083790703
0,173123904961307
0,173979523506111
0,174864019031386
0,175716619940613
0,174734017691481
0,175282405279848
0,173409745608251
0,17256370918312
0,173696360849732
0,170854407394708
0,175870250680385
0,171627295090782
0,17451512895909
0,172639332410136
0,176689835263889
0,175058870151617
0,176807093575495
0,175928589110629
0,17607256357605
0,173352770998342
0,172679760372206
0,171813468788153
0,176690260471387
0,17286055010521
0,172674598850495
0,175813105866628
0,174437840241476
0,175525606751564
0,174823273749085
0,176429709168974
0,175963649966774
0,173895751475432
0,173820574240809
0,1739466525628
0,175254097400386
0,175796731346947
0,174509912808641
0,173516042184572
0,175578102815942
0,173987345320549
0,173253458486743
0,174440453546588
0,171878707966291
0,173306892857425
0,175356724440955
0,172882548666637
0,17521861747477
0,173495079020885
0,174613211743762
0,172883932052581
0,17517206839352
0,170731941646268
0,173226728032979
0,170543421127431
0,171397009372972
0,172315644227021
0,175022008385096
0,172575294865448
0,17328368129096
0,172941071016707
0,1719058431248
0,172347250475822
0,174015734163772
0,173594476412229
0,171990231438552
0,172267288591706
0,173253085680187
0,170732038632623
0,173060616757324
0,173603189493765
0,172623073444547
0,170937562170466
0,171137740032025
0,17115133252961
0,171192375151107
0,167525947456137
0,169706352483698
0,170620387165313
0,168557746875626
0,169441560067534
0,17102106341209
0,169346053439312
0,170761464302963
0,16753986606873
0,168894728391757
0,168891030936328
0,168600372584624
0,170816145645491
0,169737324847771
0,169512580709314
0,167961573960861
0,169484275655613
0,168592551283315
0,170273396553607
0,16971628290039
0,167149532365219
0,168577196530755
0,169410747832209
0,16787617479633
0,165755533071461
0,167425094480781
0,168023926440741
0,166660538008468
0,166663323034201
0,166906368123687
0,166564468440406
0,165923253000616
0,167029438500043
0,168076240002136
0,166209838949015
0,169614403921122
0,168374291121123
0,168428865026371
0,167394367990173
0,170532354982769
0,168014900345773
0,170198574729973
0,16945422864568
0,170801057595238
0,170462258171201
0,172892340391017
0,171284515313121
0,172623354011612
0,170564359881204
0,174017901144666
0,175876499349917
0,175275071599604
0,176129934217807
0,177002472262494
0,176988863625295
0,178463469437716
0,179262203946015
0,179877692953567
0,183925317969452
0,181960591067293
0,181572872711348
0,183411080769262
0,1828351327972
0,183850636290068
0,182830866220658
0,181809264510858
0,18305277959765
0,182910458908562
0,181014836211216
0,183768252785945
0,182809521785264
0,182109869268676
0,181788306175702
0,181646598823578
0,180509101354553
0,182789057071997
0,182043514154274
0,181199160889711
0,181369439899376
0,183374266846037
0,180849358364717
0,179589007324843
0,180280076635702
0,180300189105517
0,17991896581002
0,181799583366604
0,181193354477204
0,183360391576272
0,182784204763914
0,182397356503964
0,18340638094604
0,183029509616169
0,184082714384145
0,184508142544136
0,184695215007697
0,185345024280675
0,188634598255694
0,188904749211094
0,190093710546351
0,189651829513171
0,190584659518262
0,191434603771581
0,192370068082499
0,193024406098071
0,192690568558759
0,190299414218362
0,190600124000283
0,192465217457295
0,19104747055832
0,191924487358727
0,191961265086803
0,190430885943576
0,190327441039048
0,189726445784423
0,187027689352403
0,189872400768535
0,188693406404347
0,189557296669182
0,188957263850632
0,190289155386761
0,192120438305295
0,192743167427487
0,193563644540309
0,193691757668918
0,194759276949269
0,196549222751728
0,196922460407104
0,198344388945451
0,197995522892607
0,198177137361627
0,198723255647919
0,200194592571331
0,203499137669581
0,201262975466514
0,203022953362192
0,206714421193024
0,203507892808624
0,206772375292678
0,207885821702437
0,208365938132515
0,210696946938178
0,212275498809143
0,212329973254116
0,213052819882926
0,215363983765031
0,216524492623984
0,220051555701529
0,217721090487567
0,220176770685739
0,223710186940477
0,222165206188683
0,224091719555784
0,220901403484799
0,221832764552393
0,221498043294826
0,22185376194618
0,220070085830851
0,220929700262268
0,22169660501958
0,217226108655243
0,216229705990014
0,216613576513087
0,211364300769456
0,213845328035818
0,212368187621978
0,211281799088219
0,212627920326799
0,211039432413776
0,213672377204181
0,212214373265976
0,212765650891036
0,211222907888891
0,212063922602157
0,216474944364574
0,215901079783095
0,214807447388127
0,218061439718221
0,217317077674918
0,219050779424237
0,216114245327786
0,217543509239831
0,219603678305283
0,217977203630704
0,217002915748667
0,222303729860647
0,220977685093407
0,220509481896013
0,220400445257668
0,221797859033299
0,22086108538529
0,220054983291075
0,222777221790537
0,221242207994022
0,220056010819728
0,218481870313763
0,220408002458125
0,220958516587634
0,220040500045225
0,221731417694874
0,218891044418123
0,21621838261087
0,217702561300588
0,218047135678368
0,21837238615332
0,219549383145359
0,220213374996269
0,213778770305162
0,216131643651394
0,216227594999864
0,213129393975252
0,212941302980966
0,213207834555746
0,211536206373937
0,209976351565233
0,211469619636334
0,209035283058303
0,207306990148827
0,205989879130341
0,202701234261791
0,20195184936825
0,202193948319817
0,201950486129291
0,201867905912279
0,200141799269
0,200846185293647
0,200721954723451
0,199834191903138
0,201212094059904
0,200351042646044
0,201240949486585
0,202833548049036
0,201778133212035
0,204264881425701
0,207054732357268
0,205469046720451
0,206157985411965
0,205518462927794
0,205113167422637
0,2080661438763
0,206265435896999
0,205900051257874
0,207087370266154
0,206092774339898
0,207901974466246
0,206106083509051
0,20756018808981
0,208033687171547
0,205973329000918
0,204186414253739
0,205279211440317
0,207947184973331
0,207359939179513
0,204659907560585
0,208265143918084
0,207053499030948
0,207414545608832
0,207759751260824
0,207383990289204
0,206836604810185
0,208948545333928
0,2113643352743
0,209515423108169
0,211413060270208
0,209909240134209
0,210644767247413
0,213669128304839
0,211263662465001
0,214292510361908
0,213693103995694
0,213662313015718
0,215345600273121
0,216746504057121
0,213625703290784
0,212669872801577
0,217420784859588
0,217549002449913
0,220068017335713
0,223292331459262
0,219782445210037
0,224963077654236
0,224490327219659
0,224080709616445
0,226399286838635
0,225401606789727
0,225791757877062
0,229137285672052
0,227576608544067
0,228859255564011
0,232119921875945
0,232468095158582
0,233002007538574
0,234730886948844
0,236293997137954
0,234527912194671
0,236642022724105
0,240098440123076
0,245182318680866
0,240550158042095
0,242655875345189
0,24506011512976
0,247332333791615
0,247688310460747
0,250742556362605
0,248100469199247
0,25242186930185
0,251612140770345
0,250595729733041
0,251315958351634
0,255912612878749
0,259759602826386
0,26251522250385
0,260907020935353
0,261611387803053
0,266125993087133
0,264826849797106
0,267354563378487
0,270323424873243
0,267293318040915
0,271761989082956
0,274049509550671
0,274610923579919
0,27333269846572
0,27660939747935
0,279841601204178
0,28486463125712
0,279465151496124
0,285132787508455
0,285893815004444
0,288494672065438
0,291203890925162
0,292080855168258
0,296824544346309
0,300499771856891
0,299149045589012
0,303932302074832
0,303856636395355
0,304958850003063
0,308539743076098
0,313826326565185
0,314262130526561
0,31461071732772
0,314992443176779
0,321113142948376
0,324376620176975
0,322259188247685
0,328805251971041
0,326219308588626
0,332825450305681
0,337803402875359
0,335810827406543
0,335289828197699
0,335235896539539
0,342607736626996
0,344060352589333
0,339670338443496
0,346412562729757
0,349801496549945
0,354638906206275
0,355271186445781
0,35614523021326
0,362309030683491
0,364044801820944
0,366180295570087
0,365547162564184
0,375885607397507
0,376675107207248
0,372465778231642
0,374787935354059
0,3847530172712
0,382250322838784
0,387281239634199
0,389809589288103
0,390214313279652
0,387265684756511
0,401226695527505
0,399953448067264
0,399667289986211
0,400118016410571
0,412242403913028
0,417816045351655
0,411345244644906
0,414851387820099
0,420840222916764
0,416344322614277
0,419649626595297
0,430007608435219
0,429851312532044
0,437971063671066
0,443321418593356
0,43425689219707
0,44715996431951
0,449243602376386
0,449663433640961
0,448747380088127
0,452119560021029
0,461682023947863
0,466189465070928
0,45959566148095
0,459068726412353
0,461770523819133
0,477259849851119
0,484866395059728
0,479956902284585
0,478545978455906
0,48922068448298
0,4953525640346
0,48956862177708
0,48585753066968
0,497844313798798
0,500368729245645
0,510083435251787
0,510804044612249
0,509108656498888
0,505123223411693
0,521945920417338
0,511445077855395
0,507041684833179
0,529163916473464
0,537237121959569
0,5245413228752
0,531492373235505
0,533295147965515
0,530520793986989
0,530337073710327
0,55259176276618
0,549710929308066
0,55296557557815
0,549647288262876
0,554727714706306
0,567599157329226
0,570840415313274
0,571822922917111
0,583376781605032
0,575133738989014
0,57373825834059
0,580043089570218
0,597026008526472
0,580588871983034
0,583283351912392
0,604039477126026
0,60385730589036
0,597520246864279
0,62465136963479
0,608400512270811
0,605503713348503
0,626814754853342
0,618484030761503
0,610518071733245
0,637601249128662
0,634876714015186
0,64035407940507
0,638789382626423
0,64221722184651
0,663371299747363
0,654434959256233
0,638433085949362
0,640491275669729
0,662507217425975
0,668326923988448
0,662456628918634
0,686109786522153
0,670165196215998
0,654974079428228
0,713223104698343
0,692582751777243
0,684904680291694
0,698307851482739
0,65728158383558
0,671172597638146
0,691877465796059
0,727799405985837
0,711221806742975
0,684041798144332
0,721283883376418
0,736875541011415
0,712327982553124
0,728060227570159
0,734867262779645
0,719279066885121
0,734206877901919
0,738831221146085
0,737516170318382
0,788791750709404
0,800431616270847
0,756812884731035
0,748133641195189
0,777180098014914
0,755861806825111
0,782667552266951
0,782095507640078
0,785941447866095
0,759057231259756
0,769020406635583
0,774373069202927
0,783988906452362
0,793240815907059
0,789097386201467
0,793747442102627
0,794700399198871
0,830396137899699
0,820545739573892
0,799638677264634
0,823571678829743
0,79461792943296
0,821493114285534
0,828293367599928
0,811039181661799
0,797222650987333
0,808218523367157
0,843313417663871
0,871272658127643
0,834417914080925
0,89178860654114
0,913593946895059
0,880796450492611
0,81146221598639
0,838073563442256
0,873907853391809
0,902586397224418
0,902818141274768
0,893639112033557
0,865304844306569
0,898105266061319
0,885740285988272
0,838741297958777
0,879122262832115
0,954416809504036
0,865523492977621
0,901983533364492
0,861287997706861
0,824773481877524
0,872333727564894
0,920865877853508
0,923392497681541
1,00466029237918
0,876315029737326
0,926070951651764
0,90138571019647
0,921257478940509
1,03282879313699
0,924578059442429
0,928911580505263
0,982180903625268
0,959615776491248
0,913459340169226
0,985422870391618
0,967339454394579
0,856258797600864
0,990478199968215
0,884772992710778
0,907722888891454
1,06003826987013
0,934019858133951
1,01155839437045
0,97010186575531
0,949103138804413
1,28770579933066
0,909681195708665
0,918264021672426
0,990399004809643
0,888400300894545
0,997635475629689
1,16125937207444
0,964116482861626
1,04383578405116
0,972307962383743
1,07098522400385
1,17089871088818
0,9706595260617
1,08437862302639
1,09843889743438
1,21761252005898
1,0381100679435
1,11507764979481
1,21586216891593
1,16451879233267
1,13909188169633
1,11321121621497
1,08325157608517
1,17288966501463
1,29514046611438
1,43142171779187
1,13818813421593
0,956767504478459
5
1,5702357648292
0,978535768608903
0,945683034179039
5
1,2700772594991
0,815184641910073
1,41711434173489
1,37760367440762
1,47337984875529
2,12988857432741
1,04743097759803
5
1,76113074689628
0,926682739717672
1,28650616545409
1,33201923625628
1,26214650344618
1,1553721300358
0,820379903862686
1,04054377731761
0,883999490799584
1,21931043589431
0,636231753691466
