3596
4000,36533379555
650,420452594757
1
2
2
0,0183449794286152
0,0290842687702151
0,0148146979261586
0,0215403490367414
0,0155570126894618
0,0244187771837621
0,0185770719600805
0,0161633488113614
0,0141938079687827
0,0233153991055426
0,0111011007024987
0,029056946105512
0,0122314215703969
0,0217181980932943
0,0189023192300263
0,0252767590852317
0,0161195276130014
0,02925266391606
0,0126631708057949
0,0237504853631899
0,0153695679932972
0,017970392398927
0,0188187064182087
0,0315449617961231
0,019599128222133
0,0216003396225667
0,0151373511634419
0,0340251463465668
0,0153934498560667
0,0265933912448139
0,0141773934405598
0,0248775466802707
0,0216475320808265
0,0215582477546567
0,0183112169740208
0,0309366727676155
0,00735094737071007
0,0228887390607262
0,000516537630147298
0,0243225514889295
0,0163574595690521
0,0252952443316979
0,0115520300369526
0,0209098891233109
0,0222524013564026
0,0173534544442026
0,018008803429516
0,0218007652285762
0,0161486393984195
0,0282877441845607
0,0232336025163064
0,0269683014082579
0,0235249780481819
0,0212477947868942
0,0173041339330019
0,0306610608490864
0,0129587404432581
0,0238699976673765
0,0174325678912444
0,0234296965848087
0,0280890180928145
0,0148209183794144
0,0248312335845986
0,0268001977524223
0,0157071939618522
0,0248872028160629
0,0152198470625563
0,0334420028963972
0,0124124295313697
0,0301035433440313
0,0122935326134491
0,0441563294585275
0,00412026568145648
0,0204120758031903
0,0178416993196704
0,0164753986954528
0,0120418043674393
0,0265769988886595
0,0157208482449855
0,0413016422431633
0,00806555644607642
0,0302481681200456
0,00985815866530327
0,0236535252788133
0,018051578202865
0,0318728114147001
0,0125253524748983
0,0419758376759189
0,00641964246547392
0,0293738541804216
0,0195653280733695
0,026319770457511
0,0130735329801564
0,0255519497834805
0,00899274063583528
0,0310915518501295
0,0151158062806696
0,0285677898247269
0,00345422909489675
0,0368793340428983
0,00955838805290754
0,0490375686438078
0,016413099736096
0,0155140244112448
0,0525882105295649
0,00559018545081675
0,0306899514105335
0,0265752110383608
0,00985798703074007
0,027850434045183
0,0120175701944238
0,0207342635063795
0,0221261470581929
0,0404613694759901
0,0120915524449317
0,0549478042068093
0,0130710876999464
0,02790779553778
0,00862617251995574
0,0356202053212249
0,0149543103969547
0,050785489302976
0,0158934253665028
0,027104057852829
0,0134796461060395
0,022790162517017
0,00758735097288517
0,0379953304752366
0,00437682223902684
0,0245397234661263
0,00706808063081609
0,0282185345012745
0,0142760432671421
0,0285792523601524
0,0309561478657737
0,0181426311371217
0,0274607451361044
0,0296724469476143
0,0410921531282177
0,0263897010187544
0,0108041986409784
0,0274533963163524
0,0105955575666224
0,0329563386698926
0,0095011301556891
0,0298335956858101
0,0204851458729472
0,0323789405622287
0,00137175494198113
0,0304367924947594
0,0194429344771898
0,0299018120436593
0,0184007052118939
0,030659937621917
0,00491880319098875
0,0777444224222155
-0,00290305292965528
0,0486522936677739
0,0294857807585749
0,00778921098256119
0,0303638874399228
0,0210385091539645
0,0216414848646069
0,016148255373196
0,0223533898974209
0,019749425217304
0,0229498468920421
0,0261228259434791
0,0191310051819071
0,0300228368099777
0,0175441884837284
0,0248749451422376
0,0191877353958972
0,0490671497853499
-0,00431773886347717
0,0402622341582082
0,0196692775845053
0,0325076046887517
0,00635798577360813
0,0283887060946727
0,0173763630192754
0,0201824497462849
0,0258254128131244
0,0251722643095297
0,0245885733673545
0,0332029370199751
0,0153899197645722
0,0249519099566683
0,0155624372016056
0,020156235469767
0,0247849674388889
0,0441361607367781
0,0165308794464331
0,0259659149367038
0,0221665941397237
0,0168604602415786
0,0460196228155205
0,0264094681660626
0,0182030459117418
0,0239050446096693
0,0231173436436883
0,0235455951468458
0,0125216272956499
0,0296328317334021
0,0191495313271382
0,0309782048597668
0,0318833760004241
0,011171014958152
0,0305168033769943
0,020669048294208
0,022900273836381
0,0103506188492483
0,0541710523772313
0,0166211512161886
0,0302583388520901
0,0287063903607453
0,0206207351660671
0,0257581532464563
0,0198910146107224
0,0288358855917399
0,0228755317670171
0,0265116002246746
0,0240769375496414
0,0218591025697758
0,0265982780246605
0,0360390066659722
0,0257874463344185
0,0207534011958623
0,0210270728553344
0,0376347428002778
0,0322025064705248
0,0314424308419368
0,0277707362800212
0,0308928275359555
0,0227547136745815
0,0403013576445714
0,028287912087802
0,0252025050915697
0,0297395433860747
0,0313138527533487
0,023786452619754
0,0267194568780397
0,0284066441770751
0,0308300189004051
0,0268430552753903
0,0275811494363442
0,0438408654556515
0,0180104046941905
0,0329899047476022
0,0164019988164214
0,051434459760271
0,0215146330483614
0,0333607180970636
0,0301956319570156
0,0292536805077233
0,0257515102090315
0,0391858601756991
0,0311501371958857
0,0231939240545949
0,0276134930502944
0,0407933537224454
0,0307548987024247
0,0330439732580865
0,0457975424377785
0,0255605867751957
0,0597175564529338
0,0151828117686522
0,0458261194659984
0,0433703527538977
0,0210866265227923
0,0344361198167361
0,0426142053488491
0,0358219659830569
0,101129743888688
0,0189094905785508
0,0295092068013125
0,0244871946121001
0,0400443590392424
0,0178996596024095
0,0483260110761099
0,0276655603616012
0,0492685551570012
0,0319279483141651
0,0310799181444263
0,0616828566696461
0,0255127473469392
0,0661263725793888
0,0326339333243402
0,041510790879998
0,0402231415185703
0,0422815458674287
0,036632498710747
0,0467281299639604
0,0421710481252782
0,0415630890571673
0,0443370928258779
0,0425645965983305
0,0550576866203809
0,036598561613034
0,0460422306151418
0,0399490736028836
0,0543065722297457
0,0337122731083538
0,053067422425237
0,0384285547677109
0,061374018899531
0,0452652047125452
0,0470121823258874
0,0485472260771277
0,0541166394267184
0,0520714930410349
0,0708838581739589
0,049650370842844
0,0605501179241118
0,0406150376391662
0,05767999954313
0,0484185265904974
0,0702045019395004
0,0427364190645576
0,0774201033898587
0,0535462282512816
0,0665476711557225
0,0495812862932749
0,0711950037934133
0,0578837271468117
0,072178865616568
0,064537873041588
0,0819981975257991
0,0736330881178688
0,0764949511177702
0,0779819778465262
0,105849406558645
0,0588008808435605
0,110426395948016
0,0744111711731871
0,0827193086413179
0,0872172002544316
0,0876890227346763
0,0892142185724507
0,0943801625410689
0,0945867135351601
0,0963836874719826
0,0972052205689672
0,106239746738682
0,104250324502629
0,118877603868767
0,113856187697552
0,140550814200605
0,126703019692676
0,118539537341896
0,127039583102336
0,126964297694358
0,144304795689783
0,134229196394913
0,136298290215558
0,142621486056925
0,128201708420556
0,153210143022388
0,134476756514321
0,166216881025585
0,147007260712027
0,16228295853917
0,15146277780571
0,175461422458817
0,166931175178677
0,187070616738616
0,168178745199928
0,199848508084448
0,179270169955371
0,184648617197718
0,183455224868804
0,204498800076542
0,188764040231247
0,240536095865913
0,197591240101227
0,236190154595879
0,203894431329387
0,227800785748063
0,220670557743482
0,196557942431578
0,218775261343755
0,228608851429752
0,230629403501712
0,238649434640568
0,247040297137377
0,244260180986627
0,243115102866975
0,251066226790628
0,24835057836281
0,247145799836455
0,256096112532787
0,26207135532541
0,271571439672542
0,253251114882218
0,268888572048887
0,272392611302269
0,305502182949865
0,308781694969645
0,266802993138082
0,281339914596518
0,284468813236751
0,287360162740231
0,290546122978001
0,309030208959117
0,284035551063017
0,315173105829974
0,293591833037284
0,339796818516872
0,305113006501729
0,34677002515367
0,31527170629941
0,311312561260805
0,325537392899284
0,327574382003913
0,328212271903351
0,332982574504482
0,320720833668093
0,340035992972173
0,33937339371713
0,330692000130302
0,328268223443784
0,378866248856902
0,326038280753941
0,360664541829511
0,34652867267511
0,375418309206784
0,339073280901715
0,380085828989417
0,364135085668131
0,366563101705484
0,38008365845331
0,378349190449386
0,375811833971086
0,382791662705266
0,372336295356726
0,390635135198015
0,382937239038157
0,395556799039791
0,390195782452804
0,407791493674926
0,395322812103595
0,432905496764236
0,399056925250638
0,437544857125921
0,373019057794048
0,41554367123963
0,395932730810555
0,41250776376749
0,416202563777146
0,43421985496991
0,415911190935029
0,446401814712422
0,429539914038781
0,454624014605212
0,434119699039413
0,46009225130003
0,442873074561811
0,457557137255023
0,4445425990534
0,457623641443238
0,464910905311634
0,49099106327838
0,47569620700883
0,497357744555843
0,453377728660897
0,492403258325444
0,456264661323631
0,481739656467519
0,471161787964334
0,512257067489285
0,477357858221102
0,498678075724844
0,481636112604128
0,513289349950207
0,473524192836509
0,5146096961857
0,504062173817709
0,535771079368682
0,524872061300645
0,548060357686687
0,490099712268209
0,514141039794836
0,513379191385928
0,550624233337066
0,522758500231257
0,551434849514638
0,508998725813453
0,57956391365898
0,537508572396655
0,56258638613772
0,542717276886549
0,564056010924968
0,556448595079827
0,559545501713218
0,552916867446562
0,552751631112347
0,551901824821356
0,589959148066188
0,568610037523248
0,629590010048599
0,580583364495429
0,618702448984435
0,576033350888001
0,590512216152458
0,587317063424969
0,628842199194184
0,602469022784603
0,630334451137783
0,576090841086313
0,635093642196508
0,59570529097483
0,656089422269067
0,609612052066992
0,646881481185007
0,636220367656557
0,662799324631763
0,616510243774361
0,632682210482261
0,632620720896867
0,677035399243532
0,61725677317574
0,691650456109341
0,666775305583839
0,674572890932038
0,661903763123252
0,690587133334387
0,661869037300217
0,689831555291318
0,697193547947616
0,713114107010283
0,668314164213764
0,695353585663929
0,673681235074517
0,710658900277197
0,706834530884398
0,729149735738401
0,665377900763317
0,710528120260037
0,669846030972791
0,734740355118035
0,748726616453541
0,71672548337613
0,710201526730394
0,758183097581683
0,732052246549077
0,780603093160549
0,756328444183841
0,753306545210001
0,723935443730679
0,755117825242185
0,707607225101179
0,801372134378899
0,768134029078024
0,777740718248346
0,763953598391385
0,797897680255421
0,773339203965832
0,80926409893235
0,765860604204983
0,823333685388768
0,75764735247093
0,808126275694755
0,809278553976532
0,769236392107808
0,797183481035516
0,828442045776302
0,801443303148922
0,840756145172323
0,768374582952081
0,804668227260079
0,821415924304252
0,849897728440549
0,830887798907026
0,883379967560366
0,82715588966668
0,854825095140784
0,87599155495845
0,899149191920157
0,853183520690181
0,862706953385261
0,857145312299753
0,860830268855119
0,830369505712991
0,898966207024116
0,875684713338816
0,935797603081909
0,911436331169781
0,923987341786097
0,882205551600817
0,891950960872803
0,876545605559072
0,9404325107995
0,881149544294634
0,947707118124511
0,906622175468945
0,986327294403851
0,991250287127385
0,960297645774299
0,907247964613224
0,961404174230063
0,901301464015436
0,925642833338147
0,90014653834099
0,956550384859535
0,927530269913524
0,92651001733759
0,990937584262727
1,04296860871558
0,94153731668667
1,00506907700722
0,95191166142534
0,944758286697972
0,999000852444062
1,0432519692257
0,999100663595168
1,06377276647711
0,981800629435082
0,991886744565399
0,985808447957716
1,05429398092179
1,00488982554779
1,03813150702711
0,954521271458244
1,08266465269604
1,04295402728575
1,08410004386133
0,978654074180584
1,05813871419607
1,03491865441055
1,05172442582033
1,03519855716928
1,03279907196058
1,02419600891587
1,05523871914441
0,982723553324035
1,07318156005042
1,04420618333835
1,07290125138609
1,06579255576505
1,07679880664764
1,05955944826964
1,11296554607331
1,04610203794016
1,07409027009531
1,08296513167841
1,06852059121319
1,09246222755047
1,18261466400801
1,08928954874885
1,08457614785674
1,02359098105066
1,05290772675476
1,1073376351718
1,17107391641105
1,13346053914278
1,15950265966538
1,06377891108537
1,15910928290287
1,19685858618529
1,17885206252337
1,13169926313357
1,12596420392047
1,06549086712843
1,16520669013689
1,17660423141882
1,14615356832794
1,07459460552412
1,1331846848367
1,08085474948273
1,17643067329021
1,07604444435327
1,11916885804658
1,12405286534752
1,16126720310176
1,1522721028302
1,1244778822365
1,10530969782207
1,18807988658641
1,21277983049229
1,20785361968127
1,13292955649166
1,23047545773807
1,16632520722885
1,18467005651906
1,1731532232168
1,18900707602591
1,15758027695307
1,14444451270132
1,09753386463864
1,15483545014542
1,16253865097801
1,18311558891632
1,20448530979013
1,23716289569293
1,16246490623531
1,13626642068981
1,17406049953377
1,19937138482196
1,19749211435904
1,20259033687021
1,10979888916227
1,24754905684409
1,20449319845764
1,1318777367224
1,10833559299867
1,22653415111992
1,14007933509737
1,16139851541663
1,16477611753563
1,15810585409189
1,23068016641014
1,24460099314349
1,140825186219
1,26744894110556
1,19635561957449
1,14275610060654
1,19992001530044
1,12884700757667
1,17593332022939
1,22095749990601
1,16656452824952
1,18705918023073
1,21444567649923
1,22660046248937
1,20074826120507
1,23017260328943
1,13312038062712
1,17248875991878
1,13344032906631
1,13991713015055
1,14898162510391
1,14065747967953
1,16540839571897
1,18304969304983
1,15911275698329
1,20713660211072
1,1369343195194
1,15127640236263
1,12506086180863
1,20734858790272
1,17165733703651
1,1507123397953
1,15524866023693
1,13992774438831
1,16690167158335
1,19197092027614
1,13474950006789
1,14595839910388
1,13844484422211
1,16792357058985
1,20353785191136
1,17651473062049
1,1635671255401
1,179306004533
1,11171298230812
1,16524899667318
1,20911729316979
1,18000277717176
1,13049930107335
1,21161671331577
1,19232712725234
1,19881885577312
1,20452238278542
1,22828081114554
1,22029781029148
1,19130715033855
1,1352773117664
1,13096107138902
1,11969628125289
1,14968693073942
1,16674313354809
1,15812958255184
1,13459223027996
1,15918850319042
1,20275455953282
1,16674764640724
1,12659560229029
1,2522105125261
1,17230272390603
1,16671408589075
1,14368974212927
1,11117252355247
1,170750178403
1,2378280440084
1,14052028421295
1,11872906372494
1,19623704468795
1,21454803110001
1,17885136595351
1,17831431212439
1,21661630058418
1,19602108514762
1,16523741161392
1,17458954017611
1,14412885179569
1,13842866130772
1,17416464912539
1,17687194143592
1,17313832264983
1,16467380488769
1,16514339311694
1,21190874543568
1,16655706110054
1,14635302459175
1,09227235512791
1,14874356945729
1,16480885931428
1,11493280434515
1,13550778175358
1,1118563347793
1,13866091593749
1,1557905096419
1,14762582082049
1,1543712232143
1,12192580496924
1,16136006217672
1,14661231783967
1,13911604416821
1,1461619949912
1,13188529948979
1,11672373666411
1,13517501538534
1,12954549850813
1,15257213718553
1,13706520230806
1,12259466219571
1,17984333075759
1,15087419258137
1,10186208085326
1,10893519258691
1,12289112987284
1,16032377141409
1,12159130876776
1,11934255042094
1,12543050930973
1,13375166154533
1,09116282768945
1,11174388526804
1,11867179137477
1,13596717906739
1,11217979103323
1,08143640292225
1,08741257630472
1,09870308478786
1,12768171609607
1,09809070548331
1,07156455310381
1,0774992464723
1,12196141650713
1,10794838762648
1,07777019193221
1,08122346748688
1,06714353273983
1,10089366124609
1,09404788144495
1,07827138676675
1,07147686803115
1,03230956323488
1,08659822404528
1,08084989823979
1,02575919926109
1,03579639634284
1,01428705332708
1,07906008621372
1,08778788212238
1,02421963934503
1,04185468303969
0,995637734308321
1,01885044500215
1,01536552149298
0,990582414829011
1,00487859484249
1,01015045205622
1,01376320297438
0,971313141165751
0,959248860694953
1,00243518458516
0,994150126313087
0,99884469949098
0,98900908268765
0,943134031149479
0,979237434388668
0,988238564380761
0,954978839626421
0,955875455049489
0,933704562679458
0,95147029626033
0,949823325440488
0,936735975187719
0,959093717912519
0,961708112797173
0,943313061341036
0,932191926034849
0,933760552485397
0,913945104872928
0,894578227631656
0,904236738824956
0,898806149634153
0,890534424336059
0,911693757729111
0,886006076942041
0,857453170332656
0,87881917480864
0,879331540267335
0,840887286663009
0,851560691167284
0,87511147050645
0,872416097946663
0,853735951641587
0,84269641279666
0,836432919486262
0,837243756632088
0,830476862376588
0,810996315702845
0,817380020072879
0,820784269610085
0,828882223869024
0,811952340711959
0,79633738621831
0,785777161767412
0,787132645634006
0,782465007647387
0,783599012049558
0,765229049211638
0,754788079973508
0,789654319270603
0,763576218672667
0,765697813527426
0,748406677829094
0,732540191247877
0,749346343785218
0,73398671346005
0,739833674021171
0,717603110858001
0,726579482165131
0,74237517387104
0,722636025849692
0,712014895270448
0,716477318244454
0,718595163297592
0,707667910099034
0,690733420984827
0,691330915580447
0,689658519836548
0,689159153312196
0,683985800607794
0,67364228427239
0,665968447494346
0,670396166191676
0,668123845755681
0,66022667996601
0,647158581826552
0,651144932941235
0,643899021121542
0,645532259781663
0,631293427540698
0,62527847498326
0,624729222546163
0,621836363564682
0,606548488746778
0,609927133099162
0,601838756789611
0,600102101023098
0,609227756973478
0,602871592205582
0,595045619641468
0,589862969820273
0,596909562209042
0,59865035581631
0,573189054815879
0,582262448237149
0,58062985806186
0,56072946447036
0,547989834175831
0,555454176863432
0,553721819928377
0,553848040295077
0,553086229564649
0,547159998195235
0,530781417258523
0,544295858671353
0,528953063983912
0,519793474451732
0,519085761160238
0,514597854793229
0,515423245344806
0,514656086987785
0,510631336148186
0,514740968504505
0,503364525001581
0,499740696094149
0,503469736007019
0,494316220701092
0,485636275551683
0,48610360048614
0,488054251606188
0,482171545760879
0,477530739287013
0,473235772460668
0,469871671842837
0,466788153131685
0,45993790193267
0,465720981285143
0,461350813527901
0,446950200782683
0,450933638910639
0,445356458252791
0,440798892883606
0,437988718781267
0,436592182979335
0,432720597912115
0,433601087350897
0,441311059961543
0,426276630749171
0,421894648248604
0,41777081029571
0,417908678969503
0,422128834613255
0,41774573845489
0,410950691195358
0,403294361259239
0,403370247192889
0,397844299370756
0,39285893806177
0,390326765300389
0,383404986473364
0,394831406717405
0,381222020453626
0,380213992425891
0,382386120065312
0,374664452883128
0,372659950201613
0,378170096712366
0,367955289040454
0,361264684247275
0,367519577410214
0,36569016049617
0,364783464797478
0,358143644925092
0,352128800897347
0,359506576293542
0,354286027593403
0,34794110452363
0,343465884338274
0,341944864494523
0,337124187348018
0,339502711636306
0,338667968868297
0,329628782669683
0,333078481460488
0,329201722067946
0,330472117491147
0,322624798509364
0,317218315601116
0,317996107593709
0,311871448588957
0,317143459138705
0,313152392667185
0,312690219206946
0,310351371115152
0,305182978331
0,300564556067943
0,305412253223253
0,304299005902358
0,297446782761011
0,293949945543509
0,292998121629246
0,291872405684676
0,285658916965844
0,286909259368821
0,282320404018646
0,288685509783779
0,281541944069628
0,281086626408101
0,277573641421912
0,272340937633329
0,268428276943514
0,270462160185916
0,271426603342822
0,264963436914411
0,269982143990681
0,260648681140403
0,260294145010575
0,26132796450469
0,256573461034796
0,256518368731569
0,254252078684467
0,252934542114715
0,253700883608234
0,253718361373854
0,256808770345118
0,243888042239329
0,239600365563974
0,241971671808738
0,246380925496576
0,238959331808248
0,238521198995064
0,241755579861625
0,228444105434432
0,229699701631997
0,228634156051341
0,229297062928218
0,226941562163285
0,227356538779699
0,23093572052336
0,228232359000596
0,216217930780127
0,220150869523746
0,220555635259823
0,212527032151568
0,213297002222093
0,209716519337539
0,206548657559009
0,208367224593907
0,211149490281855
0,207677524290096
0,202694295432231
0,209451363389152
0,203500680164221
0,205419645428299
0,198413284425029
0,198103980070597
0,201276043459262
0,200167617957511
0,199492851297574
0,195837704314869
0,195621223862293
0,194669469230757
0,18979215112337
0,190207731322714
0,185344743240045
0,187082111418203
0,184217554245952
0,183474202798971
0,17994631119775
0,188118012721961
0,183708176460351
0,179057984831205
0,181151815036923
0,175832045769728
0,176760822518843
0,175271436151096
0,17260928046774
0,167169086993089
0,169549024977767
0,173702869840596
0,169334169453664
0,1699183703819
0,170035414687254
0,160615809051185
0,161837103075306
0,163414043711105
0,161476282475185
0,169005845207301
0,158112911502882
0,162932471825152
0,160162517130468
0,155891345912008
0,157800451951347
0,153443320269382
0,153192980448093
0,150277040783759
0,154364699434569
0,149155994423258
0,14321507676672
0,147991151463261
0,146075989762184
0,151257264778588
0,150147495301115
0,1478025808064
0,149354956716128
0,142745136257836
0,145831184574505
0,140260660882038
0,141140064654138
0,136738787170967
0,140426754187307
0,142805600577874
0,142003828430428
0,137035959721685
0,138001345110629
0,139620158413586
0,138935673525416
0,135956368631492
0,134424777091716
0,135357729272277
0,130741242586285
0,13171675831532
0,136171288970195
0,13105167614582
0,13208903895307
0,132648649899248
0,131052910002472
0,129469740950624
0,126738473599691
0,124908505241024
0,123417482977117
0,121417374380129
0,126306789591669
0,122514693203028
0,125039340350552
0,12383175308907
0,126796665368225
0,120381615601296
0,122028426791557
0,117554168878024
0,119482349863562
0,120871772317112
0,115441245701552
0,116668836733731
0,113136607939147
0,118751945583379
0,11785002776248
0,113291224051639
0,115506295910561
0,115160029836237
0,111413864484245
0,110792095971032
0,110654363625059
0,113098838861216
0,111162904313716
0,112216254785789
0,109619599960117
0,106268094803875
0,110079912094626
0,105165229047154
0,107128099613012
0,0988485668878077
0,102899590741011
0,105534799695671
0,102666957249146
0,102577209466332
0,104364604666066
0,101596381081833
0,0971378803023563
0,0980436597244105
0,0989897597288999
0,0953604599409816
0,0999320801513028
0,100542392132327
0,0978233101010307
0,0993525609300535
0,0995378905987823
0,0988408853019853
0,0981514954685238
0,0986827511488745
0,0922669685859494
0,090980569906521
0,0939586460928415
0,0921496142438312
0,0944028800832141
0,0910166973609128
0,0921908909853371
0,0930402469644439
0,0925627343890274
0,0906848367891419
0,0936223210292849
0,0899772412096685
0,0897688000672288
0,0895467290846703
0,0893981418206453
0,0895206177482468
0,0888071039007958
0,0879244835332198
0,0879058126514708
0,0889506673860157
0,0886051123395981
0,0868623624252649
0,08599923907709
0,0849635445411139
0,0888321364281739
0,0848959403588916
0,0859623155979395
0,0841524168829618
0,086571418352103
0,084549762751905
0,0858397121073708
0,0847452928820616
0,0838096063603924
0,0815374115615332
0,0824211743419924
0,0848529119400977
0,0846062696996751
0,0844736376090584
0,0787477840402912
0,0796463399608985
0,0830146007113147
0,0787412709376176
0,0836544282549372
0,081206397918437
0,0776042413903511
0,0797266599773951
0,0787741989713176
0,0783831590826764
0,0788153409181734
0,0789490769031084
0,078425447804194
0,0756559568113845
0,0770300228864075
0,0743784409957934
0,0765953685846277
0,0752074575960539
0,0744770191800004
0,0754905076904495
0,0731217045915985
0,0781255417950668
0,076962838984043
0,0749346943323878
0,0734999467748585
0,0714468825550968
0,0714379170887239
0,0742873277094037
0,0767959509141885
0,073538749234764
0,0725218487908529
0,0713286505844397
0,0690841470515687
0,0705569407108605
0,0720705034396672
0,0674385272315822
0,0749700548673217
0,0718719429837229
0,0727958801353055
0,0669664779214301
0,072318425983053
0,070885562181614
0,0708016405549997
0,0667341407805466
0,0692617338921254
0,0679653047833713
0,0704734131337966
0,0643757033738935
0,0687037382625742
0,0656049545395302
0,0665366585999563
0,0691297929501255
0,0706355381475817
0,0673281191854275
0,0645277520236593
0,0657428473219101
0,0644868994511757
0,0639233212940538
0,0640790751855262
0,0623560178197054
0,0650092363309574
0,0634299381992206
0,0656783230889923
0,0638790286493872
0,0651439237839858
0,063075570240394
0,0648635903022989
0,0667809223451503
0,0623469924096004
0,0601334811372593
0,0670618029806793
0,0642584664164417
0,0650685921932425
0,0638798558417564
0,0630248810222539
0,063654461274581
0,0600369616556939
0,063230623587064
0,0592327996643869
0,0588154250395084
0,0610963464729055
0,0628071473230273
0,065277971581135
0,0626866738170061
0,062082950566898
0,0549995615136526
0,0631672547842079
0,0641959916145045
0,0627501500123605
0,0618913109334024
0,0612835094273495
0,0616770520500087
0,059542089528794
0,0607399167646692
0,0605595927522468
0,0620068874832072
0,0606831885234618
0,0630860819406531
0,0601758400425567
0,0617235325828092
0,0605507428420112
0,0614161220297312
0,0611171618078911
0,0573939285914298
0,0577060301396866
0,0580517288010524
0,0593420041072243
0,0614641024686529
0,057315851007474
0,0593144950046531
0,0588255627347898
0,0564066255904117
0,0579063268252626
0,0590467798683288
0,0598041991161992
0,0554588605409575
0,0614964595823629
0,0542438763438457
0,0540544496462653
0,0569190261098642
0,0575321855622033
0,0584253010974626
0,0593061553643809
0,0566818143398993
0,0563331581990699
0,0588530409271169
0,0554482660175406
0,0527358504263828
0,0577397433423116
0,0575547279720596
0,0578558540791624
0,055077456247399
0,0555863828367154
0,0526796510252937
0,0555260805410605
0,0531375417389412
0,0580590200140748
0,0537531235545736
0,054377608698278
0,0552771033725086
0,0547709605123292
0,0549403669625944
0,0564429623281032
0,0548692306918696
0,0578153126570175
0,0523136327938092
0,0543503340648432
0,055517525639501
0,0547741171308348
0,053101817465847
0,0570756092127983
0,0528059041498812
0,0547370149228751
0,0540041876623554
0,053545958830147
0,0559131816287305
0,0587578366137902
0,0565417184535496
0,055693744242921
0,0527529954260435
0,0546533018447583
0,0538083048909503
0,0546292376583006
0,0545958885282132
0,0528622388032462
0,0559588841468036
0,0564200905229351
0,0553420266113205
0,0523517086189084
0,052760150203947
0,0547340074563603
0,0526950909612476
0,0530398859423133
0,051862016179297
0,052785304418156
0,0493134652270811
0,058640778060448
0,055534008096779
0,0546974659788223
0,0491881839591535
0,0516013167835911
0,0521704862613076
0,0527026480442492
0,0509920947697656
0,0522311754932964
0,0526536288702105
0,0528931813681015
0,0533106805039663
0,0546640769567556
0,0524718749580079
0,0551327428054915
0,0484414275348633
0,0512138046143533
0,0530889420387358
0,0494526837039608
0,0499821910347853
0,0508325107265383
0,0517104146452331
0,0542449925430161
0,0537750284821516
0,052049712041062
0,0488967492832639
0,0538431457303967
0,0532608356962408
0,0518496694323204
0,0510110335728259
0,0522440402989181
0,0527951957578522
0,0526754635814597
0,0507523710929153
0,0529898957617485
0,0512265684464844
0,0534529196431069
0,0537368321656853
0,0499191639149051
0,0513486777005188
0,0513961142355399
0,0507566012035923
0,0529523761795221
0,0497395413690436
0,0522182562758093
0,0503228962735279
0,0497914701086307
0,048056020817209
0,0531645131014464
0,0511797458704426
0,0570170151912314
0,0502579540687805
0,0484838391259689
0,0515807738382337
0,0523648422282897
0,0518065693388278
0,052771589678267
0,0492957014050046
0,0516247286880638
0,0505218298131765
0,0533094661895071
0,0523935234000359
0,0501850950925904
0,0501740275291301
0,0524623265421576
0,0493443234684065
0,0528696922369182
0,050075151143211
0,0525651900767297
0,0491581921874733
0,0520898004919635
0,053954894862966
0,0508381723309011
0,0491622285781811
0,0506067316541177
0,0487777324592517
0,0515641934484228
0,0530774577328342
0,0526010692924102
0,0513636593991921
0,0527895664757161
0,0525392478094939
0,0532366175061725
0,0507280690938705
0,0560252580380681
0,0544750478855106
0,0515556245722403
0,0525197517071031
0,0530060563233623
0,0488773948739569
0,0520792077879839
0,054617639560335
0,0539692625323896
0,0537868605982681
0,0545002934847416
0,0506653294676183
0,0553925731844463
0,0515727567082891
0,0506496349199093
0,0507677711990272
0,0535521845039482
0,0521030793042783
0,0536273678994382
0,0531386057561435
0,0537556861919134
0,055459198629268
0,0534181316459361
0,0528635067017688
0,0535273461311334
0,050453954520844
0,0507124163699303
0,0523787815560107
0,054063624540038
0,05038993731719
0,0525455982021159
0,0519803128601811
0,0530003243972584
0,052380018561812
0,053314597709306
0,0552012991877724
0,0523468856082905
0,0560783351231547
0,0565802870031223
0,0521956226274706
0,0566428528280193
0,0536284095727906
0,0545443920148892
0,0536215318617761
0,0548517354776025
0,0547217178577635
0,0542113374621776
0,0482879994077004
0,0553293088116312
0,0519748854474208
0,0521733065986781
0,0517416370103273
0,0540385000488578
0,0537638807302264
0,056083216747198
0,0531004718276494
0,0576605153743126
0,0552849336752979
0,0558204991177455
0,0544807494066169
0,0557974121179201
0,0547957252714991
0,0572625896024519
0,0544866926648068
0,0564150922736771
0,0548312258364947
0,054691399851264
0,0522492147352059
0,0544992840545398
0,0539879543934319
0,0557739712001356
0,0535637640437133
0,0548982988111477
0,0563945877812708
0,0539031122821742
0,054834293457133
0,0549119596023708
0,0574116177869041
0,0523730788915439
0,0547243532367843
0,056503963520552
0,056722761753795
0,0585749600944947
0,0579072142798699
0,0545291861154565
0,0568892037782486
0,0578955988883397
0,0587168140966658
0,0566460125748963
0,0552113647644347
0,0575101082824082
0,0542492329384484
0,0575155992575709
0,0562454251473076
0,0559922987648757
0,0566787214385205
0,0567719640740273
0,0561563846920668
0,0562420364535608
0,0571976335882701
0,0568840809344655
0,0559616882591512
0,0560375410882641
0,0582295388780609
0,0561971855133489
0,0536239278006063
0,0558307525184605
0,0558972103602285
0,0584716548475638
0,0561965504672319
0,0570504227824035
0,0550423078973496
0,0584767189173821
0,0589208791747597
0,0577706183302408
0,05619930914219
0,0590543658143942
0,0576517533202793
0,0593354034210741
0,0548677469464042
0,0584655548168952
0,0590154954807054
0,0593911825035179
0,0584186713273114
0,0568280302195379
0,058255979628944
0,0596667754150215
0,061064962129005
0,0603942284255738
0,0576888938949838
0,056775735350475
0,0595695482484296
0,0596463604478158
0,0587708808918916
0,0612139274003838
0,0587092037680437
0,0587695421593202
0,0578988363746908
0,0587014991849581
0,0615875244487298
0,0602841433032111
0,0607937588542417
0,0626477647393607
0,060369084718161
0,0593271983463953
0,0616915538632131
0,0576894277461341
0,0619673379894589
0,0595500886702857
0,0620444599064051
0,0617931439648943
0,0601750794900195
0,0603323191780764
0,0588716368350135
0,0614284166316546
0,0622718048798326
0,0617647691209672
0,0609085408458898
0,0625592769327651
0,0612199636446514
0,0597883046342987
0,0630691391425279
0,0609717520649514
0,0632623022270231
0,0643307106630766
0,0635881242101601
0,0612752647602821
0,0622395608026535
0,0621844070349868
0,0613713342535661
0,0661704147982477
0,0624630400877849
0,0634083221054581
0,0655978537336443
0,0619412518710298
0,0610088115803265
0,0602760766483157
0,0640584523892082
0,0615259587350053
0,0656424915217089
0,0641198371300027
0,0631717972347935
0,0604048826877243
0,0628698480053359
0,06421001461331
0,0656081351886919
0,0629360731002717
0,0635626859204145
0,0623315276953897
0,0653128032802132
0,0667933124375426
0,0658234544101643
0,0643979074715678
0,0676260715491862
0,0647093612422845
0,0684277735026461
0,0689344964617883
0,069283752741149
0,0722973349398433
0,0721286383281672
0,0725071919106871
0,0731718220850342
0,0721102871917554
0,0788205559392175
0,075640642751391
0,0724061934528505
0,0704512175087766
0,0658354137242116
0,0712776002744403
0,0782861383671384
0,0729209490447708
0,0733283615941309
0,0698541729956069
0,0737545186552114
0,0692604160825479
0,0810253555594324
0,0728946571930727
0,0778672950687292
0,0736824124961486
0,0735200833036938
0,0714038538612321
0,0764255137430139
0,0682236052358562
0,0790079318128569
0,0667104974034837
0,0761469732801985
0,0712777815356863
0,07474508260064
0,0646204711863919
0,0805912967532273
0,0650464698588379
0,0800299290132621
0,0644291883930591
0,0850086280535993
0,0617550601484197
0,085326678935907
0,0640358391927623
0,086809773451985
0,063038204762599
0,08969460692553
0,0649000848526517
0,0890508873563576
0,0568507710962002
0,0907791288463407
0,0576325850640299
0,0903934628919586
0,0573887896522746
0,0995856012688738
0,0595359406975051
0,0979475550170542
0,0543585368962719
0,0972106082620253
0,0605083691751262
0,0994545648984094
0,0569049131888287
0,0835690735245279
0,0656118064184811
0,0903204363625456
0,0700273877976974
0,0707936497350874
0,0851104867128849
0,069660208920994
0,0899589960691368
0,0629090986363161
0,097322347978474
0,054988681743793
0,100802288200421
0,0593926783931322
0,0973104018621932
0,06101889742581
0,0887512229886978
0,0670618042544384
0,0836966974215842
0,0730920178476957
0,0805182208375727
0,0745228973683092
0,0777214773183083
0,0773802490351038
0,0786247538230201
0,0752327006122672
0,0835915723406611
0,0742527356180434
0,0826107017442915
0,0726121455837997
0,0836980562464609
0,0747918773260673
0,0812719121173944
0,0749819158722951
0,0809787703515708
0,0762830400509904
0,0811820206135948
0,0740297016194151
0,0794590713496198
0,0744567812170981
0,0800560728215216
0,0760989344663125
0,0821346858866426
0,076281394706443
0,0846606119934483
0,078071852571921
0,0816020261738688
0,0795098368977706
0,0832091747048969
0,0767716969640297
0,0817944671148994
0,0777396114041624
0,0826861806538074
0,0809130681828265
0,0854080388665125
0,0791309890020191
0,0840934404994372
0,0798736709372865
0,083084828006329
0,0792179595327066
0,0848619324468057
0,0813491116227228
0,0856645328272695
0,0818415505978634
0,0846402879795272
0,0810109925478677
0,0854970791224352
0,0787865624666779
0,0862877976747084
0,0820780161395173
0,0858729674485305
0,0818520101711793
0,0876191110553838
0,0815357730614159
0,0867217475678174
0,0819820265721996
0,0875550303985883
0,084287478937262
0,0886884993465157
0,0840047952348302
0,0880800875550919
0,0843538361938707
0,0902325408693872
0,0827669740651583
0,0877869002867987
0,0850598561291581
0,0894810093026581
0,0868292473441259
0,0885400627720845
0,0855036046011932
0,0890546771144013
0,084111476920927
0,0901504808212363
0,0888974595262052
0,0904028589162504
0,0863377241167081
0,0880893432749923
0,0877819985327141
0,0922164846936674
0,0872468625013313
0,0900184041137042
0,0862397678426743
0,0922252268559631
0,0888396935342394
0,0924381464323361
0,0890688328133327
0,0931119247541402
0,0896706976522624
0,0924696085620565
0,089129412252318
0,0933356033524568
0,0920208967285872
0,0953424249339936
0,0914026341637861
0,0948407384990784
0,0918585638579233
0,0935888406574796
0,0909845579810754
0,0959843978502057
0,0926080286150427
0,0966475626126892
0,0934756254075406
0,0968304355082923
0,0934783881742079
0,0949209856195114
0,0904360497233101
0,0961774178744102
0,0933086351176341
0,0993656005293998
0,0946891637797126
0,0970343703713952
0,0946192451368618
0,0982507468015647
0,0933422645463756
0,099927165877752
0,097922417156297
0,0959897272427379
0,096966526127407
0,102006736443848
0,0989874760468276
0,101276560231955
0,0959625534842746
0,101173664969357
0,0980074599638547
0,0990002231288182
0,09911773235464
0,101423883795034
0,0981773102694652
0,0981143682904841
0,0971476706182093
0,101838563455535
0,0956478936102999
0,0996274430133254
0,101189029172145
0,10317654492107
0,100861834947504
0,103478945766229
0,101864879507405
0,102773191871118
0,0994361899222667
0,104125332034973
0,10122953197421
0,102938384187941
0,100325756367101
0,104654558295652
0,100450001511357
0,103717667891262
0,103122472801483
0,104719510445265
0,103400790463553
0,104799997817412
0,102012639717323
0,102803662243012
0,0998779924716237
0,106600120632679
0,102629456549606
0,104668688633482
0,10399864443442
0,105215517430699
0,104839429692783
0,109425207935408
0,104900972441755
0,106801750875994
0,102998514005715
0,105325088279043
0,102884005512372
0,10763019368391
0,106032596588
0,106725872319527
0,103555360438374
0,106062994319231
0,105322386747634
0,108917753737147
0,105450158065485
0,108024167798808
0,105628637577114
0,106953836403695
0,105129324881781
0,109131173698224
0,10535205915115
0,10494263948003
0,105199150635396
0,10907125561606
0,106681617002653
0,109766249227269
0,10658772013605
0,107968349604666
0,10526824410974
0,108127983269808
0,106082929655311
0,108092481156363
0,107323776373463
0,109402432900915
0,106830819399047
0,105931022933021
0,106942523118851
0,110013982666278
0,106979933672899
0,111794762693727
0,107122315418365
0,108392453233485
0,107235681331377
0,106873956208594
0,108417263872227
0,111239270864361
0,108765722900782
0,106879393767698
0,104364825747641
0,108987511668279
0,107798428632728
0,110017000493791
0,108102036129431
0,108256855916588
0,105872394847267
0,112094461591217
0,107341077528871
0,107620704442968
0,107313694657275
0,108814658167867
0,106866553282555
0,108434584560767
0,107876951726614
0,107367415096948
0,105014038326273
0,110472748257602
0,109685868779908
0,10623153765393
0,104963124318113
0,107485675396542
0,107929757003463
0,106818311836567
0,103034453557622
0,106490186960257
0,104676581427444
0,109080606801539
0,106854757410317
0,10801492022245
0,106383492415937
0,106822479795846
0,104516249880569
0,106503394690134
0,104672064734431
0,103999212383575
0,102377891252812
0,107093524707023
0,104761036017355
0,105658225458201
0,105278269779478
0,103779621619999
0,103233585997202
0,106804905036925
0,10623803408734
0,108482345361851
0,10242256141076
0,104697775387881
0,103955671948212
0,104153037784358
0,10276278778221
0,105208034767656
0,103532982425473
0,105777952484372
0,102970590307382
0,102953589082579
0,104334587416973
0,104032651934688
0,101622400283946
0,104062763135509
0,100489144738563
0,103101068125651
0,101403004134631
0,101925955165642
0,0990516182369909
0,102089976311689
0,102201430633856
0,102230904518571
0,100822822773711
0,102394904107408
0,100855093078865
0,10005246572922
0,0979981095302901
0,100510896536821
0,0978400873945629
0,0998129690369557
0,0989847641732607
0,101786120794214
0,0974818869420093
0,0980420312589063
0,09792192965637
0,0988505128833634
0,0978597806035928
0,0993331357580352
0,0936452358845731
0,0983372303506595
0,0967184118531584
0,0990013645201394
0,0955034186352868
0,0960035777651086
0,0967221259308911
0,0968775723974333
0,0947685337104068
0,0966059169570523
0,0932910137241965
0,0957347565193
0,0933422671837105
0,0945204380047614
0,0921803474472681
0,0963119344937857
0,0938329224566696
0,0982214453070844
0,094754671427262
0,0947036802175183
0,0924536331295347
0,0931964409856086
0,0906371503700677
0,090915376873081
0,0906588342133167
0,0905819185482226
0,0900198013665348
0,0899926938260637
0,0901904078801027
0,0921015083421782
0,0900426160583021
0,0918871906790051
0,0901688920587129
0,0891320748745291
0,0908404984988792
0,0913419489894584
0,0886362150430555
0,0886594305454
0,0874937523209319
0,0870104746542287
0,0877219717109639
0,0879646743201385
0,0859996979123165
0,08571768461437
0,0880787471742397
0,0850517777223559
0,0899720439959615
0,0887843407495974
0,0855288283416746
0,0870532122714952
0,0875433285511652
0,087372355197538
0,0845799693591468
0,0871665844968076
0,0856803260439461
0,0876505036331581
0,0836694364372591
0,0842494287898886
0,0838716072833083
0,0830475982489483
0,0851336877484379
0,0857357211970709
0,0802326936463348
0,0825277037500581
0,080433514573954
0,0815338067859055
0,0818095656679082
0,0815411536370167
0,081428154029276
0,0817024906784994
0,0821782589345181
0,0818591032680754
0,0801596480686757
0,0837515101668629
0,0782939229950053
0,0824365614292964
0,0804859348689112
0,0795928148627651
0,0773703564269022
0,07937875177838
0,0775734064981101
0,079367925521029
0,0766101409253355
0,0811011811714482
0,0778019162755152
0,0775750711896263
0,0752718925887351
0,0786982450107923
0,0744193831619139
0,0766798603409697
0,0737087037876046
0,0778106045553352
0,077020685921494
0,0811576368491831
0,0734742605939228
0,077480178288942
0,0724121246622257
0,079245227762272
0,0736227516292364
0,0772934217529884
0,0718399678518904
0,0734636319289586
0,0761611609734877
0,0746351859153654
0,0738573794751927
0,0727102501726516
0,0717260743621731
0,0727781528081227
0,0737916036493299
0,07609258076174
0,0724627029457104
0,0742276281851379
0,0735543896752655
0,0744076591342829
0,0735487284482796
0,0728427346486557
0,072153107283167
0,0733314368934247
0,0711229844047486
0,0719988066044534
0,0739798133813914
0,0756974101972408
0,0697374346358331
0,0747387482120247
0,074675866134456
0,0709608630606819
0,0784445752133821
0,0690573728479747
0,0730209893500622
0,068680732139172
0,0733711487360528
0,0677385024806429
0,0731287070887535
0,0694065190278537
0,0725772613172929
0,0717662636300238
0,0689256837052339
0,0691446537101232
0,0689425041108197
0,0712289982153148
0,0694100273125335
0,0699320679622708
0,0687488231452672
0,069207113048759
0,0689978348157162
0,0692796573765056
0,0680952236736201
0,0687371740349009
0,0701204736535664
0,0697666222881935
0,0713372187558642
0,0662597960421291
0,0693379792110051
0,0674512659349872
0,0704118261678814
0,0709903788589749
0,0691360899518772
0,0676605955051221
0,0663788645664694
0,0697596247165144
0,0660903514008437
0,0718072445132069
0,068014580953019
0,0693968845024844
0,0662085009001572
0,0684512233308597
0,0670433140782829
0,0702215650808079
0,0658147089683701
0,0681068603377756
0,0674114291217319
0,0693276119194118
0,0682423093373897
0,0685070452723055
0,0647221980413754
0,0655318078711315
0,0719712282064592
0,0694440380557186
0,0743187866318934
0,068460724149515
0,0708423860110915
0,0667210329640004
0,0679253801477996
0,0668416526652475
0,0678435513401423
0,0692064362755166
0,0687004742542616
0,0657337028785748
0,0670315789807165
0,070365558151778
0,0675323232103621
0,0691640976225684
0,0689788840954654
0,0673607911870132
0,0636523452768593
0,0693121720045687
0,0663554192561495
0,0692968740867698
0,0662207785477478
0,0738811174414788
0,0665794853662691
0,0743184999874412
0,0602804314577048
0,081900437356889
0,0633035304304316
0,0809582450572306
0,0664120041011278
0,0698709625236721
0,0660040413187931
0,0691269353615865
0,069514698448801
0,0707567541270687
0,0681883485555287
0,0688079607590038
0,0670526296264041
0,0721663830940928
0,07065777067705
0,0686122072711833
0,0713319402065204
0,074752431792762
0,0721683039003794
0,0728899039381083
0,0665531981337725
0,0769764971392037
0,0726740635392752
0,0727140843210697
0,0732437711968321
0,0667017756748316
0,0748682636859175
0,0701180151991759
0,0711454693933154
0,0690277700866232
0,0752044473466045
0,0746431030690054
0,0718546536259182
0,0712207192699437
0,0727202133259838
0,073572292174707
0,0677429843502371
0,075692507137083
0,073476153479003
0,0737768628179161
0,0751937221823797
0,0739416314015376
0,0769340638234923
0,0713283463231885
0,0783733169090759
0,072129389321362
0,077326008755013
0,0758280158159884
0,0755705155720766
0,0770998517422978
0,0747459008579908
0,0773454174029793
0,0781240356443378
0,0731085331318233
0,082071993210744
0,0716828469049513
0,0831004304323458
0,0761050565874426
0,0845115950821665
0,0839896843442529
0,0792715307057136
0,0865144336544466
0,0748358451913935
0,0840606526838823
0,0755456374915257
0,0908426627808069
0,0745520958394666
0,0881393733822869
0,0722523802374122
0,0899407431326704
0,072784341458664
0,090521580299811
0,0838081631956453
0,0872751469612389
0,0804360380098466
0,0887491367330669
0,0806601425805286
0,0896358034575347
0,0873536782706094
0,0911837902697665
0,0971282953505589
0,0860264431526864
0,0891599021642707
0,094334087109412
0,0833264742029123
0,0977899629671038
0,0863562397217078
0,0967717539440388
0,0861108668998979
0,0976094288366685
0,0971823028464119
0,100283238497142
0,0985302192607894
0,0957737472281547
0,0946080196671573
0,107350150634442
0,0969030795569421
0,104239227012793
0,0954855675838037
0,106256037805493
0,0960082151558923
0,119398535981024
0,095315227529296
0,126934516408283
0,102935868907527
0,1177511317962
0,113039948491788
0,114847867302454
0,113112123019348
0,113792582837487
0,117960365243659
0,116636072289069
0,113682272117993
0,119961597804291
0,116018332153637
0,119718288676301
0,125916329514347
0,119196383279947
0,127168988990065
0,130195514313252
0,140394767119694
0,139184765380861
0,132353334465223
0,133582770222157
0,142014177184077
0,137349072111572
0,145732983135832
0,137638373884453
0,144372790711744
0,142683224602081
0,145601464303301
0,152003101673686
0,146962878819903
0,158102707889845
0,151897952350601
0,157047142316588
0,162833917102294
0,175966209118173
0,179100909062143
0,16488916300934
0,184621745754344
0,166347861897457
0,188909729867762
0,17416446967989
0,185691367146893
0,185068431264312
0,189944578190837
0,194947538249815
0,196289521024746
0,207648547563172
0,204420745632296
0,217200541845158
0,220598021186993
0,215547432048204
0,224313441829378
0,219707347318964
0,265267952774675
0,192159575964284
0,261652609111454
0,223032357063928
0,260928662840017
0,246887886412759
0,263495586472731
0,265493544642779
0,261985328286565
0,268509196979982
0,276822202632119
0,281065351496219
0,28647604910843
0,288751915094378
0,294969976444106
0,299457453109228
0,317393938921915
0,309968117015245
0,362760392655554
0,337699902534544
0,324125667105522
0,333592829323334
0,341368375311594
0,347555353994715
0,354394109531589
0,345746903542036
0,361834407110606
0,375156493455466
0,375675990885825
0,384511689014113
0,379131893496894
0,400015405495394
0,385322643819138
0,417177289796062
0,395563125881657
0,433013229233261
0,417284154656884
0,427298040729903
0,433100873029528
0,437697418076889
0,450690525725129
0,450292099559377
0,468485333561032
0,459638859973875
0,468466773334426
0,472062375144464
0,487802452458666
0,486512951728063
0,480623277484218
0,500703092345613
0,506360740639354
0,561208937998332
0,524588545862802
0,536759736142153
0,525499806969848
0,528648479757232
0,546510086175446
0,54285721461229
0,55142268425663
0,543675201120513
0,569140195597202
0,554910355270509
0,554102332931685
0,564536462022036
0,562831504591272
0,572555510921013
0,56378855259845
0,580527947033121
0,56935462449061
0,592714677311913
0,597270432063849
0,583446648508556
0,579035395587459
0,576181964784251
0,576285099043688
0,568442285089816
0,579295746281599
0,564385170539182
0,563041483881412
0,557228142626941
0,568829998695408
0,539491596170967
0,561585676040302
0,550242127837671
0,547441370982141
0,535320067877182
0,525223304879542
0,529773591000276
0,514492828934498
0,508984853307583
0,525914700571111
0,51439612403967
0,501131525936782
0,477174911700439
0,477921914096406
0,465882125928108
0,463005347673946
0,45477985937087
0,457372180113168
0,443211628530697
0,442074740369949
0,422929104073583
0,432423861803501
0,416348841719227
0,408950448637868
0,402008278833864
0,401988126379878
0,391828589305218
0,39349854491499
0,385839620201564
0,375765925503521
0,366679251607959
0,372528356963572
0,360241979037809
0,363027081962371
0,352616034751902
0,356032994018226
0,342769284994857
0,339630592004051
0,333670755508442
0,335243167836945
0,327252552985083
0,326231938243075
0,320264923588712
0,315798084809185
0,308548408309015
0,312807977189147
0,307738139234268
0,302853902165015
0,301532749163745
0,297381190509194
0,295219365302612
0,289165423989011
0,30073295298646
0,282491691026247
0,290372056104556
0,286537539914321
0,273994590824247
0,280814361894865
0,266070125860744
0,286245624450429
0,27703128628851
0,275927225296791
0,263439188839451
0,262176236707897
0,262388185523725
0,265670169599548
0,256156200332579
0,267622230780181
0,242668822773012
0,26438165101773
0,240362660435274
0,260019590497319
0,284399004214873
0,261286051924081
0,24857650393371
0,240489462658795
0,261653706921196
0,239478296235011
0,252610186135382
0,228877130894504
0,244476798633658
0,232092198575974
0,242800098479687
0,238537029716155
0,224644227269929
0,231697066374507
0,235620781998203
0,233479572919674
0,238055936157009
0,235936525663981
0,229109017108943
0,238674084353917
0,22705195756084
0,244090754168182
0,22403059169621
0,222077296631529
0,216887181620574
0,221005903210643
0,229270826156234
0,209779554498211
0,226041657324442
0,215621508769917
0,209967405059042
0,215696632383096
0,214286560562788
0,218357935224968
0,206700318938583
0,229605283343429
0,196939838906008
0,219876932561047
0,201708895998069
0,225338666002597
0,219377987309002
0,223217382585724
0,207256025096641
0,209556585168573
0,220474753435071
0,201030154493042
0,212688308502436
0,201467967058335
0,200940241588985
0,209709126782648
0,197809422095482
0,202201998412762
0,206666323902426
0,20306069978791
0,215780008311787
0,215153749465744
0,231233319720717
0,205413976879695
0,194714967203755
0,199332479056824
0,19220630043221
0,197679726007014
0,185395800808349
0,200572213837147
0,202787908440537
0,18832852619884
0,207917771999866
0,185441671687281
0,196828841305525
0,1910540677454
0,191011774117077
0,190918359556323
0,188167283829332
0,197378417530322
0,193929456475716
0,187705831054529
0,197094013694195
0,18363299722042
0,194102795660196
0,185254577012952
0,193562563493917
0,183442179470622
0,190480360552212
0,188883849591156
0,187386578001716
0,185809645671227
0,184222902506943
0,183084713368367
0,201939276640597
0,175887272457289
0,201966213149959
0,18166331209016
0,208463324690235
0,184767947583088
0,188632634628141
0,190408330685629
0,185213644403348
0,186607405251019
0,183701292655704
0,182401624488261
0,202765975244985
0,181000512485164
0,192995224044717
0,177312948665492
0,193713774086776
0,178495156164814
0,19208190417294
0,182102053615395
0,195887079780623
0,211019092075941
0,183150365329203
0,194881776310738
0,181882052309547
0,190351430650101
0,185323322751664
0,186851842781673
0,18483730731446
0,179755818995072
0,193425811385946
0,18591696209979
0,185666591473843
0,182111790830612
0,182954706004677
0,184087735553797
0,177849047717679
0,182831734164241
0,181069082163034
0,181720720696834
0,180787967734201
0,178252461363923
0,202279007482958
0,186084377481239
0,18559087176329
0,184569277761813
0,181671662666752
0,188067426503265
0,178721105894457
0,188830454082067
0,182324653684391
0,183183789088192
0,186304655850909
0,178321867984976
0,184594637351276
0,175350262547801
0,19439445681011
0,178300882381097
0,186992655691223
0,185890394175413
0,181118156535734
0,20709403571536
0,170968422498256
0,199067427648889
0,176629893419812
0,190297434207116
0,176999326145826
0,185069336082075
0,180363730602539
0,186512275039158
0,178179638972718
0,184366769636637
0,184011323921837
0,182500090891959
0,18542146336836
0,183406015156812
0,186109657895302
0,185039154822493
0,182365120644859
0,185183454688723
0,183501461588208
0,179834752249549
0,180827293544102
0,188310076891724
0,178036054516199
0,187915901244422
0,176192008277594
0,191364211378486
0,189336447390866
0,182660006526283
0,179945336064415
0,182672587266354
0,180677147995967
0,183238239403366
0,176309837180513
0,196444265917485
0,181938862028447
0,187490785846431
0,17790843081336
0,182742276338251
0,17690641373343
0,183917630988596
0,179595903549822
0,184912975562497
0,180595827994218
0,185658911711148
0,179816966349667
0,181963738498954
0,183167509173193
0,18267193670964
0,191000684948825
0,187108779856149
0,18437660379984
0,185051526477709
0,17970201424199
0,184301553345988
0,179363038136381
0,185119838274112
0,176969261399941
0,186971040515809
0,17296058429229
0,190806832680397
0,183159000831525
0,181460636520917
0,183536658285692
0,177621691337026
0,182464841322852
0,177218971576145
0,180106985577347
0,178151107512654
0,181246146634099
0,177869604508855
0,179581796922902
0,178844193135719
0,178254024221593
0,178576183101662
0,177047325736607
0,17701603685684
0,175464948635711
0,181217329055839
0,178910328416163
0,181067141913211
0,178015160538972
0,17787641561104
0,178146005256307
0,179041950088114
0,184473866785799
0,182405705355578
0,182273174274002
0,177423000063276
0,184446666618479
0,175829422828241
0,177188056124196
0,177636157931023
0,175785678936468
0,174766998188547
0,177797305547793
0,174375343263187
0,17530249924008
0,176486526785325
0,178331748673421
0,176385030135529
0,179277804348746
0,178477233171872
0,176949537415351
0,178375984554166
0,177754152936085
0,176764058693933
0,173600332292809
0,176860333021826
0,17439831668405
0,179654752322812
0,175419940698762
0,180172276839935
0,176374326441981
0,177982732553299
0,174896778160439
0,176986326325703
0,17595818619218
0,177364952522577
0,175755171109508
0,177862644547488
0,177985653969212
0,176177542653381
0,175002637418599
0,176941118454995
0,178716996216274
0,172282334407112
0,173847906162143
0,177297247294871
0,174385563271885
0,175006938156638
0,174899024214376
0,176294680120745
0,175300033326406
0,173930371576761
0,176462291643832
0,172908612833616
0,174440501294158
0,177299332384297
0,174291470946441
0,175539686940378
0,172294524045193
0,177259866544961
0,175717579747416
0,173099629836511
0,17195405729146
0,17568963519522
0,173292062302177
0,176469072896193
0,175006625862446
0,177017259945102
0,172779583277497
0,175658069560028
0,171249982019161
0,175300073379808
0,172279827862565
0,174793567668201
0,173697097438008
0,174864052908057
0,175759296440692
0,17495291202875
0,173894831919988
0,175595321421717
0,174743537889746
0,172594866257416
0,174009092838506
0,174503650524656
0,173534886680731
0,171840048324544
0,175086916558648
0,175048660154063
0,17366535059405
0,175773862795931
0,174970282502377
0,174090023878489
0,17458409598792
0,173295832758368
0,175219630398766
0,174675991303735
0,175845096745373
0,174004602275719
0,174865477615576
0,172920662985866
0,174208166850218
0,175200427713697
0,172470014837427
0,175052839127961
0,172817791592174
0,174004182137362
0,173561963666808
0,174166932220005
0,173857034429941
0,174187570498123
0,175893846159601
0,172595822120726
0,170448902376432
0,1725791134853
0,172006832963686
0,172655919132586
0,172522180224801
0,171389905203154
0,171648842172901
0,175091676072963
0,172487693269652
0,174900606201248
0,172054510503046
0,17347385217296
0,172414877579878
0,171570917166191
0,172563854151092
0,171983732399242
0,170325289720862
0,171418147731977
0,171286159671978
0,171616596952147
0,174022398303924
0,17064586190842
0,170818116916024
0,171502076149562
0,170591344737501
0,17115876544394
0,170457430288573
0,169793921305967
0,17014507568171
0,170131124294094
0,169915980017157
0,170478884236106
0,169101975727268
0,168817009715705
0,169732285205443
0,171073304963438
0,170882849904207
0,168942514677259
0,170867552436115
0,168158669770175
0,167525911758882
0,170206509664156
0,168748193479589
0,168450823027025
0,169478873926995
0,168818691016708
0,168248344723231
0,167571557361927
0,166532807995397
0,168639947365101
0,16827013502405
0,167047698037927
0,168475273507155
0,16728653724463
0,16832252925923
0,16697718678096
0,168469383931272
0,168994194466364
0,166446447368443
0,167818845878497
0,169153105156544
0,168375533857501
0,165898244151856
0,17087225218372
0,16894341803312
0,167573207445012
0,167974317263269
0,168703763816923
0,170058587019366
0,171742166815069
0,171504707391742
0,173669992887476
0,172475353632052
0,173233655314233
0,173866849527225
0,175503642751881
0,174915392318226
0,175217216392519
0,176675640656898
0,178518813956161
0,177524221282703
0,182014180865896
0,180452498588367
0,181825065206359
0,180110089337681
0,180699605272532
0,182748209508907
0,182292288855263
0,183066642286743
0,181255378255067
0,183698576840484
0,182466490476521
0,182189330093622
0,182359022665871
0,17959956368333
0,180216068293444
0,179361763200768
0,17934767650714
0,179948650905664
0,179316149684506
0,179395477296514
0,181747185004608
0,179217901940792
0,181118809346327
0,179713426829676
0,179566013903634
0,179937007545962
0,179905323541215
0,178817999476043
0,180003490784369
0,178928240434393
0,18125830850882
0,179463591235195
0,181751597274922
0,183361871149133
0,181811403152169
0,182472559862242
0,181953798210564
0,183904595293153
0,183046534963252
0,186142405884783
0,185375463352149
0,188140291802093
0,189237201406575
0,189345475294718
0,191072027089089
0,189245831255421
0,191454467401451
0,190725993556682
0,189378667748572
0,187592160954392
0,190353170610179
0,187462374795195
0,188226017961769
0,189254487231283
0,189688373661502
0,186910495254027
0,189014430561287
0,187194289230134
0,186086096557234
0,187580697075518
0,188141510998791
0,186884478204776
0,187220879724821
0,18884995472633
0,190601466057274
0,190849605651073
0,190811093969547
0,192711035530546
0,193344770867297
0,195914555709484
0,195961411367618
0,195299184352959
0,196898366566577
0,197890502937123
0,196522346465329
0,200083426943561
0,2019979732143
0,199117098812225
0,201802522164187
0,19960638936534
0,203769541788713
0,205102867744354
0,205135626590844
0,207141007773684
0,208856330864579
0,208811811051345
0,208227723142132
0,21079411745379
0,212969834492091
0,215256629711252
0,216788720589197
0,215318387360088
0,215034950971333
0,217043358588582
0,219642029686397
0,217055008714862
0,217193860167183
0,217880980583549
0,216268456237594
0,217091566206106
0,215936793476841
0,214127697805508
0,212512376955629
0,211442360809221
0,208973937062489
0,206013587427333
0,20994793272286
0,209046233546039
0,206757930921367
0,204936500272623
0,207334847650702
0,211469073517213
0,209829866474651
0,206552659678895
0,206964867459884
0,209070240212005
0,209119489119111
0,21066150783202
0,210640717996199
0,212948282347809
0,21225274498414
0,213843130651632
0,213697508938016
0,210621428912358
0,214244470566482
0,213804827000771
0,215891629377442
0,214524818808704
0,218164106204182
0,218073481349246
0,217008329805274
0,218006287131047
0,21788650830049
0,2171305048489
0,2170192071422
0,215542064352315
0,216031071801554
0,218708219971111
0,215538873633988
0,216324307847984
0,216108845000918
0,218669914188158
0,216240506801832
0,214277513284974
0,215959827017944
0,214716760926758
0,213763943599617
0,212436653554189
0,212403327527502
0,214015137300321
0,212755211425475
0,212425338934306
0,211038365368748
0,210753558398008
0,209869612835042
0,206493249342216
0,20543548921286
0,204828464323216
0,206725792732637
0,204467696419198
0,199063079621508
0,200435116706567
0,201013161841654
0,197351684453504
0,202356871467287
0,198911469286537
0,200807770575308
0,199476595840583
0,19731357502045
0,198114417750833
0,19923851710851
0,197210538019884
0,202215139785795
0,203437346103872
0,202405093294524
0,2051357615104
0,205001019411301
0,204715071526728
0,205605516923657
0,205610200220818
0,203078605740629
0,204253147192601
0,208898072344834
0,207001240131333
0,206968132908941
0,205633888987754
0,206400865676515
0,206342515729203
0,206565482667508
0,206631740501276
0,207956762779215
0,206009428655667
0,203780675026338
0,206349068804473
0,210585214485633
0,207356978158711
0,208783396875943
0,209777623719157
0,209565215359336
0,210792609942854
0,207971757580943
0,210724810369656
0,208840300711292
0,208805412075533
0,209309251347873
0,2101010808781
0,211856910752451
0,211129409497533
0,212644819089795
0,210185006622748
0,212225009029103
0,216006095875062
0,215868312115811
0,216993994872343
0,215948711946072
0,215494523097033
0,217967417654111
0,219524725589939
0,220005272635379
0,219618058283127
0,22115835704296
0,223056696542661
0,22479630086824
0,227532823130885
0,225664716366662
0,228951933938515
0,226037357986506
0,22886608990263
0,231285633644322
0,229687347472373
0,230899001043858
0,234849137490445
0,235254062264459
0,234626180200334
0,230912924035192
0,234524588786475
0,236458135515773
0,240510519375005
0,240673191052494
0,244429761900928
0,238251477401566
0,243873687692126
0,249121755785465
0,249752635452838
0,249615830888817
0,247290892294327
0,247673135866352
0,254999170557395
0,255459948404476
0,257518251450104
0,256157918043872
0,258694194943752
0,259643438112745
0,261711017090763
0,264934374208895
0,263625793126563
0,265749936510619
0,26496715470826
0,270071261859637
0,269894956143314
0,267946593908429
0,271261524644653
0,272955508307456
0,278276354720858
0,273799053719208
0,278280074363575
0,284925588473059
0,283830185523531
0,283223290600291
0,288748914301377
0,286398079545028
0,29282616540539
0,293452717905546
0,29325846347791
0,301465321332348
0,301966703931408
0,294230869905596
0,304216388711806
0,309752632427745
0,306082577235362
0,310386182328348
0,314522657246952
0,311483219417769
0,312266422564455
0,319348418116538
0,324024662047621
0,320838308351294
0,328422181862391
0,328443680674341
0,328223368885069
0,331619982760136
0,338163307270118
0,335947340451795
0,336255347233806
0,333713033104153
0,343657343024054
0,344817866852202
0,345618318718921
0,353352017636232
0,352675622255701
0,354308451280522
0,355190471959502
0,354646222753345
0,368752641797758
0,365659966869318
0,37066803722381
0,366149678157087
0,367706192832394
0,372666546815442
0,380146696348381
0,382932884337278
0,382389248047278
0,382322175817402
0,390950639226056
0,390163326263802
0,389391640328696
0,388635159705105
0,40484734918081
0,394119965558056
0,405600842803221
0,40823237581587
0,409497843845351
0,412049364576541
0,415783294234146
0,414212477295397
0,417911680604913
0,422299529432489
0,426846967859598
0,432110771890707
0,426909843401739
0,437453330150192
0,443908774852011
0,436946801793346
0,453682366624034
0,44278620686125
0,440631518521042
0,450015328133344
0,446459747944051
0,454196544304455
0,460006126878307
0,473233386273064
0,473033389243424
0,464952028861095
0,486579095838032
0,471994557245911
0,475433020088321
0,482291760747888
0,484935450074728
0,492208637041905
0,504833884758328
0,501567581940125
0,500476959594649
0,503576915175373
0,504015973799521
0,505923367495904
0,511378710957208
0,520355872760918
0,516589003739658
0,52009188284332
0,522736111481581
0,525243776544777
0,53172217136047
0,525605337463898
0,551807708291071
0,518700183975147
0,532019644266228
0,531649887336691
0,545409216556942
0,542311096965196
0,541884072439049
0,568154120401998
0,563181644114036
0,550075545370494
0,562801083355298
0,576585692776719
0,578095746209401
0,593495439422085
0,564857016945742
0,562055960428457
0,595745041334147
0,597252246904693
0,587414901140828
0,579589158534259
0,595224235141404
0,597260130523603
0,605577383820431
0,619224248304705
0,640264355443822
0,619056862463826
0,626494801736788
0,63789111508739
0,622841054265059
0,613548355895011
0,638414524277885
0,62749997029723
0,63402190188325
0,639431904786636
0,661206016866094
0,642018159323279
0,641990188951156
0,638520505164802
0,643763483024347
0,640882245435244
0,664541954351454
0,673739244727845
0,688462144632469
0,6749061049876
0,694464177305108
0,695230640076187
0,704237798590913
0,709520266887206
0,708420668187952
0,697874811258013
0,697999588695166
0,695205122562696
0,733470147771287
0,72569885364832
0,719510433405055
0,704981656235177
0,739135452873159
0,726387261927653
0,712143224521353
0,708788379782486
0,720598676090954
0,747132405331293
0,772987510804187
0,780280297102839
0,777866283725955
0,76614186467326
0,754231193087225
0,80837370411658
0,805979827475145
0,762378201079397
0,780302659201384
0,756236186136815
0,753853114718128
0,761902311292875
0,785376844546021
0,777344935242694
0,82239264757339
0,815330890671555
0,779388207203319
0,781449338729798
0,822469140535313
0,771279023452892
0,764759153696003
0,802924914107461
0,854710163312458
0,839068730523483
0,864045267114479
0,819654083410546
0,867902630123886
0,872009311176284
0,83340093125774
0,776865321920857
0,84553664302932
0,85713924771376
0,844822013431541
0,910425524260701
0,974590004616725
0,838323490852219
0,851654947726165
0,887630468998566
0,923608698427115
0,919451381965701
0,975593858760665
0,880434001108043
0,948442851920602
0,91536880428781
0,953457071076447
0,968321076598522
0,842822513128002
0,894718167559111
1,0476968698799
0,901458051337884
0,91116211782383
0,89628661547397
0,913968922496606
1,01856904739496
1,02583963612392
0,999951439761608
1,04962620120552
1,09916347817266
0,90390882614707
0,913089459973828
0,981659746458753
0,940874870981427
0,942250425320567
0,950455452165643
0,980605301213491
0,914600354660756
0,95442167984207
0,963887492657826
0,917040099538542
0,967902195037895
1,13123159128986
0,905592628348615
0,992139905988139
1,09842898733852
0,93945441941238
0,996209489023113
1,01184681698889
0,876030978051456
1,08056377005938
1,21587637191944
1,36851796278128
1,14666705747637
1,13115403677609
1,50141198646254
1,07142703403788
1,17321774258172
1,20798913431608
0,917295047900939
1,05740359921132
0,972643303886426
1,02271345148497
1,07059790739275
1,18815995467346
0,840532290393305
0,870084195001884
1,12425674764068
1,01966544483637
1,14634972175953
1,68311683116166
1,01048296747265
1,12929510842792
1,06505841993499
1,02825042809755
1,07633178013672
1,318707274348
1,17508594597637
5
5
0,797609219402168
1,4346684832323
1,38500651820715
0,645508531112504
1,08895193786307
2,29738785779864
0,973068170866352
0,939990001942041
1,11391382558249
1,29481736179521
5
5
5
5
0,768190475128784
0,782893760007259
1,45965585142385
0,995063316758839
