3596
4000,36533379555
650,420452594757
1
2
2
0,0229175819547886
0,0333781143482126
0,0209660834273674
0,0311794250513206
0,0196954280298055
0,0295736371328026
0,0196548966490195
0,0191172388370646
0,0135321188231124
0,0325214719931903
0,0161695961727768
0,0227320406442324
0,0162713871680979
0,0146273252044167
0,020042591831111
0,0285098797343752
0,0151436175768786
0,0316601658852487
0,0174294977330911
0,0265485357572723
0,0154512497531896
0,0262662783759452
0,0232039408388829
0,0364697219500742
0,017392709451681
0,0275021433747749
0,0151240934748874
0,0357241432019769
0,0178558264943213
0,016640384293951
0,0142456573669445
0,0306219839798227
0,0248568497256345
0,0287897221610927
0,0225401038534666
0,0328787380636719
0,0152634794033828
0,0265721524343261
0,0129551416252771
0,0235036238766642
0,0212798746534808
0,0263431677747499
0,0195514391342662
0,0246266164603345
0,024484533509886
0,0214126070047754
0,0178199630498271
0,0351898732403555
0,0207223726237048
0,0288149510491275
0,0176389635732127
0,0276231331516854
0,0313668053524353
0,0254831179265128
0,0198236677340875
0,0271386792811522
0,0121007947907144
0,0276484785304346
0,0228440614204806
0,0362063078531657
0,0196192161090711
0,0185687135227118
0,0241749613001415
0,0268753362191918
0,02354139952599
0,0263231750604311
0,0171936048399783
0,033933841677612
0,0190356585565126
0,0355802794167417
0,0196475981072635
0,0424758702840226
0,00979151536169479
0,0287716603749745
0,0223235003339587
0,0265330700740005
0,0186793125188336
0,0260096143906158
0,0188063235790534
0,0443999467095334
0,0151357129787056
0,0315703769583658
0,0188073648007933
0,0288273767652333
0,0232355629752091
0,0326410423553668
0,0101669520262313
0,0506261928189406
0,0146436433888184
0,0335018506067357
0,0152417779712326
0,0292695070361939
0,0105782891917701
0,0226784998631738
0,0156670094577615
0,0318308476505507
0,0177642730159349
0,0388439872235658
0,0122775498529165
0,0478836586785403
0,00832422729537261
0,05066058138005
0,0103662766407965
0,0254438664512848
0,0479216710212474
0,0102206371970399
0,0400933898387256
0,0230639317064007
0,0179551316405095
0,0294166484017822
0,0153147645687566
0,0277964872897473
0,017322394506241
0,0418618128119515
0,011218067367474
0,0589407439826437
0,0159329326823655
0,023569115854823
0,0124062371213553
0,0427367529463005
0,0152152423984658
0,0634839646629579
0,0156620014210321
0,0388484380002269
0,0161503471297086
0,0289334810240935
0,0185623520769624
0,050858877540541
0,00580466703161628
0,0304504951923679
0,00766797773905648
0,0351590367371804
0,00847226954917343
0,0443422188512717
0,0282758613616303
0,0209786061043768
0,0252254780614522
0,0342980902498001
0,0386203601680743
0,0326379986807908
0,0133977390883417
0,0303020343972238
0,0107579631628948
0,0447398726742265
0,0193112519742296
0,0372034573391904
0,0245048509264181
0,0276230240391241
0,00756171853425532
0,0286678628695151
0,0252979994371951
0,0339360466042445
0,0255365991860244
0,0346760514775658
0,0177260855894322
0,105241737191025
-0,00671937664905867
0,05788892855391
0,0162872228430845
0,016898250989881
0,0341732023862566
0,0189518102715916
0,0216706866734942
0,0219483163192218
0,0280204501728006
0,0286894502802211
0,0339819757376686
0,0282866992123754
0,0260374655680601
0,0364586225094364
0,0159339124094928
0,0293195087720396
0,0327809830301355
0,0453074061987911
-0,00109622903884302
0,0484133720223044
0,0233487168219437
0,0329749922181153
0,0178016875147818
0,0370853720829799
0,0098629760447031
0,0257661591548005
0,0256230897177194
0,0389879699656331
0,0349397692659305
0,0315583035492286
0,0204202698053494
0,0302188018171653
0,0175813847864343
0,0389108402164652
0,0245415397744595
0,0355079563516604
0,0161532125568716
0,0287314076203839
0,0291598997806958
0,0225218702250489
0,0516412641846646
0,0262999747556281
0,0248324179676501
0,0377942715079611
0,0276083268135273
0,0266873296021458
0,0202228975201536
0,0347370094110387
0,019084412051548
0,0398879994064107
0,0452460854393597
0,0154871321791027
0,0367310893070179
0,0284502798891472
0,027384220585073
0,0289969876617312
0,0550959332078494
0,0236061748792598
0,0251415691037359
0,0356586209171556
0,0283963835285894
0,0304579071258527
0,0200269293536034
0,0365227189479505
0,0227232392602645
0,0319992853624339
0,0243289608396625
0,0234449783207813
0,0240877768429537
0,0414481810671196
0,0286651534550069
0,0316759015636372
0,0337152181024891
0,03555256564283
0,0367874453819756
0,0348490709540275
0,0306283876209914
0,0371916512469824
0,0253091002719409
0,0467343774824203
0,0278291483793241
0,0372262819754341
0,0300382299351346
0,0295310288886838
0,0329103018668956
0,0319964278935152
0,0332699677388619
0,0356567969145345
0,0299506467295244
0,0394292692605692
0,0431986360990101
0,0205313598527147
0,0432470544288131
0,0277162955772258
0,0550230385206668
0,0340067713074722
0,0367238322300247
0,0354142192116165
0,0295172500192533
0,0295853032918793
0,0413140709732707
0,0470687560196127
0,0279559275051672
0,0346449652089643
0,048094099208623
0,0322640293188297
0,0434509175186074
0,05029692154892
0,0416092014831088
0,0648817065554892
0,0244761534119108
0,0518483475991775
0,0360602399085187
0,0303432368277047
0,0431082213830992
0,0434823798354328
0,0414206391384847
0,0979275679948911
0,0311374678219663
0,0349863323196269
0,0299333508068391
0,0539925030901697
0,0275215409411127
0,0590220994863212
0,035728172074361
0,0662215701455178
0,0409902533048393
0,0369154946374348
0,0597200860584673
0,0281254602242079
0,0712642073600206
0,0340614563150901
0,0495601427086221
0,0391471455147638
0,0509598939969808
0,0466245493829303
0,060980572234962
0,0433108040349611
0,0547443719389429
0,054813187343414
0,050402730164134
0,0653301790707175
0,0429400570350998
0,0568427530305925
0,0598460395103896
0,0632992240580322
0,047690219162983
0,0622546406240887
0,0445447419984751
0,0744229662350187
0,0559539042344996
0,0696915929733627
0,0596205519904868
0,0593299147548286
0,0680532427718345
0,0765046662380139
0,0556095549154976
0,06953045909561
0,0540951155279149
0,0666428606773013
0,0599201451877259
0,0812449741625524
0,0661563048505415
0,0900217736352345
0,0710509927118765
0,0839025580567296
0,0715739377906044
0,0884484537456228
0,0733255411506535
0,0859990831413472
0,0820487574072646
0,0933137973029154
0,0888888764296388
0,10221637832055
0,103765883922091
0,114469357854357
0,0827369938047298
0,131509911884715
0,0864772874197979
0,105789841561183
0,10385742828137
0,115035982107793
0,113091575187914
0,116743631369158
0,109316733733289
0,129097769217497
0,119559166653962
0,136960823662728
0,130200495303674
0,152368077050647
0,152053202549233
0,174567241050137
0,151490934046946
0,142317523628098
0,150667919461718
0,161214933015877
0,194024539181899
0,16785131462273
0,167191014388101
0,184106294627238
0,159894976000955
0,182358154408999
0,178068779923188
0,206575179318386
0,181548041722333
0,212638659372906
0,195060366459798
0,220756764090674
0,20652643279301
0,230082486299978
0,218000262797297
0,252425635302139
0,242128611216902
0,231921993658302
0,236809098404079
0,252129259938594
0,240725979593476
0,286952554590244
0,24350649502678
0,29818825982499
0,262938388136105
0,29467958237728
0,280319983210336
0,267291658424453
0,273541836495761
0,29273850178699
0,295990430172753
0,299532391034275
0,30251432647223
0,305382512423573
0,309008153631916
0,321160201930143
0,319130819435316
0,320200628974249
0,327766415604481
0,324553221582538
0,332537525305538
0,329479498400889
0,330376153836161
0,353781235575427
0,399343371122534
0,375819557710162
0,333235282890018
0,358767847309946
0,348554370243567
0,365872708889021
0,357953872553059
0,387575488759446
0,369334356099443
0,388800171870113
0,3812283240717
0,415030234063733
0,388913707173344
0,41958155300887
0,395361023251705
0,401389736553694
0,410669176236547
0,414549574126665
0,424750880202715
0,407784339409208
0,400219912554427
0,43775064683228
0,453999542141056
0,439830819730628
0,424505782337169
0,456174527712986
0,414480708618716
0,445428148773359
0,444644194643276
0,472660490561734
0,431522646880007
0,479020509771275
0,464572267039175
0,474008765640724
0,469159468322208
0,494642263524746
0,476172683127989
0,493813579622487
0,459109948948701
0,494232646413421
0,487241357997528
0,488114773928431
0,490458210729109
0,510219179194076
0,501216584816459
0,542528505756314
0,497957351663354
0,526207837826043
0,482789501645653
0,545701790511114
0,522812802726213
0,559298235638996
0,521613093532637
0,547183389163632
0,537303679037257
0,560088211700586
0,530810724845365
0,568778551646825
0,55807099975158
0,557248395771435
0,556263641410769
0,599734054658291
0,564223879686126
0,598255837898828
0,562110750765364
0,59493235386352
0,581327426052244
0,617434673510043
0,579478863140108
0,639570740043276
0,588341381400863
0,626806659020962
0,586349505989241
0,632970007860695
0,594575638873974
0,643874614581155
0,577318145107076
0,651513461323334
0,598366678533445
0,653068495090699
0,631320996598421
0,679023802014073
0,620310715952909
0,702293581399343
0,630052168557385
0,648152320840237
0,643329673259459
0,675848011622507
0,690834012757893
0,704915535378976
0,713076491880992
0,709186821546002
0,658832788197685
0,667996432164654
0,677022852644623
0,741344188435322
0,710243715627019
0,777268835181237
0,663675060822474
0,736547121506543
0,769294429205961
0,756649178657395
0,734426597516001
0,773945799461421
0,715913433067362
0,802804498419534
0,765708007716938
0,788869915559141
0,770958210213883
0,781637096398377
0,774282267408462
0,826619254451996
0,737436140140613
0,792348643162522
0,766288545870609
0,802248246638973
0,780170022695439
0,85107682015106
0,75421900548114
0,855825070112178
0,761266891488756
0,821714601327237
0,791931199427904
0,860826241368984
0,774577751116054
0,891702285933598
0,853812455886614
0,880614939906402
0,809659427595242
0,872063210476774
0,843391775334251
0,87851930450468
0,838844887229455
0,856546088344563
0,842723455563009
0,886829416672479
0,847521583667748
0,886721773239709
0,863587642424658
0,922795153276895
0,857434472227597
0,91050307118201
0,880378203422321
0,927897726330772
0,854743511482928
0,977669529339525
0,90644715239755
0,972359391707457
0,893779395312155
1,01381705343231
0,907172042493558
0,88333027130795
0,92166364631886
1,00502218725059
0,958478228778955
1,08163975258694
0,918170720113566
1,00347811769231
0,989056650662823
0,971591927256754
0,959205612113174
1,02779190495286
1,03436249555194
1,02821486534917
0,96955626314671
1,06401619587202
0,956755044844734
1,09248278528637
1,03189789074894
1,11380843285596
0,954976437756503
0,988823713680662
1,03844127941671
1,06657458728139
1,00824292262566
1,0659989970262
1,08932488508795
1,22896876471523
1,1017428786386
1,15072091425721
1,14415760880804
1,07154523370346
1,05203596872799
1,16983850716375
1,08807863254197
1,03976327310125
1,05601330587831
1,12772604943106
1,00855245922157
1,15874411045303
1,11122959889925
1,16263268514057
1,1191204613999
1,15314788195513
1,06809169243816
1,20981403986392
1,08564298713682
1,21801038693716
1,25752505723339
1,24613099888136
1,07724892777992
1,17543274137169
1,18165109687399
1,13743922635674
1,11692875770154
1,33420021032883
1,12555623254977
1,274088187709
1,12067140501648
1,24833736656524
1,19173088009197
1,32244967892196
1,26913677826734
1,360544600832
1,21256007364604
1,26762748746645
1,24368397470145
1,34764074183133
1,18716837369605
1,22488621116268
1,19168874479369
1,34432649936775
1,28115057545199
1,3011555158343
1,27611604548461
1,60688919544654
1,38120334499262
1,45522927920296
1,28362494176727
1,3216927713125
1,18060601804078
1,47175361187689
1,29613937810272
1,29909579383877
1,2921313137526
1,39887292795639
1,33966053901723
1,45373246650178
1,36768461059022
1,36482366714784
1,25811409159686
1,42566242508673
1,42689423478067
1,47327835137505
1,31013045655721
1,3296949532618
1,34004616191648
1,35547792047087
1,26981299716605
1,59075557743477
1,38802984405146
1,31693108984825
1,43444745026759
1,28172943853684
1,22517797914024
1,608653755065
1,28548524500925
1,44682259708235
1,56705050002056
1,49490455813916
1,32780684781096
1,43731455074303
1,35860035344112
1,51882696679829
1,48293999363744
1,56604859679373
1,45445793095374
1,41939790418687
1,36436494696009
1,7174867756376
1,39019379275786
1,60050431906769
1,54267074240321
1,47555081394943
1,47764893364198
1,48844004526679
1,41483398634636
1,45110608283106
1,33711838749905
1,44259773861178
1,49724687248385
1,4587207747675
1,48553903803434
1,80055869328383
1,4575704825088
1,5045651641487
1,45153741420215
1,51614336267943
1,52623454330908
1,63361290175699
1,52374919424526
1,40873917437015
1,44686243648911
1,55020731948577
1,6091431107928
1,40302237339547
1,33756202263802
1,73982604127114
1,50118725132001
1,47640570654254
1,39843877808085
1,41204855997827
1,51633583967367
1,89225636490383
1,66282472045749
1,61743342906862
1,62674231731903
1,62725585972925
1,5079774249973
1,49244873689677
1,4799689764339
1,47686452725112
1,30329487925546
1,370523665948
1,48078869747094
1,54601722665831
1,49375223728462
1,54023777582662
1,4980992678273
1,49757298714405
1,54936746404535
1,63195674892871
1,40793803840802
1,57152405756213
1,62347594331991
1,61969929379797
1,5184729945769
1,58224328861541
1,43023731362844
1,52958837640426
1,42310464768069
1,43908122114372
1,51673822058295
1,59250654889175
1,52762397729508
1,57587991486023
1,50005713697884
1,44716321039322
1,57019715833821
1,49731138790652
1,34462778127683
1,57288554441422
1,57176839732033
1,42664968981606
1,42823197393617
1,51913071521364
1,34700769146895
1,5868855973595
1,54536248981742
1,48262203666406
1,55199307783712
1,55860784417623
1,45279398826341
1,48740677455606
1,536161125442
1,52924991406696
1,45988322755185
1,59508024681694
1,35408091557927
1,47215973555614
1,56687651802854
1,48552331982095
1,42184089683553
1,53534771344326
1,56655416460915
1,49959125446699
1,4635310192031
1,55637009548853
1,55816584568751
1,55731517002052
1,51482916928161
1,50067994552736
1,43561476856091
1,45710449024635
1,38152691172326
1,49974092600589
1,4368187491116
1,37491234162234
1,43967268069126
1,46643514684091
1,475886199647
1,53699057575359
1,44917033929519
1,42615586053049
1,41799866908187
1,47252613866836
1,48896046325792
1,39129807546033
1,51791819776607
1,56642657679612
1,39873724618392
1,4588689811858
1,41484596143833
1,40942599675881
1,45292041082063
1,6046377808011
1,43134266053693
1,39764990413448
1,45635850871624
1,37665221072806
1,44989903191314
1,54726930899815
1,43287334751865
1,51286497611762
1,58779885722426
1,47906524335201
1,38068248200414
1,44628882917027
1,41865358192673
1,42294653595088
1,41324225758367
1,39077279312666
1,43293373812038
1,44341749921884
1,55462825185426
1,62570752769029
1,44806953674677
1,5088578942587
1,46058490601375
1,3790483604909
1,45417370797036
1,53864911557669
1,40075543358815
1,45950306492014
1,44839882545861
1,43113000879009
1,45605060333667
1,42549169891992
1,67137137201814
1,63816186838717
1,48416661354419
1,49766354572165
1,35256146568663
1,42809130446429
1,41106412830573
1,33525768775142
1,36891939120561
1,45348434336224
1,43503619317713
1,46072049885172
1,55863298536321
1,42489190690425
1,38576860894645
1,37418149903347
1,32025029309617
1,46280797793371
1,37160831179108
1,37825314526011
1,46375268694483
1,34657721670741
1,40692123163691
1,39548851243318
1,34535577130013
1,42609486075459
1,38666937943226
1,38215979049192
1,42929659552397
1,34165314040569
1,3243772838044
1,35270624870359
1,34579598466352
1,3932709947499
1,39475742306655
1,29945798044812
1,27922431059008
1,30014402856038
1,29213667252882
1,31772610444182
1,28117628592637
1,31225182619967
1,30805369554707
1,32941096361789
1,34097513859038
1,23400666115533
1,27520715148221
1,30129531826862
1,28801960429031
1,33579881108579
1,24618463121305
1,20954573390067
1,2496128139031
1,20961195746997
1,21606063539926
1,2408513438919
1,26305657044288
1,23546357513962
1,21887749314453
1,18471175445765
1,19480710373997
1,26223293694548
1,17899775490337
1,20294202440216
1,22392116516175
1,16543619617442
1,19521379182918
1,1939554036227
1,1797223474154
1,16300301156425
1,15777272787492
1,15434983953478
1,14095871081975
1,14679942089671
1,12583839159759
1,12915863512025
1,10552817352804
1,10495337156865
1,11007212352092
1,08251281943307
1,04497186156476
1,04022485024888
1,09376598516017
1,09693091383655
1,07710708033777
1,07283622487863
1,03917656693298
1,03554863138542
1,05182150999348
1,03056398847482
1,01995347997074
1,02973449591879
0,997692949750132
0,998132837482711
1,00416792369995
1,00194856310903
1,01202228977314
0,993039486184548
0,971941454608513
0,974767421810041
0,970237218129072
0,964452783127686
0,982955922223486
0,968672352614696
0,956539346431822
0,945630473190342
0,93299531168717
0,922486823737497
0,929414382977329
0,91348398299684
0,937278457928928
0,923722222267597
0,897511907258444
0,876475053069422
0,867040493382817
0,873991290875601
0,872991111524789
0,861311408996555
0,863661509475939
0,848539041604601
0,839437869843691
0,840007352005643
0,841765485165705
0,836099015371223
0,832924659644123
0,833549336580595
0,823487045760205
0,824951473411578
0,817328246094151
0,814853312406468
0,807437888963151
0,790508618070391
0,775624968298258
0,79172226449198
0,794299808230431
0,772688883802932
0,765014379844644
0,756287298075955
0,766907057997451
0,746637428270308
0,736397778759315
0,741863538546374
0,732761485031317
0,726734080645599
0,730642509431818
0,737946260359383
0,733318996358359
0,705259882628518
0,714718784633542
0,700592038505683
0,687274888924212
0,694357931339606
0,692806527058495
0,676775771428198
0,681948365200792
0,677034748849383
0,675374502891868
0,665388062130315
0,664451895186465
0,65724586460761
0,641794651285521
0,648266728274822
0,645551951628797
0,641220806271253
0,637257762226958
0,629323467281648
0,629368335072234
0,616765670844432
0,605774966518856
0,605842333478359
0,610091738811225
0,59851758871281
0,594334338471087
0,588202257476277
0,587141729890072
0,587826218735364
0,580700194222165
0,573831513717046
0,568555943561695
0,572646468384019
0,570105765008492
0,558283411983518
0,554591968763551
0,552218789371496
0,552725376579176
0,536574229178431
0,537186206924286
0,542118321463942
0,534960506640808
0,52446786432886
0,526049330593468
0,527234734669235
0,515410327971162
0,517899253914547
0,507816855608059
0,508111002411624
0,509541932069854
0,496432283014807
0,49790330423373
0,494610171598449
0,487013475990625
0,487097292147048
0,485437184275873
0,480907372261612
0,4713722497075
0,462208523729006
0,475100007887411
0,460030937371624
0,464631139681428
0,462263948278628
0,458527925854247
0,451785980961
0,444111946415847
0,442908891758691
0,444313748767809
0,445637200479925
0,442838597746769
0,437837469984483
0,42709325672939
0,426613528234831
0,427583627650509
0,419143404444313
0,417697452250512
0,420851525039607
0,412467739611436
0,401241339040587
0,407368174407734
0,407799682611727
0,402734180965909
0,396544949160344
0,39750738886467
0,388122231609801
0,385563183840491
0,389160547539988
0,388073052902402
0,371893190205534
0,378369251590794
0,379645158474025
0,368750663068072
0,374910807332895
0,361120959975895
0,358403580699073
0,36046237595168
0,357264802544551
0,359881039610809
0,36180182076341
0,352697023767853
0,351440595831808
0,340867994869666
0,344783189618647
0,338311782683327
0,338229577516347
0,334796469860786
0,335865774681598
0,336443819917698
0,330736903495016
0,332989313362734
0,32859949310164
0,324776448169654
0,32718672909239
0,315329008017949
0,317602139641995
0,311625521638029
0,308252165541089
0,306075726545136
0,312679533774079
0,309764612534297
0,289491864515512
0,297934708960243
0,29826355350737
0,293317890554237
0,298790340572277
0,295121666939744
0,291346642870268
0,287348703231117
0,284952101625974
0,285828256521831
0,283923316287993
0,277900886308164
0,274302520797858
0,274047770197606
0,272605715087822
0,27251632557741
0,268143932748872
0,269567480687074
0,261406932873175
0,268196849955637
0,26517024516506
0,257081680540637
0,261681427913637
0,257947015252525
0,255382864241548
0,258324449437153
0,258762249859471
0,250146048205054
0,248158257002961
0,249016185354917
0,242726696488543
0,247259071316501
0,244168931304846
0,241534709465036
0,236427142607527
0,236724609950052
0,2342810005553
0,235353853215732
0,237819144905731
0,232699872285881
0,231593731490611
0,228453768704649
0,226507217828863
0,221807448228444
0,224501442103128
0,224442563751715
0,220344064554334
0,224555317053382
0,215428906653922
0,215541173353832
0,219355313849374
0,217420868411311
0,21645707778884
0,213275790197013
0,210069458053411
0,207988386467982
0,207608942921219
0,210107892311226
0,200649103537077
0,196663657240549
0,1984709857845
0,199370477300616
0,198389955704871
0,193858049226834
0,193707029889488
0,192516529995757
0,191907296898677
0,193840314667509
0,19443878896727
0,189956004467373
0,182856892296956
0,188611102132387
0,187023746584712
0,184096697533352
0,178166741925595
0,183373905622563
0,179484993339897
0,181766349313919
0,18020113198501
0,177493448764697
0,177520721562463
0,176803476036622
0,176250413727172
0,176199452988884
0,169648893446857
0,172237881802844
0,169983769927562
0,16958302771197
0,168487050465497
0,168039725878924
0,165862205321381
0,169560877088894
0,166781338701973
0,167537144723762
0,163595745675172
0,164431078472571
0,16734092179382
0,161070263113961
0,162602591166531
0,156781021032876
0,156752012251715
0,155240104244126
0,156895298006843
0,153817779534308
0,151691359091501
0,151550556665751
0,152982982418056
0,15309943146603
0,149482694452154
0,149460095729074
0,150462337095054
0,150401281475254
0,147029420906826
0,145150218516624
0,143416742808138
0,14860178668016
0,145788611771857
0,144861862809362
0,143815231934543
0,141023306393415
0,144518840972359
0,142426349128377
0,135484378409126
0,135862810707962
0,137425658960355
0,134357650347518
0,134516295797558
0,134820591529485
0,131523744619077
0,135939376443184
0,134241332492846
0,131317508914691
0,129601310840272
0,124336716332977
0,129595754774278
0,126098050846381
0,122433167716874
0,124312256645186
0,123704368130858
0,127134335779306
0,123586962760139
0,121633070637969
0,121022219949787
0,121015277794954
0,119063546911275
0,119598115538059
0,11826861025843
0,117534436791751
0,114766024465323
0,117847359707186
0,120787488164968
0,12003049354129
0,120014858948487
0,116607938382463
0,116162899911027
0,117024208237895
0,11508037719384
0,111938324258035
0,110392634824996
0,112458313194097
0,11148030161586
0,110689877697689
0,115495391655369
0,107524570295854
0,109611558687971
0,110629489197267
0,106588306067338
0,107463941837286
0,10694912166189
0,105039934274671
0,10869579455346
0,106910933759292
0,105293730139295
0,105526730950206
0,102132552313718
0,104082379305936
0,104021745909445
0,103196778780116
0,10456029585365
0,100894842140973
0,103297913447623
0,102055408070193
0,099795851015634
0,101766640531542
0,0959620090874295
0,0986169171274883
0,0966092195225138
0,100000548708899
0,100050999467467
0,0995241585680226
0,0985696049828543
0,101286271837875
0,0933384261481724
0,0980650252523401
0,0935903919093927
0,0964047609990121
0,0935433070509626
0,096490388305356
0,0973188718651844
0,0933599181534215
0,0910148402384558
0,0917543799617367
0,09046249453456
0,0926975424505142
0,0946166842091019
0,0946041001887402
0,0875185457314148
0,0927324052463509
0,0884589673971839
0,0899389830218313
0,0906461172290811
0,08487787278644
0,0899806908923819
0,0854918215393995
0,087655448986988
0,0878206198069022
0,085374050032445
0,0850309237742824
0,0872725012818247
0,0860992980638478
0,0859663893323512
0,0880291010788671
0,0849002210802502
0,0847477786859284
0,0849861542902488
0,0817738326012249
0,0838171252481741
0,0813759093964658
0,0788720939493092
0,0879656804355238
0,0834810436712909
0,0837825126164443
0,079054145817755
0,0839565072745292
0,0809195223310905
0,0837100260553339
0,0793699887040221
0,0814598302323102
0,0796265832536146
0,0826192105065749
0,0748271437055694
0,0835325419470057
0,0738093915005174
0,0792360545749574
0,0768691784331747
0,0815236779092857
0,0761469416653154
0,0792546625527101
0,0781161590882935
0,0735824187266943
0,0728679894680363
0,076831090198107
0,0754123557163033
0,0739740556753742
0,0735078411601184
0,0780293491050996
0,0752872499869867
0,0783944785145498
0,0723062037804702
0,0789130784110425
0,075823548480757
0,0767004621464973
0,070206163169573
0,0796154887640111
0,0783111889317924
0,0739960938120211
0,0727550018701304
0,0766020234293049
0,0736739736234048
0,0734370460757085
0,072989698703163
0,0699898378850553
0,0677056278303928
0,0728518779815768
0,0708582533814171
0,0732000745740103
0,0701868675994218
0,0693339931663775
0,0694026200119836
0,0724924374023569
0,0722067069348095
0,0685654251759029
0,0698396896018405
0,0736590778723966
0,0702166088420521
0,0682116941928432
0,0677349448240229
0,0706115141228633
0,0672875996086569
0,0690705440955731
0,0736889964231944
0,0687363423344189
0,0705555655666421
0,0694082065908496
0,0672798251821788
0,0699114797980875
0,0703883499352532
0,0640662625926784
0,0683266984143128
0,0717009588176522
0,0667210830581031
0,0670863256219631
0,068925376270551
0,0721728496503523
0,0676763756688902
0,0659537589624653
0,0669978894771587
0,0712150404511071
0,0657826497006211
0,0643918355612659
0,0666472046140681
0,0645040903391965
0,0672541228189392
0,0693726209689224
0,0649170097153268
0,0699032553172646
0,064606421816868
0,0638865396569178
0,0641409986088345
0,0640418486756332
0,0647652163428152
0,0665814854015861
0,064356038135088
0,0643191176269418
0,0658769492539867
0,0654886551400311
0,061820273660838
0,0645590900521327
0,0609410407202032
0,0650138693999436
0,0593062201043513
0,0616802284669067
0,0640059119500004
0,0656293599562161
0,0626457502839739
0,0652894137261772
0,0622168781618675
0,0629525285114839
0,0627078248588582
0,0627678777209757
0,0614430956849356
0,0621694389432169
0,0620317036937977
0,0629173612592835
0,0640667463124217
0,0635613412139411
0,0631310227083465
0,0599925650321584
0,0618742112440499
0,0637641379440338
0,0634908067897832
0,0648295005760356
0,0616119079690706
0,0629344722490193
0,0609190862787767
0,0609163329615648
0,0633996595024026
0,0610603252526149
0,0654273691927218
0,0650179663733798
0,0595965449383212
0,0570362453937794
0,0624189672370106
0,0614340238058773
0,0584155654629635
0,0638212140411656
0,0600914026531914
0,0602833468819288
0,0573015446138586
0,0635718328222675
0,0643626075105101
0,0595206483551076
0,0595619245046193
0,0603148424025629
0,0584769843461297
0,0578094560377018
0,0567742635517678
0,0636485173389015
0,0597744664790364
0,0617597609118629
0,0598722442710065
0,0600651366192056
0,0572380580894443
0,0622231698071339
0,0589826194175662
0,0593976179803663
0,0568541273784946
0,0607576421542043
0,0565374628851587
0,0586430483406235
0,0572857347704716
0,058625321057271
0,061185480001568
0,06125268990144
0,0582598581803067
0,0579284100417951
0,0580123157774836
0,0582456010461984
0,0583739891570281
0,0611269407401595
0,0594988459667485
0,0590181501437695
0,0563684277871703
0,0616071538089785
0,0600005481828041
0,0603318960144909
0,0587475778450052
0,057755170932493
0,059494598450913
0,0624389994677703
0,0594861322120741
0,0609748243690788
0,0558783561225058
0,0614760894191163
0,0581066140319839
0,0553692871310964
0,0591795151276953
0,0568823438817258
0,0579009574769349
0,0619547012811846
0,0553246909052565
0,0603882968376193
0,0607372708983009
0,0589519400275419
0,0573719809011863
0,0604598331061711
0,059267124236394
0,0590021188859774
0,0586531355129935
0,0606368917449781
0,0597723550313514
0,0598382851622804
0,0576559216138853
0,0601107842900873
0,0602624989726062
0,0592041703405096
0,0601567315972692
0,0564600017030882
0,0583928627365931
0,0626522414205171
0,0613238650583571
0,0593090290889197
0,0567839268753677
0,0622855953076708
0,0549017926515977
0,0580292728945198
0,0589176495601877
0,0602817159333663
0,0608949064382203
0,0600029408677061
0,059993201428211
0,0584827938100486
0,0605887328275398
0,0624016193247685
0,0608404716860689
0,057957835044224
0,0605881069684925
0,0608849229331184
0,0584251680158815
0,0622468216567498
0,062756667633522
0,0608132701006716
0,0577861459485057
0,0628361771084913
0,0592787786280293
0,0597316163444296
0,0608929247415552
0,0630608019614872
0,0595628579449413
0,058708111554709
0,0575483196064783
0,0619038698613499
0,0612581497997122
0,0645810394740445
0,0613281458915603
0,0620256252359837
0,0595848670433394
0,0608044519351287
0,0624437160560302
0,0601294839707214
0,062563571007647
0,0655614124771802
0,0592286619216699
0,0629970121921648
0,0578942489009067
0,0610370671731309
0,0617268127428129
0,0636014097483823
0,0590607358401331
0,0601138948564296
0,0629125957176631
0,0642254215231103
0,0623323009052391
0,0632174157865311
0,0598784946347343
0,0624704058679546
0,0603967947475193
0,0635799077523718
0,0613735108710334
0,0615634770739775
0,0593487855767402
0,0659895891544329
0,0629426236844729
0,0622083031810228
0,0615020488830628
0,0637726830887158
0,0611457358909027
0,0639897064697092
0,0627332900169906
0,0627108264032947
0,0649291040347427
0,0654479794333528
0,063853949185526
0,0649590072460718
0,0638597903585744
0,0658811087329285
0,0621221110222525
0,0640073398458717
0,0634034504171637
0,0653011408127096
0,0585316528785312
0,0649746590342157
0,0648768088377601
0,0662780418883905
0,0611819315991779
0,0644358695610011
0,0648284162523381
0,0643028108880317
0,0667675964619348
0,0656530397457277
0,0640242656539831
0,0640189501899971
0,0614309902009479
0,0665031902911442
0,0647383783510437
0,0677936729435767
0,065522435408876
0,0647299916336175
0,063865214387145
0,0668803076566505
0,0643876666204427
0,0659342418580871
0,0637463599613865
0,0665163428422044
0,0658613978222187
0,0682222145722982
0,0649991500165155
0,0638085067289996
0,0663825745137562
0,0674974589911395
0,0617538608184018
0,0664550194581432
0,0663998834045989
0,0662197074604906
0,0651329571900135
0,0662225832715204
0,0678844728096662
0,0674476625156671
0,066506216206466
0,0662131302398078
0,0653187969216198
0,0671191256956164
0,0662225991812275
0,068161901800687
0,0651772367006643
0,0681313323250184
0,0668048933545101
0,0680190496673637
0,0646985006571228
0,0700342057424895
0,0675864747000733
0,0674230000584957
0,0646288991357464
0,0688997076272268
0,0715809162943441
0,0675031888161722
0,0668358335132282
0,0694385752638962
0,0701505621134905
0,0697499413536848
0,0673648565671688
0,0693777686701122
0,0677547213455722
0,0682134712626895
0,0720262836746053
0,0714983799935063
0,0692208717679031
0,0720660443174577
0,0697672891312561
0,0676247536211349
0,0714913043385076
0,0712761062837277
0,0681969997431749
0,0710012540895003
0,0729725374670838
0,0738918669051288
0,070141249653165
0,0721725010929646
0,071898068502911
0,0726478892048169
0,0702568936438762
0,0703567622491171
0,0716740496126708
0,0717150421217128
0,0708918260810305
0,07147440411861
0,0696067425876086
0,0711287920878884
0,0721474378868741
0,0742529266133694
0,0718886222219857
0,0748458752026387
0,0710030137030547
0,0721594444786582
0,0739841028061941
0,0735178505236058
0,0744714526296177
0,0738897004804106
0,0751493832929863
0,0732156466532099
0,0734670691075793
0,0746331674745914
0,0733887979229999
0,0724848900421401
0,0739488450346135
0,0726382622593819
0,0768663852592273
0,0735946441398722
0,0727265369948192
0,0727278931634328
0,0738127839876651
0,0724183912654615
0,0778997084145721
0,0764843989918364
0,0770661674660197
0,0754178967749673
0,0756339358504691
0,0775585896436077
0,0784676147403437
0,0762208990087546
0,0789457351247463
0,0750426690026885
0,0765848757793654
0,0779622073418648
0,0778326488868901
0,0771385081919695
0,0817935319122879
0,0772254564779998
0,0805291293999342
0,0806722853282863
0,0804483872214686
0,0828824654569837
0,0834494477608169
0,0869072327230837
0,0854902600319021
0,085111266366047
0,0923896982888207
0,0833159650623919
0,0826343773688369
0,0787907155328925
0,0784378391008509
0,0844309627481574
0,0933826748677486
0,0850482349969541
0,0850071512294982
0,0833131822839381
0,0891632136955515
0,0856564410224391
0,0932919001512886
0,0860011469074951
0,0908538889667988
0,0872245813223912
0,0839016086175707
0,0861104566302284
0,0881311873590513
0,0809068297359343
0,0896609370584101
0,0821291147429267
0,08768624362263
0,0819569538787521
0,0876452277675415
0,0765299592046835
0,0969840378192875
0,0807579325780061
0,0919698760302777
0,0786951723058135
0,0945545263933539
0,0763127218726949
0,0989173968842555
0,0756549030236294
0,107881366968801
0,0762326474641144
0,105685033149494
0,0777904970333409
0,104595611686741
0,0747494763830085
0,105240531615319
0,0689763479455561
0,104528172381978
0,0718459041614621
0,114194591915672
0,0739074711029875
0,114111407052439
0,0655658836227692
0,110430103581129
0,0735390314557058
0,116194880347227
0,0717632982030736
0,104245570005259
0,0788010815433863
0,109066357437376
0,0842636614998111
0,091578231924343
0,0978649920177523
0,08794995535642
0,101120276438972
0,078380776913937
0,110722796304617
0,0718571352014336
0,113667876554269
0,0714777331264414
0,110498875362
0,0743544820680135
0,10806128159774
0,0832938670520192
0,0987622298751669
0,0867969390330992
0,0954539869617856
0,0918471706125959
0,0912903453464059
0,0923890849282756
0,0959959053785908
0,0924387572315335
0,0962482104403065
0,0880197603970077
0,0974455484445068
0,0867902925798462
0,0991841346801921
0,0895222023336248
0,0992548956512816
0,0913648532143725
0,096389096388422
0,0910279631644205
0,0966134791452759
0,0918601936004707
0,0972704221437928
0,0903775556563852
0,09864407432112
0,0932405506334496
0,0985030692106992
0,0935031706069627
0,10026608769808
0,0949931055143802
0,0977123184946758
0,0949618580344963
0,0994169082784376
0,0938990290087415
0,0991786260548221
0,0937853592697798
0,101852330528703
0,0965858017590074
0,101851666958436
0,0958673919929813
0,100785585869414
0,0980231440399329
0,102379088309755
0,098976906105733
0,103945914743465
0,0993259951834225
0,102479600326819
0,0988843172408282
0,10341890327246
0,0996031746398073
0,103836293696317
0,0981181823265537
0,103272632967155
0,0982607655178003
0,10516131224331
0,0999015708366077
0,105576177316827
0,0998454391278077
0,102935067413056
0,0985652594083935
0,105638966859869
0,10381316107151
0,107898170057274
0,102087847564214
0,105703299696125
0,103814492262731
0,109806404420868
0,102093125526607
0,10646350396681
0,104068325171227
0,108078900916586
0,10488965211647
0,10851878418903
0,105667695771966
0,109749120793451
0,107798308918747
0,112087759601213
0,106540558067469
0,110134713676173
0,103177493828464
0,108755189443996
0,105276178673622
0,10978619988045
0,107159684562184
0,112022679115307
0,109040373637661
0,111258727642913
0,107628067999689
0,111771441477605
0,109552690504895
0,112466939804274
0,110741323029984
0,114571248743152
0,109335158289746
0,113413882715409
0,11250145990015
0,116277743785228
0,112336097182082
0,116208475301153
0,110603771837052
0,115341156992686
0,112540077041514
0,117073317104694
0,115913594781454
0,116081361639372
0,113166163900922
0,117879595416165
0,11521608793095
0,118786934467175
0,114763995431146
0,115969481587139
0,115187440704743
0,118345439404346
0,113726364333942
0,120035144734391
0,115230785858283
0,119720026614845
0,11863686569562
0,121395156501075
0,116793756368221
0,119254831862611
0,119246887979475
0,121669856882121
0,120436670045497
0,122556258845929
0,118471324228043
0,123452254823563
0,120234246939976
0,122846219718918
0,122848653440371
0,123158794661254
0,118906558935281
0,124786759160348
0,118624271839964
0,125716990473282
0,121120945824299
0,123492320781812
0,121996240091887
0,122734261294866
0,121493259619389
0,127983954917226
0,12405894692291
0,126663672479074
0,123452960965484
0,126059982163036
0,12576720902657
0,128436873282546
0,124327397182364
0,127888215398371
0,125097921384233
0,126595583636743
0,126506756143749
0,131098444203521
0,125462114643959
0,128830812254753
0,125771419232979
0,128238299476435
0,124890597525477
0,130855635945685
0,127937465154404
0,130665650072057
0,125831925816781
0,13036894889043
0,130560367025376
0,130803443514555
0,12808523403767
0,130791841915992
0,129741640739027
0,133134183098937
0,126287407642057
0,132256952285463
0,131627817615975
0,13094653672851
0,12981589134095
0,129937371268509
0,126436647416495
0,132751399642165
0,133026147306023
0,134498543856927
0,129018134164085
0,131294416352411
0,133019346399503
0,135328194762145
0,1300403571386
0,132012324896505
0,131658813213147
0,133888035976514
0,130782763071647
0,134848401795194
0,131265803772958
0,131759530333642
0,130300677873414
0,132786402426397
0,1319924736514
0,133744690510356
0,131072423339255
0,135477938864229
0,134538486030838
0,131662360590197
0,130948735941952
0,134553048911798
0,133057315586952
0,133685025384126
0,130271599962674
0,135019009749635
0,131842474194476
0,132889477790482
0,133038251259804
0,134528558153981
0,132699561071254
0,135937451084092
0,131146212300122
0,132701604124168
0,130803137451165
0,132407269164226
0,128667687429482
0,13291327384676
0,130834732098524
0,135935403384945
0,132910995217586
0,134069009940392
0,130986602377634
0,13261525561255
0,131214159088767
0,134222429190045
0,1303996598644
0,133265443012303
0,133596028251912
0,134155712389111
0,132237006173145
0,13322454959937
0,131080240477478
0,133679745096079
0,132057291692151
0,133135700611268
0,130421977365843
0,131788341455194
0,130444255069141
0,133381948763255
0,131507397006233
0,132279009197726
0,130225725338465
0,133714884708476
0,129936663010481
0,130959779680062
0,128562832437724
0,129864913357618
0,128018453010763
0,132912726560355
0,128001940629675
0,128344361507022
0,128395260907985
0,127219757950793
0,127887474420006
0,131369174220278
0,130101452822149
0,130699484270571
0,127705900934198
0,128844587796169
0,127746314944951
0,128290429866271
0,124189336486253
0,129671124776852
0,126712619536266
0,128337715893512
0,128600396155255
0,128326461632346
0,127401662334961
0,129227237468986
0,125230437475258
0,127080868467116
0,124723279671358
0,127390042646791
0,125862643488787
0,123843263196318
0,124159536078143
0,125862080659055
0,123374802803665
0,124570762468254
0,120183916919348
0,122901686596826
0,123687227042354
0,123461621558939
0,120303122423243
0,123196942760347
0,121735458867673
0,122558750117353
0,120148766334302
0,121700920639411
0,11960828545012
0,120310681698688
0,12138793925076
0,123362598133928
0,120393414803797
0,121184943004105
0,119373630070322
0,12280573449024
0,121233180270224
0,122357763393371
0,116974975334388
0,118967824926121
0,116455979938357
0,118231263694525
0,116043101649829
0,117985740154286
0,116775251450572
0,121079628150367
0,115494765193089
0,117040788126135
0,115609686757293
0,115714244546512
0,113079455045103
0,118900526685676
0,115283428943053
0,114592110529956
0,114022603984857
0,114152487607061
0,111978722851342
0,113333621623913
0,113083848241965
0,11214740471259
0,107875841525221
0,112007402044838
0,111132562915857
0,114739103977564
0,111858362703918
0,110410481283568
0,109525725003567
0,110273977773992
0,112986959239614
0,111922994244501
0,109001472643448
0,108485519408694
0,109316388818199
0,108499885182958
0,108272479921916
0,108171075485572
0,105613522308819
0,106151441247269
0,10904680283775
0,106675013780107
0,109544761965153
0,107423397386413
0,107298840934854
0,108864505751427
0,104377784778652
0,104572559089906
0,102384401577011
0,106548272808006
0,103362325352276
0,105412591767304
0,105947230402695
0,104484828803244
0,104169802361768
0,101595262544094
0,101058981154513
0,10242039578746
0,100383114833558
0,102756989774042
0,0990709503853674
0,100593664822409
0,0995021792723593
0,100376076315613
0,100335759625241
0,101548877849891
0,100141063402277
0,1005971547371
0,0991098580247517
0,100750211930886
0,0961315674150599
0,100378051551269
0,0971127814199876
0,0975052275780125
0,0956746627911949
0,100365368358562
0,0964207504979669
0,0968705022514623
0,094879539811233
0,0969191614902933
0,0950037396186857
0,0959544919563306
0,09412976398427
0,0974733166633672
0,0931495512671646
0,0947285487181921
0,0921123586982419
0,0984758609893728
0,0934780377254732
0,0968385423153279
0,0921002680335642
0,0936077305202374
0,0898043434866548
0,0978691272238262
0,0933982462572987
0,0977993748757572
0,0884017539053478
0,091426574828227
0,0919880480310819
0,0909186441208441
0,0914844133486312
0,0905142499911564
0,088455605827363
0,0915279365277202
0,0895593545763596
0,0914120142160221
0,0902696681461418
0,0895625871382647
0,0906327512464486
0,0904490264320272
0,0884428575755946
0,090602616952955
0,0894142272951514
0,0897440906575246
0,0892293404842186
0,0906686006123442
0,0924312866060193
0,0932105563068849
0,0838229221705774
0,0900946241201395
0,092127489191198
0,0874972523463385
0,0933720580428681
0,0827682514545816
0,0894971773472624
0,0870178966208415
0,0888909099073318
0,083124806536803
0,0897145280124271
0,0850691015029897
0,0879074630639075
0,0860364553187455
0,0860403694660204
0,0869304386850312
0,0853283783028113
0,0863731147864724
0,0860165605884451
0,0878048498733544
0,0864164115583096
0,0853464894528485
0,0826902348552991
0,0838973371118045
0,0846920046499884
0,0848769088473028
0,0866145828799305
0,0867810029014699
0,0878517107977582
0,0826331420321288
0,085642254816442
0,0830213446396443
0,0879239057136879
0,0875614619509879
0,0854253647215264
0,0859893371818197
0,0848782453923136
0,0878373600899453
0,0823384784915449
0,0854523399904181
0,0829122593325424
0,085266443644292
0,0817718430239491
0,085336908019949
0,0808163151295529
0,0849920715456207
0,0823473683790353
0,0848887505955775
0,0823755849800164
0,0843304428793575
0,0852003262183976
0,0853237093837745
0,0857140015217616
0,083148396219158
0,087024513344492
0,085248860234727
0,0902140679244131
0,0861368907409174
0,0878735740566054
0,0812174575337145
0,0852162415034155
0,0834957985176299
0,0818934843919922
0,0839562701256738
0,0830228029644876
0,0836600343363798
0,0839897602992001
0,0845368865485695
0,0837813818991706
0,0851159510668973
0,0835056721490582
0,0832711183130653
0,0806956993125669
0,0851263293634145
0,0824687671493114
0,0862246770704716
0,0814630926138903
0,0888210051760865
0,0817953455166637
0,0911260154045221
0,0783207141222863
0,101478624015383
0,0828956310886288
0,0970901326908287
0,0819311573414314
0,0860659225177167
0,0828285974769056
0,0871647417430399
0,0837315950311764
0,0858199070012112
0,0859288613975737
0,0857965803794525
0,083774423171721
0,0865205913910533
0,0850577006270176
0,0855050479901172
0,0893936123913995
0,0931997373295507
0,087078046691421
0,0910678075671183
0,081246592426021
0,092417274467548
0,0897914013462123
0,0906040310245775
0,0880223214786178
0,0839121051921424
0,0930737860079859
0,0870065257494831
0,0889606312265377
0,0859763315947739
0,0931177628791156
0,0929797589664121
0,0890742159081886
0,0880774708302591
0,0894108234082814
0,0915034044969439
0,0878033358568607
0,0946317012216475
0,0901119910222204
0,0911995066531217
0,0933017646816586
0,0912898480566417
0,0927325129252699
0,0899128514428915
0,0956106574694784
0,0892388003937097
0,0972914950866575
0,0932088121391993
0,0939794767022857
0,0970794893075693
0,0963819911676779
0,0964599510071629
0,0956203334416198
0,0949449379309133
0,102757858777552
0,091254226749679
0,104206663696757
0,094632820250607
0,106780489659986
0,104024372624425
0,0974434890581068
0,106415196481636
0,0954486017351129
0,104758938400963
0,0949143646395432
0,110666258048644
0,0957087351466754
0,110544809385707
0,0930229761276572
0,112662632108698
0,0957963151034803
0,111719802767593
0,101939380955334
0,107537485149232
0,101133837655705
0,112267699741334
0,102208813397987
0,113065057078359
0,112232806575793
0,115946327113778
0,117012650231004
0,105656685165687
0,112954743432505
0,122237432215571
0,107253578998173
0,11848671539095
0,107683986928475
0,121886439009435
0,111123088743749
0,123508095950715
0,1244763132202
0,123106125451712
0,122382628718511
0,12237255612449
0,119949284080807
0,135523433402226
0,122150303335748
0,130626511826351
0,121530617647985
0,131699413949655
0,121599868647137
0,145420765857647
0,115353336911657
0,15477542525381
0,13090032992491
0,145338766879851
0,140575892982067
0,141621531460283
0,142056452115146
0,144622728483465
0,149969547287087
0,14908088144289
0,143282216622391
0,152869269561356
0,152707392241691
0,152866497648794
0,157226792251583
0,148388544741135
0,161287039163295
0,163398836903664
0,174218895621049
0,177897506827398
0,167516865786919
0,164284176167321
0,178140725859702
0,174136755691346
0,179790433633609
0,1737474268584
0,180119635612288
0,181807250099923
0,183847164113711
0,192868004946909
0,19099123247477
0,1970739822551
0,193646077836349
0,201006578020821
0,208908947544163
0,220489717281598
0,224656191539094
0,212376363362545
0,234019348778588
0,209176829143669
0,233637170135237
0,224039634581764
0,237107565768908
0,233425777833545
0,240308065138832
0,246173132790673
0,244263888374953
0,257537444521622
0,256991512223883
0,272625389849279
0,275850371426425
0,271046306760601
0,278226703813557
0,278314043633911
0,330033255307491
0,245538826141001
0,326280521385369
0,286052326704483
0,32284824734146
0,317094040843221
0,335526440268806
0,332263220329096
0,334102601401718
0,3404793200003
0,349409332494449
0,3504228853756
0,360277704608501
0,367630584666101
0,374441343883198
0,376330761424426
0,391513624419757
0,386549506184561
0,433974158712237
0,418609900409432
0,415884257827844
0,42078888579053
0,435444966232172
0,436901103464042
0,444618610459705
0,438067456670911
0,458449010865464
0,478976914940762
0,48503172087253
0,482174349879335
0,47517021898449
0,507073085365857
0,494477762651849
0,526774009980797
0,503649702991238
0,548648005035354
0,521383284788591
0,534664258938391
0,538429463273249
0,551716070617943
0,568571444668013
0,561524221189721
0,58922138528134
0,579515482010969
0,584412900498578
0,59279658134774
0,604329138462619
0,619854548307675
0,617428350857071
0,636463330319965
0,644323067042274
0,709941462438525
0,724066038467744
0,666136786913425
0,656096345746911
0,659257920834678
0,671537702153021
0,679990643848474
0,714782110086767
0,675843358368823
0,692485141494186
0,700117422261305
0,698571782736372
0,699116899218685
0,708426452473556
0,724903689247981
0,700701800987993
0,727459151829979
0,735714668881787
0,743946292826587
0,699099598323701
0,729537868032732
0,729407539594315
0,723705584313269
0,728956800375677
0,722697271261377
0,721951482887923
0,691234876267552
0,709221625611491
0,708320082885886
0,705312839319339
0,679995865466777
0,703395661908926
0,691542680463972
0,696451748391659
0,664502117497925
0,665088126505803
0,655350988023099
0,637383088193009
0,639650010114703
0,667530756631117
0,640977548693945
0,623889414892651
0,605185452569876
0,603120814133627
0,59135347984854
0,587842484325712
0,568621108059347
0,570292371249984
0,560402840901631
0,559288325886876
0,537279729140822
0,544597670276275
0,518272422783823
0,5260665440724
0,515411591781739
0,507246871849026
0,497942882153317
0,49416331606809
0,483765069709778
0,471641463971215
0,465105000411257
0,466844057366096
0,455057196104333
0,449197253710627
0,438864023178628
0,447026689526427
0,433660332001201
0,42851457244
0,426307965154046
0,426856082948875
0,414565348898586
0,406233028266388
0,400084063734873
0,400500363580446
0,394511411237321
0,392019728236216
0,386698971636351
0,382441271070924
0,376665223125845
0,37350936655211
0,371503996534206
0,366471828623563
0,37883682404423
0,352980225857813
0,364165901331959
0,357411019801306
0,345369500964649
0,356451617136047
0,33272028256383
0,354943297493485
0,33364519608917
0,345557720296938
0,33344153561846
0,330375844530492
0,330114523338335
0,332017020095713
0,315669774863528
0,330130850197298
0,309627549930516
0,334329771890606
0,308348554083582
0,3329515820664
0,365736053056991
0,317402121941859
0,308314335992788
0,306427066342498
0,330345871317732
0,295273256233274
0,307320939528951
0,286536705966987
0,305451619095476
0,28821389479912
0,299917762766248
0,29291011041344
0,281936747776906
0,293286864977826
0,29965105078835
0,287470748941327
0,290541213547475
0,302175846274719
0,288236799487248
0,299054118604839
0,29436758167113
0,30016756327545
0,277100376448238
0,277824390228803
0,268603750818736
0,274479312787146
0,282240516540045
0,266424511650918
0,279201012186263
0,268990246068959
0,264599745243255
0,269326956739213
0,266783225283888
0,272913929268432
0,258904153026257
0,287404064581554
0,246700200007894
0,277153454960433
0,252422072100696
0,28127379111122
0,283055347488568
0,271784568961876
0,257283468163777
0,261288712456086
0,274144908286266
0,257263481511616
0,266378283553863
0,256142674364717
0,253567405454977
0,263801386140841
0,249260102372246
0,253936405404727
0,253544222568469
0,25550760101703
0,270142413309001
0,261808277998926
0,278927504034946
0,253669836873781
0,24019594668493
0,242259711469442
0,240014181302239
0,247119716773092
0,238493199088748
0,251653046049323
0,244588708409504
0,237445812661751
0,256794213672023
0,234012470850704
0,245105237270013
0,239531629377005
0,237916124547965
0,239784736714776
0,23721551651826
0,249292361117253
0,249959754288511
0,234192430945316
0,24335335466083
0,229249880626903
0,242706587190808
0,230640193523875
0,241404524997542
0,230951183021837
0,243377496487719
0,232994418860238
0,237795534069599
0,235559082858403
0,235117578696052
0,228637838787325
0,256808053648269
0,221792141019778
0,249789170171882
0,222297049409828
0,256420285112447
0,240985473251253
0,23514266112403
0,2404980347876
0,232666449093028
0,235502296019571
0,234934749002698
0,232967718335631
0,253053537406732
0,227760551733489
0,242656086469552
0,226887348359982
0,240968678203545
0,225787808500185
0,240700176533823
0,230804555858358
0,246009455169909
0,259617019978896
0,235797915607396
0,246844971227926
0,230536395646845
0,237392575380976
0,230125705267681
0,230362971017529
0,237534612595171
0,226013766164908
0,243492971800072
0,232823137734879
0,232628015305435
0,230014056528516
0,233408076374343
0,235009235821264
0,229481220255525
0,228927508037928
0,228022095428363
0,231732196097171
0,236322123065037
0,226768622681674
0,253158539067237
0,232786152248164
0,235032820348443
0,231635325118644
0,231825628244553
0,235656028579491
0,227627954575391
0,237041592669764
0,233400587965643
0,228045575701654
0,237788081078421
0,227750326278279
0,231745195768475
0,225829396435061
0,242542301304218
0,225891851092141
0,236025190963204
0,228777500238084
0,227963952251052
0,259413304801554
0,22275716196417
0,254777698533402
0,226151324257026
0,2356348972805
0,222038214192876
0,233281785431387
0,229433264457656
0,235224236870641
0,228225294328789
0,231715188142158
0,233157438671633
0,230699165094298
0,23044702785566
0,226291947673344
0,238654003489154
0,230142439212962
0,228830081344057
0,232553393429618
0,2329034577276
0,227111687113863
0,231174689708684
0,235374215936128
0,227196811520094
0,240901975267769
0,226294957451707
0,239394932449319
0,236584551113263
0,227845227254233
0,229277464782735
0,233312513506697
0,22846256701888
0,231575794090437
0,221128028625554
0,246079525995136
0,229742381550682
0,236975588844143
0,227323688180478
0,230120570710375
0,225191723908817
0,23071417219497
0,227651966754305
0,234942057302256
0,228597658052709
0,234102271547791
0,230073073644807
0,229714897691804
0,230127215999371
0,231503132288747
0,236616865984091
0,23435065950031
0,229360299434288
0,234665489523824
0,22515126264046
0,237423093381386
0,231452005166828
0,228665039074741
0,223295312240434
0,232272984307317
0,221066018931305
0,241104197929162
0,227095642769222
0,232415879074656
0,232998079413886
0,221163953500016
0,23161748089586
0,223058399683794
0,22640463188577
0,225444413873698
0,230100543870198
0,228634311108063
0,226880953677066
0,223020904417933
0,228086007097795
0,22444646339582
0,224421131754932
0,226272756364554
0,222856551657875
0,227727821731471
0,228885558151729
0,226478407880696
0,224406677555923
0,22596439317229
0,222596628095526
0,226922798699175
0,228837255889006
0,227897851474049
0,232609908448274
0,22498445327847
0,231979343685206
0,222367673941683
0,226150343805853
0,223077388595029
0,224474536765582
0,222813654186245
0,226997565732227
0,221176928183832
0,221771692117845
0,221467288532349
0,224317639124875
0,223448021043553
0,225385603748448
0,225098981863956
0,223469939259646
0,223002079608289
0,225271813937263
0,224473768078473
0,223994710340238
0,225716117714386
0,220453253777524
0,226310539651026
0,218912240656069
0,22760221497801
0,22291746579676
0,225583008371412
0,223121084059632
0,225267149835779
0,221710079965914
0,223621562786883
0,224196923469342
0,224638452855982
0,220970026833566
0,223017780343418
0,222302372239906
0,224605079654696
0,224971217255537
0,221825472977935
0,221257065625111
0,221940232739553
0,219084694858048
0,220726219352266
0,221720605472892
0,224627552658644
0,218892281131461
0,221347918923472
0,22236833252019
0,220056410203371
0,22074153411457
0,221498660925083
0,221970403586241
0,223448607680269
0,219870458942504
0,224578901825926
0,221499300642121
0,218344142643225
0,219226032673266
0,220188887087942
0,221240597082572
0,219451527040516
0,222370224689025
0,220222650323999
0,218334263736717
0,221267498570222
0,215276741553014
0,220848053518699
0,221407453978448
0,223065675969584
0,217041660610215
0,221563944633701
0,221768431741901
0,220893094792912
0,219142487394902
0,219813794224103
0,219300435909017
0,219459995465165
0,221862483867629
0,22073433671923
0,218812519593797
0,219202580223933
0,219510558553704
0,221039066932821
0,221480166662903
0,222719536465487
0,222242387528224
0,220665252096018
0,220907445624615
0,220119544959058
0,218254269656303
0,220915455004455
0,221770412791353
0,222917959167493
0,218654996075844
0,222612140326831
0,219997838220019
0,221062794261421
0,219421545908476
0,220469161871143
0,220113821739746
0,221536231250008
0,220155167846403
0,217778111783083
0,218134642060805
0,219846274790643
0,218915448494115
0,217529159636531
0,21944385251316
0,21866943566666
0,219346445969282
0,21791198970473
0,217418585375315
0,218701740468909
0,21917150032878
0,220174060899041
0,219720568560588
0,219574339032697
0,217740355930257
0,218831144639704
0,219036575383196
0,218653124934622
0,219268652922273
0,218726214438401
0,216985004261683
0,218158365311892
0,213777789111454
0,217590265560406
0,21687038594041
0,21478349872254
0,216762718267185
0,215446411140615
0,215930163067358
0,217113021254476
0,216486788556349
0,216236854899213
0,214465869118752
0,215057217459233
0,214935857045624
0,215499716188557
0,215991182921706
0,215710778103553
0,213279119904848
0,215190099621852
0,2147905290046
0,215317736747571
0,21616920981571
0,21557102222318
0,213744483531561
0,213863278023079
0,213620694712593
0,21415874547226
0,212688518568228
0,2153394252071
0,214106999581262
0,213654542672972
0,211411076254691
0,214001886331902
0,213341693835627
0,212160870003351
0,212828752945586
0,213852166574768
0,213749913839253
0,211587853184783
0,210089824268214
0,214767341869491
0,21473465533278
0,213328015364766
0,212396941996344
0,214760376117392
0,214692142495938
0,215695959090898
0,214373380651132
0,214432147657311
0,215614086338526
0,216172487504233
0,215138420569754
0,217273406071406
0,217686585394105
0,219334542952122
0,219829778648323
0,218813564513574
0,221784455762402
0,221344656296064
0,224156979806518
0,223160343309578
0,224215189297635
0,228222540594156
0,226218582906958
0,228569849359379
0,230223869968742
0,231399157236892
0,233390170812337
0,232745116869968
0,232772228701069
0,234007309610831
0,231832711726543
0,232805569793445
0,23191915287123
0,233782147758762
0,232146179328147
0,233109619931306
0,232918918944546
0,232246061216203
0,23038794512098
0,230883461573254
0,232256462315019
0,229476137357521
0,229709065775199
0,23014055623706
0,230688769522154
0,230604924436884
0,23057617150429
0,228603175196143
0,230989624041677
0,230660756830623
0,228073244114565
0,23178953877047
0,229725472716494
0,231329484795363
0,230269557962534
0,235014985666371
0,231577731315721
0,231878271141841
0,235023228194319
0,235208338144101
0,23394708232071
0,235784769658701
0,239556304717851
0,238708756513203
0,240958454863891
0,238723979704271
0,241867918344623
0,245704237120622
0,242625778149051
0,244350869452821
0,24294021279117
0,24412191573233
0,242929800625615
0,244830105448545
0,243643022042987
0,243884666327364
0,242271241767086
0,242959531887348
0,240504248945404
0,240370967753964
0,238952882833919
0,240001581078873
0,240666521064258
0,241659551670886
0,240299992617092
0,243977206011088
0,242601169901576
0,245638739816748
0,247087675145004
0,248360412636697
0,248194897165629
0,250876035501514
0,249358241219384
0,251092375200245
0,255081383752797
0,25513057752154
0,255990329048523
0,255358933402623
0,257906109309537
0,259112032994328
0,258721606854381
0,261071319623645
0,260124448988663
0,262682439963013
0,261942058767271
0,263659751682276
0,266673809746286
0,267364247426497
0,272423518411554
0,271259129346064
0,269583334744567
0,275176295482909
0,277625961899181
0,27889110920825
0,278484309621715
0,278701458461597
0,281282831070171
0,280698169885627
0,28229683042043
0,282829898227549
0,282543906401084
0,279751547667097
0,279146721360053
0,278429964784769
0,275231177840013
0,274418949155238
0,276652694778089
0,272210838964086
0,270352241625384
0,270404479725713
0,267804994224664
0,265577646252452
0,268844862394296
0,26800540216776
0,269097058494229
0,268528172677355
0,268615227964453
0,269433172286565
0,271926199612515
0,270655729727649
0,271347933410283
0,275273572503474
0,273685867133542
0,272909364996225
0,277362403388078
0,275834109532724
0,27716371721585
0,276851751162332
0,275664053086074
0,277131175238325
0,27848369244696
0,280052450786232
0,281074147996445
0,281442569323011
0,281615273510667
0,28435736201422
0,280438366302117
0,281100129533453
0,280530317826622
0,28067148731522
0,277718138556819
0,279527793686995
0,28190755567926
0,279918997912512
0,281990003030045
0,28232626566321
0,278034138830112
0,280074489745879
0,277289249334931
0,276358865448308
0,278987731166794
0,275982896587475
0,275016363418467
0,276817863588995
0,273493899262227
0,270090104057559
0,270567571313659
0,272215053196248
0,269980630813461
0,267477283072244
0,263046036687279
0,264212878590854
0,259749077142218
0,258881635518663
0,258445179434725
0,257449941474901
0,256114092399723
0,254873671002477
0,254910306469848
0,256790136503283
0,25769743284687
0,252610410247815
0,252373539926395
0,25985052874453
0,255784716868718
0,25877222025351
0,259463241044637
0,258803416257943
0,26347205423736
0,261290964254944
0,260237906491068
0,260895241094659
0,262703012260148
0,261183680287387
0,261514586621187
0,263070789806388
0,260897280102563
0,262006549601657
0,264359219401159
0,263691892313485
0,262938367067358
0,265049055161494
0,262643103543112
0,264569867302741
0,265454623952103
0,26325078152324
0,264724101324911
0,264717462366934
0,264865170189196
0,264071732336502
0,264622322369966
0,268390044972041
0,266844052174693
0,266793117041827
0,26880910068406
0,266232876325185
0,263628088210799
0,267576313387825
0,268147044030998
0,266300331112198
0,27040996380193
0,271632659919873
0,265421384807061
0,273443282832959
0,274946174369856
0,272796674884344
0,275574886678131
0,275368169618762
0,275296609169311
0,276347252431736
0,277748240893318
0,278836292664701
0,281425322386208
0,28093974257649
0,282738027353584
0,28391030689322
0,286180172541796
0,286260903556487
0,288970370024839
0,287214342309524
0,296090956075529
0,292080489237939
0,295089398710739
0,298631317911604
0,294412294175889
0,302719970121076
0,300303221783123
0,298769583414136
0,301332345067811
0,300546527506187
0,306083200844357
0,304765938561382
0,309904835450305
0,308780548510256
0,312711743229989
0,313225008030657
0,317339021455118
0,320471609979803
0,321904895763053
0,316803643005764
0,317800789656098
0,323171352779579
0,322617311979805
0,325172842026325
0,330374060302242
0,329219672661756
0,333278193833103
0,335459276529187
0,334763172672473
0,33883670396636
0,335881893611234
0,341940701195446
0,349449440957976
0,343697388159425
0,342845900335645
0,352702509754425
0,351178615504539
0,349877877874861
0,355358722612691
0,360596646996097
0,36254667069939
0,361534426877256
0,363125276653087
0,370128613448611
0,373800604826335
0,371622282323289
0,374797625898254
0,380961300064905
0,384002009834756
0,384768174861784
0,388660214100176
0,389698016622645
0,3930432164508
0,393597795246829
0,39699954361033
0,402630628497594
0,401485158407719
0,403180652490525
0,412624367399078
0,412964656410469
0,414145098142246
0,419404525261443
0,423604045102673
0,419878984564633
0,426259557755317
0,42806637299747
0,433156954141065
0,432188425663656
0,43862172671214
0,447054047498274
0,44443352368376
0,445190790449623
0,445800922652549
0,449111638943657
0,450679187339029
0,455780397403765
0,464905565938111
0,464736263180313
0,464133293687628
0,472844080347798
0,4761536043276
0,474391891362405
0,475254623355337
0,484724780195472
0,494324950572692
0,481455861695591
0,493900340368336
0,496003037125947
0,503739056491668
0,501825098143918
0,51204250261673
0,510712398090433
0,515745636484954
0,524316316863245
0,521757589998097
0,514982835452658
0,529121293114664
0,524413113547708
0,53990378626466
0,5368518362365
0,537903937521747
0,532938718167622
0,543412592897147
0,543956164878659
0,550201874108964
0,554247476598546
0,560527895858231
0,555963208748184
0,566974851023629
0,57673930721684
0,585243481970311
0,591079629515003
0,594573726868315
0,58394630061995
0,581233356632331
0,586998818353078
0,612111003085768
0,612476544819537
0,620836571448842
0,623586153777749
0,62054473043936
0,6192390202961
0,633676555518856
0,626875405512344
0,644933121768358
0,63045452819049
0,627162953231791
0,648540621064869
0,644190175664073
0,645627437751814
0,677128577788447
0,671622945476717
0,64060310445093
0,67264881585358
0,674324307948535
0,674505363146175
0,704880020093025
0,683187275038356
0,704298066488557
0,68048009779302
0,690061331539611
0,699791655112984
0,682656385073925
0,721159462975325
0,740634356303365
0,726123274788737
0,714000895553965
0,70753755975069
0,739053769120131
0,726347885256299
0,723267895464396
0,74328541121158
0,748480986854758
0,722083635759518
0,73777492726347
0,753612772615255
0,756463588188039
0,770450328668315
0,792694930482124
0,768223575448164
0,794202827873828
0,766968570584996
0,79766783057536
0,806447161602642
0,78827085534974
0,75753393707935
0,794307663869045
0,794249248363948
0,860200254588829
0,832081769643991
0,83126729331676
0,891509062041842
0,834781267285754
0,807626206345427
0,810276822451809
0,811812192077327
0,888162539036806
0,820769719980309
0,832930862294337
0,858445576882663
0,892087951038657
0,898029089591181
0,870516608513246
0,848972101149074
0,847321512057574
0,879974001309286
0,887418127534089
0,871641443342185
0,959884991544723
0,914283812338169
0,890039723143054
0,874593866328794
0,919179842660877
0,903005127672502
0,919979641184208
0,90754108947025
0,923285451711164
0,906844000396012
0,922807373466628
0,941727802767509
0,980004570762669
0,890576051615687
0,947318507717903
1,03448375353293
1,02512318436208
0,89135404519292
0,972154753007516
0,940616714982413
0,953573826893035
1,01697934165534
0,959442614164926
1,00687840030959
1,0725086419502
1,01922375793777
1,06279044705648
0,968026666995792
1,01913536600405
0,927496955915648
0,96771915905392
0,962958866321766
1,01376036415128
1,03322773564447
0,995632003490216
1,0450320499054
1,04710152966593
0,991130514476688
1,02162592669579
1,04834865996622
1,12127056277896
1,04353202798575
1,03009812137698
1,01661977273958
1,04121717593038
1,02643359422464
1,06545434616007
1,1480142890569
1,20281620457414
1,14119717965059
1,16472421101753
1,07264105640595
1,18792266923958
1,22733337104245
1,15536954717936
1,07012494074871
1,14258637775062
1,22134398145972
1,18431215823583
1,17367896109431
1,33999972799371
1,02421479793736
1,09481244466347
1,01859380497994
1,1678310747958
1,34284904667131
1,16999138049835
1,04244002409933
1,07119719981058
1,05114018172377
1,18055749794009
1,18350889015439
1,12526259335227
1,26242934326965
1,7316857483631
1,34578138188098
1,38311409782766
1,27330810237845
1,21466079380331
1,2032465142131
1,40861380021391
1,27631948263084
1,28980942775517
1,074281946227
1,06402681000336
1,17280505088075
1,22035443458066
1,3028234218714
1,39555900633666
1,54958614216617
1,7844523678756
1,10361114974993
1,2146727516093
1,51357615387473
1,6739850196068
1,63112737136471
1,38564237183126
1,08539861753872
1,76313950692511
1,94687447117127
3,00760513902265
1,53075014816611
1,6886898702141
5
2,06674145900272
2,60164429865693
1,65176307641669
0,992918466080392
0,944013229422737
5
1,60680424496361
1,58829848735936
5
1,34576468005673
1,26450714175944
0,99969067651025
0,601058644174844
1,29432352152986
5
5
0,855313568729244
1,24022340964767
5
5
5
1,92617459718444
1,90467389686035
1,47413763731401
1,48755580889075
1,03868148168829
5
5
1,27091620156534
5
5
5
