3596
4000,36533379555
650,420452594757
1
2
2
0,0202202636517483
0,0266218176367938
0,0219838838025663
0,029975318812351
0,0225388845586673
0,0244414177216285
0,0265364265063356
0,024348670834873
0,0159636390251135
0,0267490831331451
0,0259510189781519
0,0303163467399968
0,0227538225462982
0,0183366647347783
0,0152584785656081
0,0281135132585448
0,0249635794410744
0,0265273208066506
0,014718583118077
0,0277485244774473
0,020523449443393
0,0295089538309464
0,0203550575055885
0,0289638194158638
0,0149591625129918
0,0183456280670255
0,0202271828610359
0,0293710840282403
0,0159897618127966
0,0217576526410982
0,024146080454202
0,0240082217625797
0,0256570799320982
0,0287419820118956
0,025478086879373
0,0317595142926354
0,0144412904034412
0,0280555058940716
0,0134364331244291
0,0280706685875342
0,017511655129696
0,0297152878220893
0,0200374861394328
0,0207133950884845
0,0234615702994054
0,0225375037295081
0,0175739054465257
0,0213083801660246
0,0225237074953284
0,0300887822323239
0,0212381214355112
0,0262231867828642
0,0236945344507267
0,0301600132138883
0,0298450459673485
0,0269722515651148
0,0104626368236887
0,0266087542911119
0,0233941081319199
0,0328418933190072
0,0266549559932968
0,0209856234712418
0,0340539214240888
0,019874392674597
0,0211595653247982
0,0250910291939625
0,016040452987614
0,0372184030914966
0,0161691459219309
0,0345892990761026
0,0174379282530253
0,037168234540363
0,0114881939638191
0,0279831687283693
0,0242251816594338
0,0182033284714917
0,0109028038565597
0,0252214978394375
0,0174442719517349
0,0394125510780545
0,0167092250184349
0,0361674716942408
0,0261709311926083
0,0242166422843318
0,024802392914491
0,0284588718377982
0,0121543745711435
0,0467276843884603
0,014086274969186
0,0266653065033245
0,0221254729939154
0,0330182165284818
0,0156041150554419
0,0275068714651068
0,0139816035730012
0,032760048989189
0,0193134571247697
0,0323980084810366
0,012646740253007
0,0358620948682722
0,00773149158478697
0,0502535383037202
0,0118803021058981
0,030557603750406
0,0504795492763733
0,0210645595085979
0,0423381630920209
0,0193637920335596
0,014375776488291
0,0256628187870125
0,0104813683371573
0,0223272729426119
0,0222306119521868
0,0401349148725637
0,0137960101591322
0,0576038463598176
0,0225233545139126
0,0384224650623856
0,0118137208888066
0,034042458995662
0,0163950332077946
0,0597977818710817
0,0155679005072922
0,0352643544479118
0,0184655514289716
0,0282497971062025
0,014126867488743
0,044866202157437
0,00837067016951504
0,0279993709953569
0,0140133180552801
0,0318324520678603
0,0124968792533714
0,0454853823745692
0,0254246194616128
0,0300943891940792
0,0297742842434018
0,0284873263338006
0,0369031895937499
0,0277908305450212
0,0174403310325997
0,0313319071282034
0,0112636992140701
0,0430380619786051
0,018385032161684
0,0294156147721302
0,0279161357329088
0,0314594122835262
0,00736977840033968
0,0335421399002769
0,0248578802674973
0,0369721083683093
0,0171533230567927
0,0332283454491431
0,00666098600641258
0,0952971688290882
-0,00401515819140347
0,06556750992907
0,0278266337336218
0,0242705409717673
0,0326554293637122
0,0216449447629699
0,0179317096212544
0,0202661854062898
0,0294533188070532
0,023163351168208
0,0345716636364883
0,0298618876833475
0,0264337376372092
0,0385217880110628
0,0220530406457187
0,0265595813896427
0,0219412331379549
0,0516868156668656
0,00813764217130041
0,0494256299281924
0,0287404438405358
0,0350071072763202
0,0116192458060029
0,0389768421915401
0,0129046469918779
0,0276715706542831
0,0241717809802543
0,0293745722404437
0,0273626998010314
0,035419421193172
0,0192398878521007
0,0370606475904176
0,0198262836228353
0,0369166358407532
0,0312204705316319
0,045977692266984
0,0183922324256806
0,0290288835250356
0,0277542582965388
0,027466611531025
0,046511996910427
0,0284638943040016
0,0227303944239785
0,0318335928884307
0,0307084723180565
0,0290263584478529
0,0171637813431571
0,03267339441702
0,0212988799377336
0,0383305377294792
0,0414407121718135
0,0185952362212401
0,0359759514712083
0,033787942969026
0,022019376297691
0,0213218574109533
0,0581051736245668
0,0220808924306071
0,0328932618279351
0,0315095670997546
0,0326084054803753
0,0381418395100324
0,0178856213643345
0,0326372927404813
0,0227078611395777
0,0273567067314595
0,025764337993908
0,0266288311227489
0,0290687324948321
0,0357010670060783
0,0251270820535768
0,0280915093843894
0,0254569362168037
0,0357849665020333
0,0319103034993725
0,037481658743606
0,0317675481550404
0,0394489284088374
0,0196142097023605
0,0387885293004753
0,0271792237743076
0,0370419850724957
0,0332761365686185
0,0383218319513447
0,0246929752272471
0,0387048408310317
0,0249443748651803
0,0332635569134017
0,0293989834622486
0,0425096303788181
0,0412369197192225
0,0224481475510697
0,0367548756746121
0,0226947346576293
0,0548125898593586
0,0290313102044597
0,0377533329364186
0,0333297525786601
0,0315807520037971
0,0279385407869524
0,0504664931129721
0,0424835254400472
0,0371445743648742
0,0374040580348318
0,0440800936699379
0,0370775245809263
0,0403839629961187
0,0438146839516106
0,0307222139029416
0,0688924135729274
0,0163552671491153
0,0470160857176201
0,0451300682761559
0,0352443059419162
0,0482659984641959
0,0421605652040014
0,038115279028944
0,117823936280283
0,0360472558087925
0,0374556147929336
0,0276806719987183
0,0509410519357037
0,0255416754215872
0,0616246392459486
0,0301069512312744
0,0650247750081246
0,0367783767392891
0,0501067252492324
0,0515606596804647
0,0271688801914948
0,0644784770655468
0,0352434493892731
0,0446972561047711
0,0409685617864651
0,0470235051827686
0,0424779082315723
0,0485926299564341
0,0442788459268017
0,0484786164770539
0,0513389912271421
0,054315738392026
0,060121662808327
0,0454032499951912
0,0527814544145141
0,0501081347566512
0,0555828575371104
0,0455935376407761
0,0574267694380617
0,0468515828786136
0,0678165390803346
0,0507833725622827
0,0667635915950813
0,0600867380036313
0,0594712804792279
0,0635027100280839
0,067836789179336
0,0478869466392164
0,0678737389932525
0,0514544998221959
0,0605388209105612
0,0615173991614107
0,0696094141452476
0,0599090910072542
0,0944403152637946
0,0634457583528246
0,0782059396273139
0,0626095284624551
0,0780224462527405
0,0637591415473041
0,0858990098163553
0,0754065888120448
0,0916429019916597
0,0816323258455756
0,0866328861448887
0,0880586792735767
0,110661279810259
0,0668061853355884
0,129116089877093
0,0807310313881365
0,0950322886928176
0,0905929145289117
0,106970718834676
0,100122350670306
0,10752357851086
0,103812963964824
0,11343251143634
0,108914776153503
0,121257885825276
0,114626009470979
0,134153815676634
0,13434053014679
0,167899515543161
0,15089984088145
0,138090497118931
0,141440453286669
0,133896266482519
0,171787767421176
0,144132844476859
0,163047885894744
0,167655663991309
0,139449634428553
0,173477863454237
0,155279052806043
0,178639679922399
0,16187733100234
0,190316660458177
0,171685421803379
0,185860305992679
0,179511459938636
0,204732158668182
0,185751227973033
0,220269881326391
0,213060826151427
0,199389831842393
0,204358195619883
0,226053530253726
0,211045193401351
0,265250483545925
0,211896061847733
0,290870710926965
0,227684092404728
0,269200419099785
0,239276351590823
0,231460634105524
0,241369763505136
0,247477917442497
0,256385411573316
0,270854671766665
0,257328525864034
0,273106928983377
0,274958084868712
0,28288505219295
0,273761048605644
0,284017825603634
0,279237154592401
0,290900758477812
0,308664830078285
0,291191017473553
0,307176969571292
0,309588975970671
0,345297304462805
0,340352796302144
0,323213550321066
0,321897676640431
0,30841875575907
0,318174994089693
0,303963672582453
0,331667114906092
0,321770575291051
0,336132228873481
0,325449013068622
0,379010964207059
0,336097809576825
0,394014507848423
0,350260926652359
0,359417034042166
0,354591047673102
0,373086405393009
0,368354301061738
0,385859294797968
0,358540629765625
0,380659269203832
0,395252015058154
0,376781551913789
0,370712011720719
0,417673993372608
0,35823767792944
0,387334238657985
0,376437245175241
0,422314414958268
0,389535083981544
0,423341550572229
0,397274600074622
0,415131916421338
0,419599337345024
0,424239134958957
0,401212852233141
0,432746697575829
0,41866882005753
0,454682516100104
0,42040399939367
0,433286843068116
0,439155851251795
0,448746548619553
0,458826124244906
0,465890201997386
0,44784464871628
0,466034931400408
0,443183921219945
0,458796535397627
0,447018648189768
0,478127787811359
0,464757527190162
0,479281043060392
0,466233381486906
0,489429018939033
0,462661522945587
0,525246045406211
0,464300577092595
0,488533513819787
0,483647249780342
0,517134244430964
0,510029696594821
0,515278716102699
0,500434379480672
0,553405951752259
0,511954963716382
0,550503047873373
0,524071851651198
0,540247441767471
0,505039338546407
0,560232271596543
0,55044897441374
0,558144416005104
0,501475265456866
0,56303872313426
0,535975342671146
0,587716294612028
0,552229409441846
0,578487266197159
0,544731234032522
0,585741306035953
0,557763548923957
0,595646790981648
0,553967341813296
0,602664383253844
0,556288291325753
0,600531867838094
0,573757890728254
0,630605839891767
0,577896780565742
0,61690821477183
0,59110052405701
0,642914319959261
0,593369511690076
0,648722484299172
0,62112551578275
0,653809128743541
0,59067895922815
0,638926479061967
0,595912525165256
0,684044854768101
0,632276186026827
0,683421899196741
0,634652617376819
0,729173423686377
0,645978854758243
0,69192191946536
0,643227829979624
0,684599684344126
0,651958019615757
0,699068732632299
0,652579373589773
0,689588126211305
0,676292468876914
0,780175409317434
0,656877446463257
0,741033809177089
0,657867388207376
0,750131625654607
0,691129927826555
0,760203090391714
0,709444263961123
0,75755772619156
0,700145435614776
0,708154549461357
0,748927923462885
0,784676674448848
0,718797554168046
0,833864133877968
0,75985328789053
0,785742688858346
0,727519248925101
0,802783533069512
0,750281137211106
0,77440214286792
0,767656019104522
0,830919167008876
0,742091144316947
0,859789272922909
0,713096176791546
0,837607558132033
0,77845158770628
0,839765380615961
0,77806360937435
0,846741655187479
0,770401859825856
0,837862718753024
0,800145224361853
0,837231657904884
0,792638548543215
0,86650673748473
0,844590258199257
0,863075131927911
0,825884174643582
0,952983626554861
0,823176546261946
0,845490655825477
0,852732239509685
0,915979651496719
0,826270863744073
0,912729434472966
0,894281211611835
0,881030374666322
0,863946237274818
0,899025107327485
0,867319644690472
0,986700294857276
0,881442923637545
0,884620601325535
0,857979566810162
0,884574732562163
0,92028302042749
0,910254322067658
0,840434355200826
0,97775055137932
0,877762611823114
0,942432928137489
1,01416890205086
1,00481228079831
0,921674223183242
1,00650469743111
0,925456333097838
0,990575327432665
1,01516556578651
1,01953768421471
0,968188439061107
0,989812123385361
0,920434205378067
1,02102026309379
0,952920749188817
1,02618930337347
0,984673239418784
1,04644309542714
0,91902705174822
1,00481261437783
1,02341526561754
1,07558700771223
0,992761656284017
1,04828842443592
1,02142623417098
1,08600494535
1,04359944106524
1,05324321990117
1,06813536467842
1,05113452912774
1,00076138718405
1,08888743824351
0,994153096149147
1,11273538797002
1,06014215229831
1,19099756188875
1,04936013132801
1,11507520226019
0,990482443140542
1,14515090046833
1,07038146307426
1,1109699813982
1,0872434290444
1,21719381047146
1,04066423858768
1,27888423280838
1,14613115736372
1,16407937457524
1,18222635210664
1,29364704084505
1,05883159195228
1,16187889640552
1,1502687872629
1,20570723449888
1,07468926190994
1,16097267197629
1,12384899060074
1,14939840307571
1,19374848046715
1,21579826003007
1,09510105289871
1,13499461086151
1,24223068853459
1,29634131372156
1,15878007683734
1,26798503508613
1,1312344445503
1,24028325421243
1,16832613855905
1,22876055242217
1,24475780122001
1,19829001327586
1,2115234311196
1,23729694842483
1,11014149455917
1,25499433816592
1,22356502092149
1,17821655121707
1,17234670128819
1,21825295105067
1,1480694908619
1,32294709812374
1,22536076812133
1,22805213491685
1,25127370903554
1,34591164291292
1,33899347797739
1,45274633518047
1,16927129509624
1,22838103279981
1,22417585189928
1,33213469039998
1,22816451813422
1,30503628301227
1,2906131629381
1,3812214557014
1,21529802147596
1,30956443228927
1,40562432995152
1,42475121586805
1,21794288721739
1,36553906549792
1,26474775708789
1,29695569045086
1,22220580236543
1,34241975283823
1,2300771889393
1,35411346546545
1,26528407804075
1,32284695550661
1,27474017215941
1,34809288496141
1,26113600700311
1,30296546966416
1,27626413286995
1,29162771261728
1,28534216725893
1,41520048821102
1,36927659293411
1,4726708467692
1,22151768024424
1,35541875732073
1,25385009879974
1,36806122509622
1,25310141712577
1,26787408552675
1,25306642622698
1,27070226094279
1,2607975264832
1,39545875553577
1,21812051840362
1,44283375817575
1,26119843692739
1,31026113558097
1,29345445180096
1,23590763675397
1,25929093038588
1,3572112416378
1,27924356879243
1,29996735079676
1,21944449244784
1,3770492972104
1,27399004344816
1,27295194817643
1,23684310207461
1,31958241313306
1,30607520518899
1,35166032838885
1,26174488869069
1,35718060982812
1,25378212366438
1,27341495898069
1,22934769665904
1,34213786405952
1,25886600275224
1,32680451275858
1,28700277158852
1,29276313304973
1,36596172419301
1,28388227694858
1,23353026534974
1,36792334962642
1,21305002538724
1,38958135236863
1,31395004636589
1,31693750644021
1,23619453232378
1,46996879550707
1,28987023941217
1,34517672939372
1,26804905608903
1,34820293961684
1,33985045776499
1,3252360786699
1,2579886728266
1,35236151364881
1,27904840874828
1,33141653081387
1,26060366826758
1,25653230155698
1,27839947174446
1,30274667883098
1,20118695933597
1,25741258613515
1,23946202558983
1,28065579258514
1,21937432573792
1,32204641286301
1,3012679571068
1,22744227139945
1,22498828742589
1,26368688501081
1,30496283449837
1,41421730126257
1,33989970511556
1,35767460253397
1,3200066300048
1,35669188539134
1,28508815273929
1,29088377346461
1,27158350459575
1,2701060985926
1,26862937944763
1,29721502669757
1,28508468380383
1,35056234607412
1,29626285572564
1,36049648750141
1,34487051619312
1,31135603168662
1,28748210490734
1,28045015896401
1,27888987966442
1,35226037230714
1,35777157082425
1,38185985420749
1,27114683869701
1,33054436362723
1,27282169382132
1,24113810818437
1,28082624756525
1,3570377180718
1,29620650908753
1,35835180338123
1,29074600395932
1,31845789409224
1,24288032617416
1,3031198732733
1,25762127429118
1,24123019008909
1,25710101485322
1,31761819357633
1,27202939545696
1,25856850974002
1,31944064052382
1,3263271426222
1,25615291638814
1,31826212875273
1,25465548215106
1,27483293016636
1,2852728563736
1,27495993286339
1,27552258374878
1,35644871074505
1,32490942400481
1,34890955751784
1,22920870529113
1,24179953465893
1,31063325081278
1,27190675731039
1,20906317074663
1,25641569553751
1,28922640679992
1,32590508075687
1,25978836614241
1,19621373655089
1,23230219839093
1,27314325094583
1,25933497959913
1,28505072813183
1,24919742283076
1,23717232905105
1,17715292951376
1,23833584132984
1,2188441005882
1,21830170555593
1,21204293502603
1,19063787048819
1,21042754398601
1,27499063445449
1,27599271718136
1,28132534911903
1,21044592861635
1,23120673439837
1,20037863314303
1,1846425545159
1,1737399048527
1,1622632280305
1,17797686195256
1,21597981160013
1,18347061148123
1,14222919493111
1,15985090359809
1,23761644262723
1,17424029472565
1,18628007640198
1,14699064903105
1,22010043046213
1,21052771095211
1,17020204317769
1,13062632841481
1,12981140931484
1,13401706818723
1,14045061940009
1,14018795116555
1,11109139933075
1,09772542117746
1,14320730966304
1,1469479343541
1,12955050867705
1,08368466560053
1,14124548919159
1,08863733179207
1,07274330687234
1,07126240402599
1,06862357275726
1,0909034938326
1,06315936252715
1,05846903349365
1,06088509060094
1,05524459353339
1,05669266602328
1,01970456888135
1,02073610685713
1,02277619320047
1,04745993142057
1,02909458566967
1,03039753853697
1,00681753710692
1,0142961421551
1,00629452905362
1,0210724987882
1,01210329043777
1,00636302361541
0,975298382729161
0,977912885492045
0,975367130496525
1,01249631229824
0,973412248359868
0,945863830800801
0,966526774537827
0,99322693127566
0,9580745618322
0,942911513820593
0,9313610188697
0,929377981355498
0,911770320792061
0,913743088599418
0,921755620973687
0,903440341811836
0,871679312430359
0,898740980294351
0,883757597009691
0,881640838069559
0,916198758081596
0,890835269410727
0,862252413098973
0,878579945325548
0,869785069096378
0,849651541175309
0,850861510669479
0,859894192035996
0,847827241124588
0,860205116764018
0,826398202892956
0,845002169696404
0,844757256036543
0,832078458715346
0,81963873596546
0,823947463799405
0,80507858557933
0,806882446722323
0,810499866474827
0,800546521405738
0,782314332145792
0,767158862161504
0,766280525278327
0,757680328553057
0,742045175382744
0,762562378985432
0,749866646581459
0,750457483027214
0,739181808315713
0,750192367374663
0,750086549210016
0,730020722115523
0,716608272889265
0,720688691041597
0,719547474766666
0,711614553623937
0,690769085760671
0,690749997604198
0,696808847501151
0,706237035919765
0,700847984614323
0,69716327409845
0,677843134023112
0,674412052292169
0,672448599223775
0,671458365916665
0,653851080925474
0,654352679774079
0,654988906779194
0,644722503433874
0,649893723464732
0,65373655100201
0,635725194404799
0,636005225169762
0,62377753689764
0,614233047716903
0,622511545254645
0,619258399553968
0,604206054115489
0,603215163804384
0,605702536010128
0,609675638410067
0,59163269742058
0,590860407369059
0,593476875220841
0,574003106247095
0,573586691821139
0,58375720934259
0,569077096615949
0,571913668808924
0,561558499358488
0,554872169865065
0,562915905033611
0,54829942680101
0,545297189647499
0,541473678166681
0,536514914714585
0,55215855429006
0,530242808311807
0,525890989717702
0,519905091519114
0,518873229615833
0,508467342798572
0,515083099230276
0,511854870151082
0,501797474439735
0,498933784329247
0,499758291579827
0,49290285738444
0,495456887184448
0,489152909006965
0,486202882502513
0,489677553923217
0,484575875510672
0,475905934020548
0,484010340680221
0,467624436773485
0,457182557018271
0,463114005046983
0,45818994261198
0,452334415976047
0,462579867789762
0,454192056680697
0,449910570730981
0,43624629663705
0,430391378273623
0,438672723386712
0,441134694755997
0,434981321704493
0,427349029349343
0,420467168361855
0,417317258880363
0,415064143644479
0,417921492471096
0,41281062210226
0,406815434354986
0,408033569211436
0,404047620107318
0,392135960087982
0,406262248269055
0,404605342600002
0,39440191792243
0,391128915248042
0,380467554070492
0,382601445266415
0,387311240530371
0,378369301091175
0,37907774951957
0,375693271661854
0,371107687090098
0,365984462171026
0,365721688453282
0,363380718966961
0,36545550424189
0,356969199941757
0,353706679837476
0,357801584277856
0,35664878392744
0,346655389269093
0,344088890262185
0,342841989663258
0,346000642106289
0,338366319458664
0,337537707259922
0,341306569390135
0,336809720628713
0,327695082931573
0,332899107707246
0,318901965691628
0,317165554763564
0,31962567258824
0,324835068637138
0,313865871571154
0,316596016105369
0,314630922819741
0,313029487727097
0,305445519854753
0,307751564444911
0,299243179982974
0,307235476282223
0,297490951952108
0,297028559326184
0,293986261374045
0,290948000800202
0,291844587427516
0,28908363156423
0,288130106559082
0,279920336973299
0,279454649896018
0,285512676821347
0,283142750376244
0,280585803629005
0,273766456751795
0,277468536424372
0,276326869817159
0,272883488257406
0,266306878670055
0,264636414177966
0,268541103326028
0,266350123949922
0,263972825636
0,256550410771858
0,25635432136991
0,255669037878042
0,254002500834206
0,257969844199097
0,250474657100713
0,254423049812619
0,252567883787771
0,246820329843361
0,244812575797261
0,246140573885797
0,248660456321334
0,238633478043291
0,238971710751103
0,239349642527568
0,231980434223416
0,232750134324007
0,231987876959658
0,230242769898651
0,23364735280129
0,232094359551812
0,225069455302571
0,227491595412888
0,225640874609827
0,223976901523445
0,22362202211463
0,222614210061344
0,21959639265651
0,215394950341725
0,217734774392836
0,21527112498134
0,21557767252971
0,218606400092076
0,215099261951788
0,212071770869478
0,21073859885716
0,211412267424484
0,205553357480836
0,209381944488859
0,20961433794618
0,204101903255368
0,204686497416285
0,205455569032227
0,201360140828093
0,203410564444009
0,198041966293187
0,197083393806997
0,200986144804866
0,196313694065673
0,197296300169044
0,195661458049937
0,192026162223758
0,192788542019661
0,188137100582994
0,18909728724056
0,187872566626529
0,192572637853713
0,186066144904392
0,189952503211766
0,185966286221534
0,178775521370593
0,180724279845238
0,182394384938695
0,184229229137114
0,178420009568854
0,175349328744483
0,175194286172737
0,16573253247159
0,166831846803195
0,174186650783947
0,170960362174294
0,165359208373886
0,166178673368418
0,167476134343716
0,165283454671982
0,16626337706618
0,160762370465607
0,1577314342988
0,158763474414648
0,162228269142012
0,161293337635301
0,163418868854548
0,158478913510716
0,156026434618407
0,157126519127904
0,1560229202545
0,155883528878042
0,156640031309383
0,153985690645108
0,148485295682539
0,153730617154344
0,148989583803116
0,150278823562174
0,154349198563045
0,149160631354144
0,144121855812057
0,147935853325068
0,143460897909958
0,145054546601751
0,140864620174231
0,138391247100714
0,142058721712702
0,142603282122012
0,140857516976096
0,138092392247819
0,143857475985579
0,140550794186469
0,136067254048671
0,135138944286253
0,137767190537014
0,138533580503972
0,131566239953969
0,134224126062915
0,131102769453603
0,137072907385383
0,135176572976476
0,129706969302387
0,129887439232683
0,126018076938281
0,125033878857584
0,12626782466503
0,125935820417452
0,12539668129466
0,126957576675531
0,129255643671688
0,1266835690184
0,12605741310139
0,125418197342173
0,123178913198368
0,121487831787142
0,114916407720197
0,117273476538026
0,121910411774786
0,119021987704784
0,12085350795083
0,118714165876073
0,121883677005473
0,118371530109446
0,116257153782474
0,116237215628484
0,113506378963501
0,112037217711569
0,114566540500856
0,110846106898181
0,109572384877472
0,112071409229527
0,111832852603847
0,109019520547213
0,111050972121833
0,109620797908491
0,106493359653017
0,104578312309413
0,103817269437821
0,107150070723139
0,103103260331268
0,0988320025925746
0,102973501413401
0,105559638529211
0,100542672207306
0,10152925484891
0,099489083021607
0,100214792897734
0,100454559074442
0,0982722308128538
0,103708413465672
0,0985451496560475
0,0989634994281294
0,0988648196986994
0,0973844335234794
0,0967611697889706
0,0989810082367886
0,0976109479021548
0,0954051663091557
0,0972475960050074
0,0967339965267087
0,0948469328384005
0,096130560475023
0,0954109566358108
0,0898742923286175
0,0931514538479909
0,0892912597643892
0,0990755099125465
0,0905467369191937
0,0902627118364931
0,0894200784993887
0,090966224515595
0,0907090756193434
0,089141384442027
0,0905688872896101
0,0906885148770519
0,0870539883365478
0,0886093929100895
0,0916673902597674
0,0891568185226803
0,0863713721924699
0,0867859023123156
0,0900355965210062
0,0883482497065527
0,0884434652828096
0,0884390142557092
0,08521300886701
0,0849673438673506
0,0867872641270724
0,086600037707008
0,0833539588754943
0,082609664047678
0,0836416904993114
0,0811113398057309
0,0794044104442405
0,0824919075197802
0,0845193050434858
0,0809822052110269
0,0823071620096358
0,0817982991691155
0,0833244011589954
0,0828964586142016
0,0814455695136158
0,0820588854058083
0,0789372975118626
0,0814832027959429
0,0808953055522945
0,0746744719986627
0,0764560125963163
0,0813503311930822
0,0771117141362781
0,0774925703907219
0,0784185509068326
0,0783899251006833
0,0773548246036786
0,0771664359384039
0,0748171104795726
0,0766020397447859
0,0738296495472017
0,0783463006616065
0,0732587560750493
0,0753368795388663
0,0702671121301248
0,0727944846197258
0,0756939083440942
0,0786052155960773
0,0771625074085455
0,0719866498393433
0,0737573817191868
0,0712475191457177
0,0702221033276654
0,0723714690529469
0,0730579065355485
0,0722721027467689
0,0715410263140988
0,0745585881761459
0,0698767057110575
0,0726267516160034
0,0693043516590113
0,0727361175981327
0,0752625726617402
0,0707039199418653
0,0675706874567005
0,0725859143557345
0,0709610684136246
0,0716896945474238
0,0728476572460365
0,0683823764455607
0,0702912833125299
0,0695269962273127
0,0743928954643272
0,067582538427973
0,0686332784862319
0,0694818207285489
0,0680818605860671
0,0710656240618852
0,0673498429442612
0,0659612551081141
0,0637194455790456
0,0648871442201723
0,0666753711428078
0,0697969382504725
0,0661467245769819
0,0701439271496615
0,0682462498247295
0,0659547537703586
0,0663409556744948
0,0644848519887442
0,0697881360382818
0,0647321910622992
0,0668340559113519
0,0660961055376151
0,0667352962315196
0,0667757742103978
0,0659480205297832
0,0645132398402587
0,0646267716090683
0,06381233552238
0,0659250180752333
0,0671791373982953
0,0644401946960359
0,0628901367634996
0,0648157845817983
0,0661163174550775
0,0646945015823935
0,0641065365022334
0,0626090595876843
0,0644579070478548
0,0637849014597675
0,0665097554675921
0,0615375144556745
0,0630471534185458
0,0626818952783937
0,0608567457560125
0,0599512495595059
0,063317823704591
0,0636683406142475
0,0572979528599184
0,0618715210180368
0,0628333802958834
0,0584492031831874
0,0628363442791768
0,0599446494230568
0,0620415695578728
0,0645999317431277
0,0605628977592439
0,0580081691359161
0,0603262897448133
0,0601378860352592
0,062515385701706
0,0592912775769462
0,0582470044021396
0,0620733336582069
0,0610667663435133
0,0604516700004815
0,0632497764100414
0,0600246158895736
0,063244641211763
0,0610228073726623
0,0603271907918137
0,0593633610803153
0,0614803729514253
0,0586844221694855
0,0625493175505499
0,0598875570989722
0,060691498492769
0,0615515336592409
0,0576651704839952
0,0568883499513533
0,0606170265989561
0,0604313364802346
0,0600680447451132
0,0581493641992726
0,0606092280760825
0,0576266870621079
0,0567303264814195
0,0587232177863027
0,0603942419346882
0,0607226449182702
0,0593520166514538
0,0564518564297701
0,0583108460318758
0,0574031517089697
0,0595361910783987
0,0577207022655801
0,0581737853274787
0,0556753567447521
0,0594010700835321
0,0565246854384837
0,0611436641825509
0,0639650104125727
0,0589765852969553
0,0545132086705007
0,0584434357550609
0,0574295531607696
0,0576041961404256
0,0559469769094575
0,0570504025145277
0,0570130172742032
0,0584978026676687
0,0584464690878963
0,0559625229271973
0,0551268837308355
0,0591585921694378
0,0567243938337169
0,0540337255375413
0,055909947003434
0,054772316396714
0,0568926359079741
0,0581146446168407
0,0571179047733912
0,0562649198938873
0,0595933481546356
0,0556232076006384
0,0552891207304558
0,056323607064798
0,0556303896928173
0,0602608786157132
0,0587234492186573
0,0557437140534023
0,0549842947602826
0,0571219838390752
0,0534403512185088
0,0576576939935342
0,0585445100081761
0,0606505527303366
0,056243824821619
0,0549858365305708
0,0569349198623576
0,0588087758054967
0,0583247353284514
0,0574981110717592
0,0550109671854336
0,0576600345115575
0,0550413416643584
0,0559295916620021
0,0572918312927058
0,0580947369257592
0,0564642154797398
0,0591096347015444
0,0566969879487274
0,0567519992698014
0,0558531130278583
0,0558899016204529
0,0576869188581536
0,0570678851628276
0,053369310684057
0,0594416036183696
0,0554164555245046
0,0571777381549079
0,0565601940619556
0,0576487483702633
0,0568793735031885
0,0573773938142246
0,0560210430524399
0,0564511208371403
0,055184679848081
0,0554034559637421
0,0546520288201346
0,0591018584260584
0,0574910577480682
0,0554497645605335
0,0550680858717679
0,0568774164796359
0,0559518252803299
0,0593977932715338
0,0535891929933505
0,0564188642302507
0,0580156716217043
0,0577249890605482
0,0564513308237898
0,0564415601221994
0,0575679912731395
0,0605979979503104
0,0567814754500508
0,0576249585745302
0,0589137440508931
0,0552425568972414
0,054975106398654
0,0560316954109354
0,0568666475656784
0,0579090493107394
0,0565525342306358
0,0594627407447102
0,0547842834530916
0,0590519381106669
0,0578287040804624
0,0551784945091317
0,0551003913357137
0,0546264695239301
0,0575022758585486
0,0575191775875747
0,0566712711192894
0,0573305256515879
0,0575179981884107
0,0584077431480273
0,0578125192330029
0,0593828499847912
0,0604170708063009
0,0572774525363264
0,0606131077336632
0,0593998091237681
0,0563089390246198
0,0579599849664581
0,0534251039165551
0,0568599722715767
0,0562070838236825
0,0594898428197868
0,0567230132914159
0,0563280839369424
0,061329150991001
0,0605968835359
0,060787679917324
0,0576540910825631
0,0550855968653281
0,0562526783249657
0,0540542073967511
0,0584534908244112
0,0585472142834225
0,0614017959627011
0,0545735595565225
0,0596316859706075
0,0576251210900242
0,0591906630729246
0,0571513051319756
0,0574944373848106
0,0601569895191761
0,0614779599772614
0,0572533222163198
0,0622673609199061
0,060150102429688
0,0609195401288487
0,0594995531406923
0,0613976544140416
0,0590626317261844
0,0599455176641296
0,0557752968912976
0,061207708880709
0,0591440676069842
0,0592407475330609
0,0557003414132126
0,058946068243266
0,0566593328449657
0,0614128493050585
0,0570618670479832
0,0593766840186376
0,0608660881553569
0,0608788129315878
0,0617028216131147
0,0635221136809929
0,0604450628512704
0,0591812679204755
0,0585704849221333
0,0608109305534978
0,0584221415038734
0,062184065428055
0,0614879792821865
0,0586489581467974
0,0620759342137538
0,0639679164107615
0,0610925424597208
0,0608296274340344
0,0581609311373518
0,0603855748033047
0,0597102043726651
0,0612779065562083
0,0613955295130378
0,0600418307266448
0,0623079324123764
0,064913765577161
0,059006248390716
0,0610500482371254
0,0593678808752336
0,060949846282139
0,0628257038880614
0,0611046333986681
0,0621400482079484
0,0623896749059704
0,059859280538178
0,0607774535951125
0,0596186297593163
0,0614437036246061
0,0611043685018684
0,0628939295291743
0,0613055091684818
0,0624977317754854
0,0610872532055823
0,0630065098837336
0,0613929471037679
0,0628288586696671
0,0609679539180876
0,063652766589568
0,0612559930298483
0,0620607167475127
0,0632367050244261
0,0627547746457323
0,0615665818272267
0,0638533743338578
0,0627503701877785
0,0634121594664096
0,0618753753287205
0,0658306283403945
0,0636488691949732
0,0613891693813979
0,0632195136896593
0,0647045895660673
0,0638335487793582
0,0662376825320855
0,0622923712117705
0,0606042428449213
0,0645372572776027
0,0634287773296301
0,0670020582128665
0,064625258378393
0,0655785159632855
0,0690712946768715
0,0646726426566503
0,0663394460156339
0,0644883275115292
0,0641978640649671
0,066475702174044
0,0685300619884671
0,0637713040564361
0,0661079385195235
0,0642677144342934
0,0659675544198478
0,0641342364549
0,0661559332421726
0,0660970128637362
0,067641923324242
0,0661737036030942
0,0677761820430816
0,0660596770592224
0,066917013847509
0,0686548926046501
0,0678277489977439
0,0682363260916022
0,0674143965908092
0,0674152684477605
0,0666863664631993
0,0692689187073313
0,0691798743612907
0,0659569837696601
0,0661298154049019
0,0695453842525101
0,0695285380315478
0,0705653877252366
0,0673325548845963
0,0671411222003103
0,0658743276364404
0,0675798752386196
0,0678736466538557
0,072237791347981
0,0701903346056885
0,0667316658297971
0,0681554459968697
0,0691293348641877
0,0713546485914695
0,0698600787367387
0,0689279235047689
0,0690209169912915
0,0688135297910839
0,0697963736098939
0,0722851461593355
0,0702551058860875
0,0671251834177112
0,0734046523680442
0,0695575970588216
0,0738753877988307
0,0740501128732987
0,0737920125563366
0,0760799165860826
0,0735790995989876
0,0750568934768319
0,0767723472114632
0,0767674558879418
0,0804244319452385
0,0778110565115437
0,0743572522338373
0,0712246119637843
0,0731243676280438
0,0699239399951169
0,0831414085259833
0,0760370210423275
0,0782841538169206
0,0737213187344228
0,0778276504265771
0,0736769789432276
0,0817824079502753
0,0800034562023213
0,0755955556410897
0,0800124580163739
0,0739784213433248
0,0735290046987736
0,0808297678337993
0,068166706126897
0,0798864152434007
0,066500528806184
0,0761733065031909
0,0756675530616742
0,0796237784304154
0,0664755213520508
0,0858964497683008
0,0713539301360082
0,0833256348869775
0,0680828228548098
0,0822649844194668
0,0652180252284243
0,087163106896156
0,0618586802303384
0,0886370636275623
0,0658023889310823
0,0978428212332823
0,0651863325107186
0,0989086530357117
0,063539143853229
0,0947682705465079
0,0540416071966805
0,0929500612867584
0,0576770297581092
0,108425770275405
0,0603979408128934
0,107720307496899
0,0549884788544184
0,100614371543384
0,0593726070854918
0,112562204946719
0,0539731439040022
0,0975359692832919
0,0612694023122068
0,105728205252181
0,0668221207467989
0,0836322989280485
0,0819547875492944
0,0813847439932407
0,0878397873839968
0,0689139909084971
0,0984672935473063
0,0633536802278326
0,105588565058783
0,061773089987014
0,104369770198312
0,0625084543373281
0,0978040816576908
0,0708687711823114
0,0922753513576447
0,0783812304877309
0,0872889756781331
0,0798698518123172
0,0821471947261834
0,0825409962107839
0,0836688076546467
0,0814664671757
0,0871013408893434
0,0770186412434697
0,0889326338658797
0,0783773285324293
0,0898073268465328
0,0773913454882405
0,0896595388763548
0,0807524346267904
0,0858003146091281
0,0819085941996286
0,0860242490266421
0,0823405651794974
0,0871556112935454
0,0825071150315883
0,0885153167333999
0,0829922742959815
0,0878356667026451
0,0819638405561478
0,088772865936648
0,0820970870340608
0,0871099090176803
0,0845696473981483
0,0891194086450022
0,0814959090394026
0,0881862022993901
0,0829020325511129
0,0890779612397647
0,0860432925994147
0,0931726286399772
0,0860688068407912
0,0905284990907986
0,0865449595978493
0,0889016535072056
0,0864519758128014
0,0943215066911759
0,0891298203277849
0,0913312495457694
0,0868935623138656
0,0911766594052836
0,0870366017702112
0,0922333634624524
0,0867362892438203
0,0929795493847287
0,0906158922337473
0,0927776033791489
0,0862443688339555
0,0941831476086796
0,090913498663008
0,0940237958864449
0,088064182638868
0,0955485985502658
0,0918631355020858
0,0942249757062376
0,0899473184979609
0,0944491800227569
0,0896204150907998
0,0954896966410979
0,0902320475472936
0,096547708821997
0,0918583733876264
0,0960588361732733
0,0929285073288604
0,0958701283908669
0,09102319128928
0,0970138635418674
0,0946116349072411
0,0972471301555541
0,094478601515902
0,0971175429139032
0,0930280041683118
0,0996875745557759
0,0947570041374151
0,0988984696800672
0,0942544019603568
0,098816051598843
0,092072517910614
0,0996396470734491
0,0967584962174752
0,100119743832904
0,0983826760551545
0,0997986130960818
0,0946857140238685
0,101923645836802
0,0962401240007344
0,0997807613588981
0,0976481849811112
0,100397346445085
0,0985912696830104
0,102568883678531
0,0980209863580791
0,104082907460464
0,097964006418736
0,101600357811926
0,101516028914892
0,102682574080163
0,100924182815847
0,105600134340629
0,103289649201491
0,104646007746508
0,100372609954978
0,104051015840587
0,101530541079077
0,106764884622813
0,103365767148014
0,105085723184627
0,101290218599211
0,108129286654282
0,103202451461579
0,107534570394625
0,103797276886941
0,105407093500024
0,104264605205674
0,109285883434369
0,104919863438366
0,107927199973365
0,102456511879831
0,108120341984606
0,105948758578802
0,108968778293233
0,106939530123791
0,109703348356456
0,106467830367988
0,107404457241032
0,105368591927686
0,111544103625103
0,105679792607524
0,107729930480143
0,109148566772921
0,109997704405141
0,107635927527394
0,111398108169822
0,109811160647239
0,109508376972066
0,106927339461802
0,108076291623797
0,108762599581307
0,112864249598558
0,108837083740295
0,112999706489452
0,108375173346423
0,112683020526139
0,110032817189685
0,111713070359553
0,109385737978745
0,113141172255228
0,110989025597377
0,111679895191096
0,109613675466043
0,115741353649912
0,110879758721739
0,111838091808982
0,113254998031375
0,112150556701139
0,114482107697772
0,116774823822791
0,11023000130109
0,114737789159398
0,112011243582579
0,115175412001524
0,110858183278508
0,117770220000428
0,113829171848171
0,114380584836008
0,113577295851969
0,116417309077794
0,113168870548117
0,117311139109911
0,115802949756754
0,118505570677709
0,112461071698741
0,116853413015526
0,11338915499388
0,117415487793443
0,115533621050112
0,114848609369162
0,115158904166419
0,118192470723828
0,11688947150534
0,119617080231864
0,113650038342205
0,116181959260212
0,115388841337368
0,117788502945024
0,117767904847326
0,117537762362106
0,115261233025598
0,117368082978213
0,114508113609201
0,117764376344813
0,114273287087864
0,117779444109001
0,116254194082676
0,118525319665314
0,117225923324638
0,11709440213751
0,112556867473416
0,115447688167673
0,115770359626457
0,119748518469208
0,117917462149063
0,118826177776842
0,113927094513943
0,117972424416685
0,115530870162351
0,118274871632667
0,116695673064316
0,117850625988834
0,117001125991257
0,121051162885861
0,114501961142725
0,116893162583307
0,112341441043188
0,117768199818109
0,114192440614724
0,116959223415841
0,116091011294005
0,117783563746792
0,113702492785536
0,115566138318259
0,116002560142632
0,117492065987149
0,114057207948233
0,115479635617024
0,116646120661333
0,118189891521414
0,114453842591085
0,11676322945517
0,115122845432304
0,119198969903834
0,114171866587697
0,114610461207611
0,113501298785317
0,115822480988
0,111746953212933
0,114066088930755
0,111985554502815
0,114471058354464
0,114495519612037
0,117454756742206
0,11045200522543
0,111925321727469
0,112133532795482
0,112436658412132
0,111340230602452
0,115201779433735
0,113571583718009
0,116947043170971
0,112448061142918
0,115470166984994
0,111344361750707
0,113682621256554
0,107809194923224
0,114418179566721
0,112182796654481
0,11308375498562
0,111286688815383
0,111782386496361
0,110583860695515
0,112089365985139
0,110238489284497
0,111632254303539
0,106220808492703
0,112972964196188
0,110183950571193
0,110800034361628
0,108238423316317
0,108970709661688
0,10982423929728
0,11211695558014
0,108333821560585
0,110522388353698
0,107943158559273
0,107765951637784
0,105574670089392
0,105838703259739
0,107387857790169
0,109610242458158
0,105819165212411
0,107891633075938
0,103556007471166
0,107241670795687
0,104149459693435
0,107110990794466
0,106598151782957
0,107392253956846
0,102603644762353
0,104654777168694
0,103288364137121
0,107877807147344
0,102450778732084
0,102995680729206
0,103678254765323
0,103714562451024
0,101454510772937
0,104059188651109
0,100991573248543
0,104071266246181
0,100710088121478
0,104620233620121
0,103183413486442
0,10334263834956
0,0990272606951332
0,104943753303064
0,0992366476003213
0,10139074106255
0,0984874737639728
0,100712115652825
0,100566914957338
0,101086809395578
0,0986511684148454
0,0978569003843474
0,0955738748257441
0,0989818894103778
0,0962216573565616
0,0998122674591232
0,0980655418876191
0,0985995556371152
0,0967183430387406
0,0964847362158071
0,0991161488203168
0,0986153208038988
0,0958337899699338
0,0962352808684451
0,094971293296624
0,0977019917501154
0,0940296120421159
0,0936511895693031
0,0936270438470447
0,0939720952739874
0,0964131821894411
0,0928961490059866
0,0992846247206829
0,0945693381633632
0,0927298048051525
0,0955349060542515
0,0935973971694126
0,093143683514174
0,0916646661311616
0,0927850762407399
0,0879910350379803
0,0929812540764968
0,0914271881362582
0,0905310466862999
0,0904530537430952
0,0900958268227459
0,090194632534714
0,0916177113285434
0,0883359717943839
0,0908661898564108
0,0886958549904594
0,0908800558703993
0,0883339996718575
0,0880780742994217
0,0885431148113476
0,0892722396298409
0,0888078912299524
0,0888414939476051
0,0882492077324677
0,087490665693592
0,0828758408428401
0,0879936980779644
0,086849997902079
0,0884983359301197
0,0840302146226826
0,0866323307608644
0,0845692527578049
0,0868888657192921
0,0838246198961258
0,0861727622627845
0,0834613228479025
0,0858900476412075
0,0827347697491448
0,0868332743140678
0,0810970408007986
0,0836198484803201
0,0797478090544307
0,0842621512466789
0,0821071252595173
0,087250604449727
0,0811634812378959
0,0839789316959329
0,0776539343261689
0,0884181448872995
0,0822565004638866
0,0892964235756682
0,078834862859897
0,0813763548582296
0,0823471114786212
0,0827462777752725
0,0827475912344297
0,0802310283364657
0,0795993469570445
0,08215221214721
0,0794414328096874
0,080091980444104
0,0778844740854559
0,0807313839222359
0,0780017730164467
0,0805050616630809
0,0779290778679831
0,0792844112528775
0,0782502197298381
0,0776792383607924
0,0770812834880303
0,0793463484596885
0,0796447539542335
0,0834336664674263
0,0756526208835936
0,0810875821559792
0,0794195917969378
0,0801025373550797
0,0841717305939072
0,0731296445543803
0,0793907235997162
0,0747300049941136
0,0802874908977084
0,0736735463864588
0,0785754981754982
0,074245952574431
0,0794016250456352
0,0750329772140583
0,0756310828971168
0,077029180107678
0,0746821751161705
0,0753927717115558
0,0742546873786346
0,0767022305532473
0,0745925285866611
0,0745144524770199
0,0750649849405344
0,0741908550133333
0,0742204596093605
0,0750743661378633
0,075823337710421
0,0761203648229613
0,078369023172713
0,0736031658513424
0,0767450677203204
0,0727531256644955
0,077394670690394
0,0761462644589932
0,0787893354062157
0,0760576063513196
0,0742250811140882
0,0752374555469529
0,0703313342336908
0,0749893104949463
0,0710010956347365
0,0756345395041066
0,0740209477314342
0,0749445525671365
0,0712045132481028
0,0749887184983494
0,0708207087502164
0,0755373569851143
0,0719523990882975
0,0731654955660338
0,0734115038755374
0,0749540542957017
0,0735067683200748
0,0735585485266437
0,0770707911231643
0,0786718382058426
0,0830693218304411
0,0725952853890526
0,07694064057409
0,070850954890531
0,0744418161675023
0,0729069047915676
0,0735515402178578
0,0736971821077387
0,0748627388845019
0,0722772192994701
0,0736859784024049
0,0745931419399234
0,0731551508523715
0,0745267426172797
0,0746934931576276
0,0728745164451226
0,070670580557747
0,076065847396167
0,0748173532728001
0,0746324006357167
0,0707622004762297
0,0780070082843293
0,0714732340584956
0,081519251001588
0,0656874377186909
0,0879143160473184
0,0686935998274729
0,089765277033215
0,0697782248957885
0,077708043236937
0,0723379997023564
0,0766735805957929
0,0748433461963221
0,076899176311569
0,073352008653844
0,0753754843773443
0,0739542066003939
0,0777795999715494
0,0745038180705755
0,0748461910462717
0,0779688970926956
0,0810788066837659
0,0794653900620024
0,0820330472368036
0,0712047589792431
0,0827993795969523
0,0771648087788771
0,0845506109675968
0,0787576755428922
0,0735599776426051
0,0825903413657455
0,0761983782332491
0,0774815316309714
0,0753023967101591
0,0814939719525935
0,0804281642550884
0,079941573034149
0,0775653315683348
0,0779288759468398
0,0803537698280769
0,0766345384131236
0,0832481940769334
0,0790564027144362
0,0829155551109964
0,0824301885190083
0,07822958932271
0,081450524649087
0,0800092039587424
0,085683096460147
0,076396506809121
0,0832964748847533
0,0800106584041239
0,0831492736772589
0,0856124924380701
0,0823760215657818
0,0861959057135012
0,0852059187608049
0,0808174291798084
0,0892616819110029
0,0769901258369446
0,0935727910892021
0,0793464594120323
0,0974353087345277
0,0922949895767998
0,0862549728097455
0,0912058258373608
0,0838046903515699
0,0907204076502268
0,0815758041165082
0,0975709733749095
0,0820838751003507
0,0996142831659259
0,0787067471939669
0,0996667548521221
0,077019196688518
0,0979199112813001
0,0889850888411192
0,0964309383205278
0,0865624613892531
0,0969850327406774
0,0867362616087809
0,100486249202621
0,0957883236714382
0,104658743058318
0,10595740648706
0,0940451191250897
0,100620628789431
0,103944485231652
0,0930495002559605
0,106869887772143
0,0914477151584197
0,107074252553135
0,095167418994148
0,108821582853324
0,103691969533447
0,110896424493703
0,110137371533851
0,104765696506033
0,104358963761758
0,117326310303548
0,108865930270517
0,117510635563353
0,104812970555096
0,117749492225475
0,103163909043672
0,129253115555639
0,0998041010532018
0,139551095737561
0,108799185565032
0,132046539323313
0,120755532887708
0,125727984281016
0,123232470695125
0,128399606298503
0,12897533598488
0,129730303077575
0,124155601875804
0,13446417584821
0,131375266445535
0,136574893028843
0,13452710212772
0,128334231275747
0,140073974841604
0,143034196512125
0,156262602603424
0,163042998407419
0,145125446149801
0,145567723419124
0,153892253234724
0,151684847126041
0,158039998421866
0,151431294503584
0,157233573381966
0,156899520791262
0,160145898936171
0,165055488840594
0,160975417390694
0,172643216382294
0,167178800110106
0,17399788469275
0,17697807483329
0,194913267464974
0,194783255534033
0,186172320814261
0,202011808903604
0,17761981404101
0,207592272399297
0,191818274447304
0,205395361961557
0,200842482767129
0,20694488571825
0,21533027828412
0,215055320927358
0,22772206775566
0,225189358853328
0,240489069590858
0,239159027540964
0,239373390963281
0,242996594926873
0,240288510799905
0,294886650918734
0,218842468130768
0,289400811315237
0,243306131418259
0,288990855251398
0,271891942484899
0,293444087929559
0,287707183250648
0,287257784660367
0,292345058906359
0,300411380022747
0,299384312598181
0,313712602911256
0,315647077370016
0,326785590460746
0,321705580557111
0,338734414419329
0,339436344669775
0,396616790355874
0,356773974806882
0,359323665354033
0,36280833941982
0,373732772648641
0,374276262091095
0,38473725588184
0,373138563739357
0,397585528410526
0,408738339721204
0,417281036770889
0,421366153217951
0,405647376483543
0,430603724420581
0,420068554301092
0,455670324154641
0,423642747919011
0,475856573662817
0,446576295604903
0,461536849114955
0,463450580628643
0,468462569249764
0,482364854901913
0,478305813355052
0,503412535122078
0,505261505304812
0,503543103027919
0,507494365183495
0,51788198473221
0,529543479174081
0,53355823944871
0,544415399858522
0,543653478883256
0,60526645680186
0,58051900714832
0,579859144238671
0,558357655234844
0,568030058962711
0,574618986812972
0,579515787606385
0,60531288077501
0,594395944815904
0,613151540045236
0,592116031678641
0,597027353187041
0,60799212122955
0,606951733835501
0,614589590705811
0,605473812350127
0,624694829535623
0,613808103906293
0,639365054318813
0,618111629219346
0,651661404103379
0,6195425125453
0,607051526518859
0,61074353058016
0,601140159912321
0,617833220248722
0,615103451019204
0,617030459550967
0,60227123907859
0,597406536557066
0,578923894125644
0,596188470165804
0,586927940232242
0,599959951826508
0,564975722724316
0,560011271070225
0,564495824579831
0,549256996636732
0,55465275678197
0,548481602416726
0,553655330979792
0,536229347834431
0,510656186381878
0,517144590828263
0,492394424298832
0,490877877691725
0,48718093973031
0,483306707719238
0,479320656202148
0,47888626002401
0,462212709979385
0,463793254925004
0,447387602519534
0,447088550809
0,440899577859422
0,438601944537304
0,425965913846837
0,417483767890918
0,410315281894043
0,407035626282994
0,401023266210716
0,399159797153739
0,393274568804169
0,393393620048377
0,383468182168017
0,382054945405679
0,367800904022006
0,365762462798131
0,362411628605711
0,360700990534106
0,350087830028564
0,34598539277039
0,345062494609708
0,343374336578345
0,337618968215417
0,334877767978691
0,330783937171984
0,331550319282741
0,326605857687456
0,325749226543918
0,319611312484206
0,307315963497177
0,334894937240644
0,31057759274654
0,317614471417462
0,305681180273822
0,295491898111102
0,302778703797167
0,286925397012436
0,306066982464884
0,292360740605994
0,2997827366097
0,286569145973415
0,284693799236843
0,285531176080736
0,289503507165863
0,27732143789299
0,288478825321373
0,261777480908142
0,290137127927503
0,270884593395615
0,29667593353977
0,295521779948855
0,29080595715967
0,267642780566587
0,260245895788578
0,287962176807367
0,261349236997286
0,270052432803602
0,246637654666941
0,263661379876193
0,246009497462553
0,260117088044361
0,256372853599091
0,242601768141462
0,250224555912212
0,255953726458736
0,250371541669185
0,251924815116322
0,258629945384361
0,243980155890048
0,255338794614578
0,249545269818508
0,270686302159867
0,243634416099391
0,239651152501719
0,232623523333948
0,234739912750491
0,249763517477035
0,231411625846274
0,242276500808792
0,233008343811336
0,232911889293136
0,231009856298368
0,234114985199525
0,236985730534538
0,224673976653791
0,246940988861077
0,215445309305192
0,240356630570926
0,21430033461869
0,24640083666749
0,239085567281701
0,243820611190322
0,218014190766939
0,227043945080981
0,243448015133687
0,226135032082352
0,231730299186485
0,217211977942304
0,218955908482104
0,228906992445186
0,214968944963181
0,222607617069478
0,216252340020345
0,226076592023606
0,23960813427155
0,237772644149744
0,248622850687216
0,223338747056533
0,2108134684578
0,210887168413107
0,204270798178633
0,215718023637748
0,201043896993975
0,217949689623759
0,213376891856246
0,20949371885297
0,227244131107202
0,194074735162265
0,214200100560288
0,207718421178143
0,205761366459833
0,206316766165634
0,205870055682015
0,216614691246288
0,213175883293774
0,203058535771967
0,216633640458828
0,201024103986287
0,211668747857621
0,195879839055147
0,206921447277559
0,199055428998567
0,210126322812046
0,201229395818526
0,204144104081731
0,199851823710472
0,200280990609593
0,197988916988989
0,227976748521014
0,191285483149185
0,221294127404447
0,190404767203932
0,231266608892468
0,209718153277906
0,213364150034191
0,207373350428569
0,201714072764405
0,205850771832759
0,202976831656682
0,199227536736845
0,223627254635722
0,199291642512499
0,213389096925712
0,194493160609538
0,210534210103585
0,191686112594398
0,215598232685139
0,204131693238884
0,221142906137055
0,229529142527532
0,207700129163811
0,214080253476637
0,195199137478336
0,208012453601457
0,199256109310665
0,202153287744918
0,202586399924362
0,193653579109547
0,210759684271568
0,201719273763267
0,206266471386851
0,197542329035632
0,201836898319949
0,203253110579004
0,195446915676518
0,20285560646659
0,201920357700007
0,198340177932645
0,203540527253201
0,197849101238693
0,224364205610494
0,199375962448449
0,203691616024761
0,199120145348353
0,196917882616571
0,206250446220589
0,196285383692973
0,203324633065917
0,199757903365465
0,202182819977386
0,206229718052617
0,199436844345919
0,204604526777387
0,191935869841942
0,212361263139583
0,193354217840777
0,205312303955421
0,199892299227514
0,200188288310626
0,23230872567018
0,194683893315882
0,220718015690723
0,193800628297718
0,207943668725091
0,194524471557961
0,204693212601846
0,197362077082316
0,202540927489799
0,194970840565283
0,204031424725211
0,199813984547324
0,200120563257009
0,204007047274521
0,194726652201258
0,205463412276845
0,202640042376633
0,199006954179827
0,200489823694433
0,200679086478067
0,197261717108078
0,201504341939754
0,207723695186682
0,197169948790282
0,207644012960105
0,195034554574946
0,212552584821718
0,205888338840216
0,199175407754133
0,199064810461784
0,197296663962395
0,195173724614108
0,202643637440123
0,19348917395795
0,21034094577477
0,19887299956303
0,208454112486721
0,194450680713579
0,200268653892119
0,199503183618655
0,204222025651007
0,198167591465529
0,203342653632166
0,195819226383894
0,204630542403882
0,198350686785211
0,202041067333589
0,199409632328366
0,20240071743994
0,21082834429895
0,206386412916317
0,19844412464447
0,204330199246834
0,195202654716875
0,203864680949898
0,19853716410874
0,203010776229027
0,193216766635609
0,203971843654855
0,190275690572905
0,212720694875482
0,197491441525626
0,202746265908392
0,202197949839513
0,195950930684318
0,198897600597836
0,196285251792264
0,197970783348219
0,196946561203667
0,193956382434596
0,193709968210937
0,196925590162322
0,197370181906023
0,195027626007078
0,195849668604334
0,192876752164652
0,195175809468275
0,195655405485332
0,198026320886824
0,194829321452572
0,196257431540698
0,194638885226184
0,196647259483616
0,195493609972795
0,198865248195364
0,204759660563614
0,200597315515353
0,203318556606432
0,191810262560603
0,201694829456954
0,191426947967032
0,194948102814276
0,194790096286766
0,193667188266828
0,192726885938094
0,194307652044786
0,191875732519006
0,194560139641302
0,196171581546381
0,191380566161215
0,192966111578924
0,196051308067023
0,194320898537251
0,192970382876938
0,190792793116236
0,195595887697658
0,196620714851759
0,190739313676405
0,195721836249803
0,192166683636468
0,196201793574662
0,194615079166768
0,196450574017107
0,191965895317593
0,194864351445061
0,196275517698351
0,194600626231254
0,19266877675383
0,193544880570194
0,195032168780437
0,196499519611793
0,192150951455878
0,192320767659959
0,192568108474279
0,193827172703496
0,193605881087699
0,191804093459585
0,191880798364769
0,193009574961105
0,190112454787339
0,190788208759474
0,191546967005521
0,191944211504197
0,192577417092076
0,193545158082203
0,193220527393363
0,191792047341912
0,189583849298919
0,19134636523616
0,189522979868869
0,192975706010747
0,191143209453505
0,19184947980538
0,191637308217195
0,190499567973606
0,191456417925967
0,190247395574718
0,191787307328
0,191288040392654
0,191746175400005
0,189593564619726
0,190726140063628
0,190654894902025
0,187669231475902
0,193249890424344
0,189757678861048
0,192658712387551
0,189199432228884
0,192209166611571
0,188657618099447
0,192775170908772
0,192157215902039
0,194118472823153
0,18924571426751
0,190764580915112
0,190281465282012
0,191414945856401
0,190945163779189
0,190014794380253
0,191419168403187
0,190923979759342
0,191465412889467
0,194570840761603
0,193484055331485
0,193952321771939
0,19092683800932
0,190040532671781
0,190922597316825
0,192584520581974
0,193467541609775
0,192379836691042
0,190143618760546
0,191973241884084
0,189522209540692
0,191588235954407
0,189736730585743
0,189571015519217
0,190392170129109
0,191068044811566
0,192166587952896
0,191420560352193
0,188872615178491
0,190305600811165
0,191250304913652
0,190617661776724
0,186843073674852
0,189922686870946
0,189099798936873
0,190094744012539
0,188915142881687
0,191226600890401
0,188415018986615
0,190857434618127
0,189006477269603
0,190690222177701
0,190301025937246
0,188309447070839
0,189380797932877
0,190192487533609
0,191380348319331
0,190744237468783
0,187999222676362
0,189586431870447
0,188620725981794
0,188607691641879
0,187713801798129
0,18786800615628
0,188131738608321
0,188345397307845
0,186240177008701
0,187404358763595
0,185804243281058
0,187124850098466
0,185738141038595
0,187716564689518
0,185529254393117
0,186445253212239
0,185444659809052
0,184657031177494
0,186257996229381
0,186261721460402
0,186997684228213
0,185535127054375
0,187327146702877
0,184964921474819
0,184815739375474
0,185910299014325
0,186766471982293
0,187700746885377
0,183468017125233
0,185751533198763
0,184722888952581
0,184772806089939
0,184210094651595
0,184454804053011
0,185314179052148
0,184416404163818
0,184259566805134
0,183892404002721
0,183067712480899
0,182683193928207
0,18307069712345
0,184822501063899
0,183736276031074
0,184526232126887
0,185359461160916
0,185004357909401
0,184555555033907
0,186363150332224
0,18693921108953
0,186374800425162
0,184589677125908
0,186751117301559
0,188075735794353
0,188949482650455
0,188541387948049
0,189867111233307
0,190334388177725
0,189743995733699
0,191789798226055
0,193747194185233
0,194406034446226
0,1949326617928
0,196124862015397
0,196190527954291
0,197350777135672
0,199591763161347
0,199412657656636
0,203753341363823
0,202520526206564
0,201849183847594
0,201304176878122
0,203385558096777
0,203168053088038
0,202899634811138
0,202046472988026
0,202670393291572
0,200991017869136
0,20102919313648
0,201665651834294
0,201695897286877
0,200299017500288
0,199848063208258
0,199959271408532
0,198789888785236
0,199487278095503
0,198709421247253
0,201064374878213
0,202186860923633
0,201188345075933
0,19996231000566
0,200874976803412
0,199478045501999
0,199359007336302
0,199669007465561
0,199975796977459
0,200716279121425
0,20087651871827
0,202463720125648
0,203972523609111
0,202911185668341
0,201545388632999
0,206535264924357
0,206419142580171
0,206272997931653
0,208441233492484
0,209695335532551
0,209537550931208
0,211585992012882
0,21214044917784
0,212883431977448
0,211874478714641
0,214960417792956
0,214393736726364
0,211662893226251
0,210882798204736
0,212805954956012
0,211939645543048
0,213719701873051
0,20890499401643
0,213249085015963
0,21184320988027
0,20990067829168
0,210494440336063
0,210215445127517
0,210619400044858
0,209046513342421
0,208624775327831
0,210463076659433
0,213947184706184
0,212086627928139
0,211434411361818
0,215689922557048
0,217525729000113
0,217385880789061
0,217394548269209
0,217986271120076
0,220785141087043
0,223180126495534
0,220145346787357
0,222999315412518
0,223152274679562
0,224199929498213
0,224274532359136
0,22747034586818
0,227163897754387
0,229882947243084
0,229230331066921
0,230579401823724
0,232796263361237
0,23630250208796
0,237692931039648
0,237038619116239
0,238827263697544
0,240744784824279
0,24448186176131
0,244701172822815
0,242035217089252
0,243607361181914
0,244817974555068
0,248256661553955
0,247992638867273
0,24807477342829
0,247474941573189
0,244881282798969
0,244884450671542
0,244230853355793
0,243770324613957
0,240026111188755
0,242078609187717
0,2372175791965
0,233673454708028
0,237687650020555
0,232108545041062
0,234096556124921
0,235216012087223
0,235454347405357
0,234509980675574
0,236615022540701
0,234283967841143
0,235141739425239
0,234192464120654
0,237712729671526
0,235763386475857
0,239578433823198
0,239274298364879
0,241131828463792
0,241987108638794
0,244637243508694
0,241546202707516
0,241936821956429
0,244222017907992
0,244620526351904
0,242188501112222
0,244272596033591
0,246283568721809
0,245625162057649
0,24648902696808
0,247427540290159
0,245248118768359
0,246319883926359
0,246018335672701
0,246633442739046
0,244028266699421
0,244875984871608
0,24746526951174
0,243939449348451
0,245742620116959
0,245630481620319
0,243456525131782
0,244718320043269
0,239760076594142
0,2401711515809
0,243673994644454
0,241985825709591
0,241487045895561
0,241502337776753
0,238157600352701
0,237144805793215
0,238583538078517
0,237885003487924
0,236746396370437
0,230671800985471
0,2323462326579
0,231620561070362
0,226256179261468
0,226118076679896
0,224893413617636
0,224227198191217
0,224228365242487
0,222107828726106
0,220411953049541
0,223104832300249
0,218324547395796
0,216789898144179
0,220012088969202
0,222786651872224
0,218361369051752
0,222190814152106
0,225470059022927
0,224311317121733
0,228675973215127
0,22762677503761
0,224829248914431
0,226415243557634
0,227140369438394
0,225848789409988
0,227096393643769
0,228210266336507
0,225648230554976
0,227400895142994
0,227066118767905
0,22492300080183
0,226320384607688
0,227730613983549
0,226859624540785
0,230743194023823
0,227193259815572
0,226428144717632
0,224888851211962
0,226284802628131
0,227051546743431
0,227517670013013
0,226154396920249
0,226647609549412
0,229189358845976
0,228775919557729
0,229239110017346
0,228001317672935
0,230644514450258
0,229060838783328
0,229752372386628
0,231218227687563
0,231483439443872
0,233059102389119
0,228372174527579
0,233126799127648
0,236730633847681
0,23438893581294
0,238403678265408
0,235446663888309
0,232709419232031
0,234880952954148
0,23782308859877
0,239606011494191
0,239592456865294
0,242962485565253
0,243202065855668
0,243967545566017
0,242157876899227
0,246571067366632
0,244864473970283
0,244263776570908
0,245536475843323
0,249770852588233
0,252815576375465
0,253355510626886
0,253860459461614
0,256683764435696
0,255044529938566
0,256046477456587
0,255109259465753
0,256340638892887
0,25935635920036
0,262677442877495
0,262480554516183
0,259403019403422
0,266473470984118
0,270203439670322
0,267689987815349
0,269438379493007
0,269952882189759
0,270468783927931
0,276835954230773
0,275214440323062
0,27571656101648
0,279107330134643
0,281675423767477
0,284632094450831
0,281868136540184
0,280013677712036
0,283052472379013
0,288393200957705
0,286080361130839
0,290408526490764
0,294741283007129
0,296163732543848
0,297163945410694
0,300029360089829
0,302663426735119
0,301338517186823
0,304560665619603
0,309358690496531
0,311350067495389
0,307697099094526
0,310363771395903
0,313538390147035
0,31341471284265
0,314539666159993
0,321787415901137
0,330120116715276
0,327789503816247
0,325284682550729
0,330939619266521
0,328852826912947
0,327647665935057
0,331810154541063
0,336651355544952
0,338208692732649
0,340419437104994
0,343620035615263
0,34990540321335
0,353595219431404
0,352354451036132
0,354800467323242
0,354094987771041
0,35462103603248
0,361412031993382
0,362814173089385
0,360494250574014
0,364851911629642
0,370497763194721
0,372266869428505
0,372721824773127
0,379037036362475
0,377864546741735
0,385428947944042
0,382422460822533
0,384141852656483
0,393506264639678
0,387612330595206
0,394034713725558
0,38921815975264
0,398136236516288
0,406054734591422
0,401478213551369
0,410544988752751
0,410114234371059
0,410744568376314
0,421076422738377
0,411599777281926
0,419061294509447
0,42122507219041
0,42625847040487
0,43463037856065
0,435155712399929
0,436894212267767
0,447404194109124
0,438606913374334
0,446116855784655
0,440990370118162
0,44619008239382
0,455414900315833
0,457708343240244
0,456282999272153
0,46418770411358
0,478980896935405
0,474904352138244
0,46956657585978
0,475220332407799
0,473542053145968
0,486904088379891
0,494028538277096
0,497103852909475
0,48987725545743
0,486736032973003
0,485968017150649
0,499430324861682
0,50075069612633
0,508859979587905
0,509886656184639
0,518950057600187
0,519274508767321
0,524345163877664
0,52393214498884
0,53064531200512
0,527541894206295
0,549406060106514
0,527836891709935
0,540120859246448
0,548053850283532
0,552398430331045
0,548953075898526
0,547058844013076
0,543240354389662
0,552490691248992
0,558581632311162
0,572497211119594
0,579974536848369
0,572887175807296
0,565839087207528
0,590263352594876
0,574270916569585
0,585605786140095
0,583085679050517
0,589804271905072
0,589786072211999
0,609178477948156
0,592532206538776
0,599048750273527
0,612745894987157
0,613836527640912
0,618814847567494
0,623888235100557
0,618124719539119
0,616896927438453
0,610906295547277
0,637137001077176
0,64744796533083
0,654713721734262
0,632501353340824
0,673035392267407
0,656016175776481
0,638223701170996
0,64702684101693
0,657456285893833
0,638247859348033
0,663264703826985
0,653424815209297
0,69570765516965
0,675368752855585
0,689303707035081
0,708317423963554
0,689553866782363
0,674126469893153
0,684164135235181
0,67720433004201
0,716731289358357
0,691235764910832
0,722344395277218
0,688237901779505
0,718544745998025
0,725380271380675
0,701889338603975
0,713982167398379
0,705246102954774
0,721073842855939
0,741890210242696
0,750047027738193
0,785197920920073
0,729545643826036
0,742604607251835
0,749800917448807
0,770790035216052
0,75968975776495
0,767862918957637
0,776199064634811
0,771106220487592
0,749524537090705
0,762787658616129
0,782482054898765
0,775425961618989
0,765384853091461
0,773510129535963
0,771393618093205
0,822388991727306
0,810604845043485
0,837439127913474
0,804630146328302
0,850923903351901
0,806440746854062
0,795845035704644
0,775965452290894
0,821295096254967
0,8246535798196
0,864663966704882
0,847135786719811
0,869157676415373
0,827762918781314
0,837653581136013
0,851118414292409
0,825357664533714
0,827805887507332
0,935370268740059
0,930012239613781
0,882671449803537
0,881265963582583
0,936158577525275
0,904551741006933
0,869545278028477
0,874407701090409
0,935752240207432
0,901116348775594
0,881330562155042
0,864842558433026
0,89293800688251
0,906609429535821
0,948508742599276
0,898288108196391
0,957296806111639
0,871395667711105
0,87843198791957
0,850755539923117
0,899061951228404
0,91775821612091
0,910190870021839
0,949778734087364
0,992352856742619
0,834816131424662
0,906986262213989
1,09983135348701
1,03373954306817
1,00122303060219
0,967661020800219
0,890478206537851
0,927303152798218
0,895063858135332
1,03544476002667
1,03890199791466
1,01058059085577
0,951340598567431
1,0387849376985
1,07561640534715
1,0043967684851
0,992805116180878
1,16510908374341
1,15923867635628
1,00988995505693
0,986020014126435
0,961668144232531
1,10446124315795
1,13891076119915
1,07186613110241
1,01489812386413
0,957128472445434
0,894653444621282
0,84143467371848
0,884771338627165
0,901404082148293
0,968579884065988
0,987059936651322
0,991573455128836
0,9576885340997
1,03266123910476
1,05782620946764
0,955516261312886
0,926159738206722
1,11222200566601
1,14166147920465
1,21472419168506
1,15059899466463
1,150119158996
0,975251264761617
1,46159747265606
1,19097827347802
1,05156076247453
1,14229261014783
1,15067186661923
0,980227716485731
1,126869634637
5
1,0035078157676
0,945210193980682
2,32062307393855
5
1,36156971898114
1,08212214589915
2,69063461155196
1,04702160087811
1,20872020286645
0,958548613173527
1,1778351271309
1,00505729723262
0,813874029383579
1,16621292712872
0,685088175551964
0,697728791823427
0,999552502305155
0,551225458361272
0,820782079052508
0,908322211975951
0,988867482244552
1,13304655046543
1,74783249447624
1,67811861644126
1,03360109084017
1,05897781578492
