3596
4000,36533379555
650,420452594757
1
2
2
0,0237106070286881
0,0314334024001554
0,023981821606174
0,0365375233361588
0,0273116024564418
0,0272385754403899
0,025287096953142
0,0298707421617034
0,0210625447950113
0,0290323085257851
0,0219962339123951
0,03214745131004
0,0199631276844453
0,0223722042936962
0,0214590936645615
0,0311216619974521
0,0240282778858144
0,0352671773351686
0,0258648968723463
0,0306666710207655
0,0246171003202308
0,0265548208561716
0,0291300256523565
0,0304330466094692
0,0239262652556365
0,0263141434131236
0,0234172031749956
0,0367561055522754
0,0320684951137809
0,0210451003354865
0,0295491443029208
0,034850521296445
0,0287216826059646
0,0328664442054331
0,0274646039733159
0,0286676097325475
0,0170710900010938
0,0307303049856604
0,025010969532293
0,0350952252624419
0,023513392147065
0,0356947396409466
0,028807944712993
0,0341413447828691
0,030550093070301
0,0253564001962547
0,019370271537231
0,0308367750993887
0,0263893697085744
0,0290907164338148
0,026429953386821
0,0420806040269795
0,0371689362629124
0,0286068602504294
0,0311444854626611
0,0310543426136189
0,0209973320538705
0,0287984520512121
0,0279669245080153
0,0422942503883541
0,0316730960154155
0,0230878800873933
0,0354100749635814
0,0257996708787686
0,0216422352674953
0,0285696979215597
0,0238280438809875
0,0283265988703353
0,028719020655987
0,0395207505871111
0,0333369438153611
0,0464552802592747
0,0195962827858721
0,0284137133578159
0,0271071553904696
0,0308123703015126
0,0267975193821176
0,0259233757414831
0,027215107171825
0,0407163488097995
0,0277010657766307
0,0292635220887658
0,0233893434404045
0,0309137329348377
0,0305202768128296
0,0338290281140845
0,015288377588131
0,0533653174413858
0,0229000460161807
0,0307651945040124
0,0248463472092495
0,028157522293638
0,0254370653706938
0,0306868437195443
0,0239912515520103
0,0398959962308265
0,0220969779032875
0,0354375443643132
0,0144385474088982
0,0520994873202331
0,0235050567194325
0,0695652673999822
0,00837101850693884
0,036481644425564
0,0432281622961535
0,0166872166554123
0,0539286271487477
0,0239021429026727
0,0246382224600438
0,0343649542328412
0,0223089024653405
0,0277079007304453
0,0265243703864726
0,039723288999967
0,0246438588119551
0,0467659074298302
0,0176170954819863
0,0259666355991778
0,0200574966258618
0,036848307429647
0,0264544434564466
0,0625474698710678
0,0205659955005506
0,0449861658946732
0,0140377811905471
0,03113924855665
0,0228762764547144
0,0490015992761051
0,00995106546523358
0,037769318897599
0,0177814257675886
0,0336564805470108
0,0156860611440129
0,0523437380417692
0,0297030177655835
0,0353862268434562
0,0347467636854637
0,0416284677485006
0,0421557746690189
0,0415686243264527
0,0173907150192607
0,0365751484428711
0,0196461815247747
0,0480538773937233
0,0193053728749499
0,0376203309333418
0,030427177190326
0,0302648465750855
0,0167476593792129
0,0326366605900042
0,0259238941102472
0,0435313811208859
0,0261250472829795
0,0359200302261637
0,0225329662856788
0,101646005142095
-0,00506256217149161
0,0792807660530836
0,0256235171032225
0,0364330369783883
0,0330319569789779
0,0304645751149992
0,0287637185797456
0,0295614285405987
0,0316339029262988
0,0344662843766037
0,0358305159492718
0,0274680195175186
0,0337608516568259
0,0405372698524359
0,0312315231448777
0,0284313874024025
0,0391327112735456
0,0483099342773475
0,0120600908306142
0,0556932730220887
0,025371983173746
0,0395648689994657
0,0251460935125099
0,0483990096052388
0,0144360705192057
0,0349705418915894
0,0257635998942579
0,0388093099299466
0,0277922184931487
0,0426142854786801
0,0227156594567164
0,0414976613324113
0,0173175678470341
0,0408785753960954
0,0378896358965626
0,0515959667017952
0,0261479908985578
0,0389014313326808
0,0243414819931525
0,041215947235555
0,0458008504480731
0,0262979172339982
0,0289079085193367
0,0388765592288299
0,0307552722324951
0,0361544249700397
0,0172466671379676
0,0371715516040992
0,0239403877657699
0,053801172250547
0,0482655301428576
0,0191610540487236
0,0289952088447603
0,0419057464002477
0,0293392475199631
0,037822082772994
0,0565170940916775
0,0232217936226758
0,0393674950132755
0,0326514239087589
0,0331272542239299
0,0417995933412162
0,0253560309920758
0,0393926507508278
0,0297570003317981
0,0318785957478877
0,0267391136469762
0,0330572518010839
0,0355872998766984
0,0438136797100772
0,033275846496957
0,0348734796334912
0,0322788473196443
0,0470781151279613
0,0398077913151387
0,0388605517925672
0,0362901423570597
0,0437864224193089
0,0287633668436227
0,0550144257737985
0,0244422156372415
0,0410220481192191
0,0328726786084258
0,0424215839376094
0,0322351907417099
0,0412546438238226
0,0328824870409345
0,0436455253323966
0,031300378371177
0,0514644475763792
0,0329480998194483
0,0283279158713719
0,0390734487824475
0,0362698814150707
0,0595872432179181
0,0365980904655503
0,0388390004324865
0,0432209412765467
0,0363462056288008
0,0368664918415432
0,0574872709747435
0,0554224812915737
0,0321811105223155
0,043420501609466
0,0464871368395017
0,0418230397845111
0,0489113665428517
0,0498459860562455
0,0525981092005885
0,0638187993892852
0,0185753087724737
0,0619110026129411
0,0371325108173722
0,0408981077446847
0,0477576045726184
0,0399156290013073
0,0557464468226401
0,107980914395354
0,0399328526012601
0,0390918987998289
0,0390574339693497
0,0524162739738872
0,0389444948899211
0,0627832377517985
0,0400062091355672
0,0693067891856179
0,0448427413174843
0,0558262477535979
0,0443819942613091
0,0432529189347526
0,0772931233602721
0,0376855361525617
0,0515039606880186
0,0423663344911361
0,058612472769554
0,053681769348575
0,0625711849682878
0,0460345422527275
0,0578411244431835
0,0515314143480227
0,0681982911215329
0,0701997361719465
0,0519039912185436
0,0601340061530905
0,0637457866873861
0,0630601827247028
0,0517957457155119
0,0655246124953677
0,057816521897544
0,07928268673499
0,0585806666850238
0,0840225493763282
0,0710605577916528
0,0589983196078887
0,0777341913657732
0,0785144269721604
0,0636233363638052
0,0763921724139302
0,058274174103196
0,070459611711231
0,066855338232295
0,0718747485983211
0,065367833104239
0,0980097167095814
0,0698718179337958
0,0946879319977475
0,0654138667031668
0,0834952846852376
0,081472853554223
0,0924319145833974
0,086657310141122
0,0986697286468441
0,0961531062265161
0,102163901370531
0,10985561886296
0,114954936823114
0,0892171976213342
0,148408053564816
0,0916102906256129
0,109105140971055
0,102836361768565
0,113985213881358
0,114748262162694
0,122077318618335
0,116876449665697
0,124575966890164
0,132544426743674
0,145749763185313
0,131559599088078
0,158031384118693
0,156109524250028
0,180336966404593
0,152149672703986
0,144876893856588
0,148149467699483
0,173444999403808
0,19395940617676
0,158007999003911
0,18338821980394
0,187907844181176
0,167368715646936
0,197060545196449
0,176800915293014
0,195786492567897
0,187909728403363
0,216925252693575
0,19347861388239
0,217212681336518
0,210548242946821
0,224902779076303
0,210997818925483
0,254634140960571
0,231399404241753
0,240319174726338
0,230343227395126
0,250361911063937
0,240001672533077
0,291453196273932
0,233121059708814
0,321103610050047
0,254157345434406
0,307701630380582
0,262862834744885
0,277265998191928
0,267437145361179
0,281402785924664
0,287339469763217
0,297941248408371
0,296847017607638
0,302953461962951
0,292757639360031
0,331993285236336
0,310613491548957
0,32080295558814
0,304972486638571
0,327553582144912
0,33535222182948
0,32389282202653
0,330406574205996
0,359231749113419
0,375140518030061
0,398489456228507
0,333779459743435
0,359660554783215
0,351068280029441
0,354656625953726
0,355991661669881
0,365325626180334
0,371852619657794
0,389046918749071
0,374611947746328
0,428140474713273
0,375539877113929
0,425056316397448
0,381888463139727
0,405340418538099
0,393737035525518
0,406873201521861
0,407919698735388
0,425234040585011
0,38895959345504
0,411816618004169
0,445024285641703
0,413954180606909
0,427203706397535
0,460997558961297
0,404301950284742
0,443039908561166
0,420521245052015
0,474817258629679
0,43110168212238
0,46871065292709
0,433261327215504
0,471012674048469
0,44542303504207
0,483946979319471
0,441004744022413
0,497549635548588
0,454207116220846
0,504459243069416
0,469629229547772
0,472685528514288
0,485378355450956
0,492123762126728
0,512541113566581
0,540605582284104
0,476759094182441
0,523413598947064
0,479010104251456
0,517302196821712
0,495264735306293
0,534937336898737
0,518747399979721
0,538865382084255
0,512781247693558
0,571701087600216
0,506423355363719
0,561473402693179
0,532150614910719
0,566856191481865
0,524399762938
0,563582207316665
0,550804174138103
0,573507307309234
0,564724025516143
0,599759794847063
0,590020353318237
0,613969024877909
0,592235530745409
0,644683511152711
0,547983749994135
0,596209517920185
0,542998241851242
0,619669088136943
0,592636737278792
0,636074182415148
0,583664285042954
0,634027487661348
0,601258542284069
0,636295040856815
0,589157049308832
0,640693935006027
0,620556934323902
0,678621269111935
0,614222338178792
0,665255686010466
0,584827040322398
0,672325029337661
0,636466869197332
0,719814704158173
0,622238763457155
0,703879018689211
0,627947032629966
0,701322832504951
0,64589456188769
0,714632784586359
0,678428691073849
0,758284897581253
0,697046704860256
0,735803701097566
0,694047741202394
0,778011814874879
0,652516018682733
0,763211831374613
0,686064808395168
0,755258472808161
0,691647687573484
0,804394029966821
0,712167481037178
0,721960671170183
0,723128856981431
0,794215687710297
0,707783077126886
0,827874801963253
0,743084025542992
0,811218762174953
0,722950240589405
0,814716888365026
0,739126711355583
0,84172172914265
0,768709922328204
0,816897917368794
0,76917802249342
0,869755929764146
0,752597969669386
0,84903141849983
0,839995194224695
0,854644439555355
0,848682810872006
0,838500370990071
0,780644461805356
0,889105069426763
0,828084579265212
0,88379214059502
0,7921091702355
0,850139703778462
0,767140881056766
0,919048172498367
0,808077665850752
0,889325320949
0,83815861296321
0,916349900165227
0,882139541460578
0,898030453090949
0,868406782028981
0,919111907588958
0,807179616293786
0,9420642472587
0,842260356984274
0,912871485576438
0,856789177367882
0,950348896941215
0,944833114686981
0,950991147472419
0,888934048868567
0,975072065220957
0,902119643480932
0,979827797235088
0,946050599512601
0,96544557545689
0,885203246677652
1,00626685737998
0,946798959410068
1,02930043119381
0,961733837020818
1,02523401332898
0,965708171720454
0,9870949511746
0,890615075936889
0,998689091013835
0,941689258343022
1,01138240683032
1,01392669393345
0,974112166579914
1,00663102590119
0,982233274584211
1,01327416843775
1,02496500240939
0,966779169143503
1,09211438977377
1,02461645730511
1,05874544387628
1,00238204777256
1,1253687886902
1,07299016059935
1,10147396461203
0,967070146154646
1,07462465147612
1,11687384046846
1,07057094145791
1,02556604817586
1,14913312118424
1,04674677585422
1,16999488233568
1,04648922790918
1,06323460643839
1,05495687723098
1,13269819996958
1,06429941879308
1,23567243091336
1,04037220467938
1,09682968047853
1,10236403716077
1,14399447713692
1,05868540007374
1,16080622640653
1,12637575918932
1,12317853717062
1,10849933244096
1,12077931966629
1,22069643941821
1,26951179133719
1,10074003350713
1,23384987113086
1,1370944670888
1,3958971628079
1,0862809084868
1,21646659261062
1,20861081214024
1,24271720894607
1,21274307392919
1,22482708622177
1,16239901895238
1,35100664052663
1,25253506374243
1,24354305220771
1,25400634583859
1,26779319526377
1,21756922000096
1,39185593866407
1,22592457435839
1,34954000812553
1,21617765642661
1,31396946936187
1,26174599339
1,48600024559054
1,27747977381484
1,37001551826087
1,13772411244943
1,3097324780963
1,2916427526831
1,49501031604493
1,24444895340126
1,3799390993608
1,16445918589597
1,34409774644929
1,31565161297754
1,33146485139193
1,26733684561678
1,37955651743286
1,23667223685437
1,4383685079336
1,23934743864649
1,43405224652413
1,33321806130135
1,44720858411309
1,31813138785348
1,43035626438679
1,31911809211594
1,40533339042725
1,33165347608278
1,52621424871751
1,35910185142266
1,47878069829937
1,35521418328692
1,34712685841996
1,37449977298143
1,44639686523383
1,26797814060862
1,4538684162242
1,29541984231764
1,36800923999064
1,43363486170195
1,4052917727565
1,35657242234597
1,37318123739797
1,30132281672607
1,44043481639184
1,31644678378739
1,59395742460533
1,43483344573367
1,54966085354101
1,36341928379981
1,38440455276295
1,42457879509835
1,4439376560498
1,37222713581333
1,52494298513863
1,35670946936365
1,52982718032661
1,40714784295273
1,44023753804456
1,32996900802309
1,45216823654627
1,38464160641525
1,50380913582624
1,28119638216371
1,50187062898342
1,44085231968686
1,35132162184449
1,37414622105421
1,45870642770454
1,37985270467225
1,64010619001136
1,32616484354911
1,62366407399171
1,4745640705514
1,3915282710698
1,31183992624722
1,4013429320574
1,32329957023566
1,4270621623732
1,3358659515018
1,28621330021102
1,3972579341824
1,32448390252772
1,31903616351336
1,50956416564049
1,40739855324415
1,47011394015645
1,34143254366351
1,40655781646522
1,44421495854937
1,49890456521186
1,36297143514576
1,32954894860955
1,2725394225712
1,41072842378752
1,51569773242379
1,58877386248552
1,39036427978894
1,45166378220471
1,39585380649817
1,47434946210221
1,34006011939232
1,39281142218611
1,40604230975372
1,45834745426664
1,34179305525349
1,46285211691774
1,41178491478828
1,43926973313242
1,44501858858176
1,39578942781894
1,33175024467525
1,41555406500566
1,34944424689567
1,36781821045913
1,28341022333803
1,41075438870964
1,34809126955758
1,41003704592445
1,37161536210414
1,31079100430054
1,36632941420638
1,43454901060263
1,3923512100143
1,41649937404895
1,4045487928146
1,41513600312171
1,3745315911206
1,3913485104492
1,40241629317386
1,37445105795481
1,46698088324753
1,35993505157419
1,32041923708355
1,45900510397031
1,33919948235394
1,4072429349791
1,35072832773046
1,48439993176387
1,41177494721659
1,54167716877884
1,39136709623489
1,39839879304387
1,41152026395855
1,49602498809541
1,3731583659176
1,4918808976413
1,44633170235879
1,49303332328196
1,30050563541175
1,33388555289607
1,39980267497503
1,34720785468976
1,40720637879323
1,44740010305955
1,39181328265197
1,49094579284269
1,34612324545168
1,37336743237651
1,3579751835247
1,4162420583827
1,35224227564365
1,32660476073518
1,37371876719794
1,40595977219604
1,37457005555607
1,40083981650634
1,3318685560678
1,41634898588669
1,42324081794538
1,41409345738538
1,3360675945884
1,39268004539168
1,34830647364553
1,45853796127808
1,34266581592257
1,33648205381474
1,36611299176012
1,35140010028679
1,36297275497886
1,48856893008782
1,31459075924365
1,35202788893678
1,30478975826611
1,48725212556379
1,39605911344012
1,45169624370405
1,38741062557622
1,45250329240659
1,32510029744655
1,41240807708201
1,34576318987555
1,36041732176221
1,3923717136262
1,39813139184633
1,32933817541867
1,37871141123738
1,37958284947409
1,45054568055389
1,40028996701435
1,40704719271152
1,2891263332833
1,28745372015077
1,31755451041271
1,34155045923132
1,2573854817195
1,35502549442462
1,30507624239427
1,38688436397945
1,3191355311344
1,27398666566684
1,29373701597601
1,36025757897418
1,27814291429569
1,29081703730435
1,3384370712747
1,38385214364127
1,28278956114309
1,23970775337267
1,23293983503185
1,32934754896842
1,26510368228465
1,33546872557704
1,31412635765007
1,33951602765409
1,25144565036042
1,30524642314592
1,29890102414365
1,38002542952137
1,36432713693696
1,27790687398373
1,23669290923255
1,22204197033151
1,22777466817704
1,2480752520748
1,24441245605715
1,27169704999276
1,26517602365098
1,20972696158139
1,19110049219405
1,21120602493613
1,2048927274194
1,18977346711374
1,23444428830626
1,2583451212028
1,15113791606179
1,17909354916966
1,17184594295524
1,21348997241064
1,16486441597275
1,16363494325729
1,1308107827988
1,12897780447576
1,17599623487811
1,18816968001213
1,14619979459921
1,11130781251077
1,12828084312485
1,17282422873319
1,1413008870163
1,11543952513472
1,12058579192669
1,13482562114075
1,04318016994908
1,05248811284128
1,07088865806281
1,07487266418343
1,0659800958488
1,0759560531317
1,06564926430079
1,06841792054432
1,04030076601712
1,05823593292866
1,04519003478515
1,04171259801361
1,00496937496201
1,0386832618058
1,00904399116253
1,01797316879451
0,977064398606592
0,993025645876172
0,999816245296136
0,962528705078817
0,958124694400662
0,98383136511381
0,958504179274069
0,974917072725373
0,942417601761414
0,94602717654809
0,944318851863173
0,946672587928737
0,922236525024757
0,937496957081051
0,931277704122356
0,924400299221864
0,92042387941005
0,914564186302428
0,896107750932805
0,886261365372408
0,881491558859125
0,903568448857259
0,891057995087673
0,89031025771323
0,883163143555571
0,868189052582532
0,861322004330875
0,879600170912929
0,874614706882787
0,849270325282275
0,833417691475277
0,826916083238876
0,805271231951382
0,842445576075682
0,827898600243288
0,810402899140269
0,802071330339597
0,797098284534663
0,790996304154048
0,80608039890784
0,787520711132693
0,791966028660909
0,774819350479819
0,77836286961301
0,774136305408368
0,76544564265182
0,756732101985888
0,746118042530289
0,745626065801825
0,781085730356977
0,749990269174548
0,724295762499965
0,729672838702865
0,743627323098468
0,717602339276019
0,718223586175431
0,720891992417148
0,715343779280563
0,700071511639461
0,715156247350732
0,698329526982681
0,681894018657259
0,66618745000383
0,679673955484249
0,682237000850339
0,660181676618693
0,66095244617172
0,666646629966665
0,648638074271335
0,648090095592735
0,640719761322663
0,639847709934849
0,634883099762215
0,641246499876415
0,620844001643521
0,631921774310537
0,622614916357082
0,608871357624495
0,612531252937024
0,618102630544925
0,609064702775787
0,611153831293822
0,592663107451813
0,587741470851203
0,582851177240861
0,586849328512058
0,573865794578386
0,56783126353766
0,566179354321483
0,573700285199779
0,555346076075834
0,558036082496216
0,561065377419398
0,55231909573606
0,546035680415069
0,549907007456556
0,54367647172764
0,543849294933389
0,528819890478092
0,523548633912446
0,527671083831744
0,527484612373343
0,51071096573225
0,524154053266497
0,511444199004038
0,509095566795646
0,505333431769287
0,505905845964757
0,496081587355297
0,502916698200257
0,492733000715127
0,481247452045744
0,479507929341356
0,481079442483745
0,469541769321996
0,46881725275113
0,470386910849478
0,475517208765926
0,468943380220556
0,456939982943148
0,457071293958051
0,455567483838507
0,454288353464011
0,447755514514325
0,432737733694846
0,437520187961024
0,439625257635176
0,443081902678809
0,434134062536311
0,440076365551583
0,428176345494016
0,422646085184986
0,424253410338221
0,424566874566917
0,405239844427954
0,406223473042564
0,405255215105432
0,398291840703763
0,401670707505729
0,404359806809425
0,393914366719798
0,395542282203085
0,39676844021261
0,391692617629914
0,385156363092841
0,383757460756646
0,373042249382994
0,377307105198359
0,366205029544018
0,37323628121722
0,376201859634572
0,367994204259309
0,359352607704118
0,371008616163529
0,362062135390719
0,357415260665945
0,35403735228453
0,356351869806951
0,350168704093289
0,34935206772188
0,343875747305903
0,345291867706556
0,334354385993298
0,333843913804986
0,331787611193307
0,337276218795929
0,329149243184764
0,328804864442161
0,327497523023029
0,326978678119459
0,31589062840082
0,317052688414173
0,315772200171234
0,316394707143657
0,315336027064766
0,308232590854648
0,304285447593633
0,313748803197099
0,30776551530785
0,303052106907073
0,301266938376147
0,301392339818813
0,295323604323543
0,29130737807324
0,287775156175099
0,289888962751507
0,291672239655168
0,289347914886493
0,276757136477002
0,282842666455909
0,28663525416017
0,28073875218617
0,277607572412662
0,276566833553396
0,268302622984079
0,267999690425454
0,270491207875619
0,269582984191666
0,264878437261296
0,261723498692653
0,257641387724486
0,256104489408741
0,254963937055295
0,253317962433415
0,247649751716596
0,251062962063816
0,248581816107668
0,247490512671196
0,247106542286082
0,244835770682618
0,240056868223779
0,243190338444484
0,240963342713224
0,237094047508696
0,237596045721387
0,236605889678651
0,233073505136323
0,231869081382445
0,235721279310312
0,235831721479022
0,226996671326234
0,230095986630016
0,226848027779134
0,229749682482129
0,22426449249878
0,219977437246895
0,222601083566324
0,223258062995013
0,21645159038398
0,216271624660787
0,217887797604148
0,215170418547044
0,210499545554791
0,211084860491061
0,206399406974776
0,20981088464563
0,206607031829751
0,205976535341646
0,201848117362455
0,198133531964718
0,201789104596271
0,200406572485296
0,197679899820559
0,193108447332596
0,19204300122468
0,19803641074385
0,192469830796972
0,194494325361371
0,187373453733939
0,187381472290973
0,186868445459945
0,191840110903881
0,186777765603171
0,180549442121514
0,183647187578064
0,186896468876702
0,177623683205275
0,174159494153796
0,182285046886246
0,185397480021297
0,176343132566152
0,173162578071466
0,17747577563195
0,177894264601606
0,169292124579739
0,167345412670615
0,17504316248752
0,170990586035859
0,168323277969858
0,16712375664536
0,171055868882669
0,167888296247678
0,161318260648989
0,16153378503448
0,164083945486209
0,165544246318661
0,160986965765934
0,161277070665849
0,158545480709672
0,162185930546327
0,158574466256145
0,159375358506904
0,160258891989334
0,157995127859308
0,154596301256995
0,153959944422128
0,151272123755781
0,150500974074593
0,149047273546449
0,146311338485892
0,149821844340882
0,150295197068021
0,149305908160489
0,14655950202224
0,154661686332175
0,14655411370875
0,139472545526508
0,146093444442067
0,145928739553486
0,142677817334629
0,141754249061336
0,14267863774792
0,135069501088533
0,140220163550583
0,139880279403128
0,132236589215598
0,133560499640548
0,138123430981241
0,135047864812029
0,134905877151319
0,135206187415638
0,128368917595342
0,130473668883924
0,134075553010422
0,130962951245226
0,129816131151975
0,128655943846006
0,128071620851252
0,12972368289314
0,123649604104918
0,12617538339224
0,129024093290658
0,120966229129172
0,125135564975459
0,125527489099058
0,121479850915174
0,120389448956367
0,116187688169167
0,115775686426648
0,11499775821148
0,116389485094374
0,118755621994892
0,118626595296501
0,117034712224684
0,117169917629037
0,121403908348569
0,11266251660294
0,117000116379791
0,115471316334817
0,111402546439697
0,112759027851669
0,112135571252995
0,114889835396444
0,111636919481582
0,108238463388183
0,106322110744267
0,106520923748003
0,11271271033868
0,110362886620118
0,107558010067604
0,107062713141125
0,105866536136541
0,106116084988595
0,108690979383362
0,10551756030507
0,102264171888665
0,102748887220603
0,10583132332837
0,105344092485475
0,102205593849104
0,102977173809853
0,103393588031584
0,100586011181784
0,102340989284891
0,105009029156947
0,10121432811286
0,099154206487245
0,0995390066462159
0,0967305091449114
0,0944701575017445
0,097813838104604
0,0976351623101574
0,0962762881685319
0,10020791570962
0,0994865222176789
0,0960254518799485
0,0946016570942819
0,0970563814713925
0,0960951817549984
0,0955683707912538
0,095882175356319
0,0960283688079573
0,0913206438223235
0,0928247699526788
0,0941314469436389
0,091825106640835
0,0907860079972809
0,0935865633549294
0,0927530700966347
0,0916292280003608
0,0906038842354457
0,0899487669036578
0,0908839251977778
0,0886396608172176
0,0869001937946921
0,0896098912795987
0,0882140351468902
0,0882165587798546
0,086306705765567
0,0865979274486444
0,0861092674645147
0,0894925388086199
0,0850670063923599
0,0855412445414665
0,0899697372833394
0,0892428846388144
0,0852020343763213
0,0854174460929828
0,0853596821401731
0,0841414874250199
0,0820381148848997
0,0809725811231908
0,0862221597216708
0,081612261467255
0,0829980895343192
0,0810421872750847
0,0846473051263314
0,0808804292290788
0,0822232592068183
0,0847958494123052
0,0826606377787186
0,0778803985024414
0,0856083396465073
0,0785672911197305
0,0808055499347055
0,0762579896334551
0,0797025936486898
0,0807626085908651
0,0769618776359155
0,0773671762111396
0,0799964919889708
0,076943918913213
0,0768335360574168
0,0753345231390289
0,076998918647127
0,077523095843362
0,0732591642337729
0,0743408406809198
0,075092567864072
0,0750520200455614
0,0774647493172555
0,0756131201751074
0,0757178247537931
0,0791835885694624
0,0766821748364011
0,0722361955303362
0,0796808374916836
0,0766927035425484
0,0749894125868366
0,0750269566165815
0,0743344610051476
0,0741470035545488
0,0704887023964347
0,0767214202791793
0,074184410077299
0,0713738411207005
0,070217821492922
0,0723282702612303
0,0728737380418729
0,0693185454771198
0,0707261318151689
0,069496158717968
0,0739240229289208
0,0721620640799816
0,0727206940429743
0,0743647318789679
0,0719275769852071
0,0714643467643808
0,066386361554455
0,0697671621916639
0,0710345127867346
0,0689443393931531
0,0713808164728598
0,0730435971789538
0,0708640226980961
0,0708572837114327
0,0704520311164742
0,068585605591022
0,0691896137863598
0,0688595617057532
0,0636414285054313
0,0669345348798884
0,0693811227678929
0,0657248917232642
0,0670358215451592
0,0675326850049443
0,0702511043429166
0,0690651109985608
0,0648558517853037
0,068233042834075
0,0692542505968549
0,067062095336639
0,0671680123874001
0,0654938478647281
0,0642405423392208
0,0639659673216015
0,0685516588650073
0,0661731648229006
0,0671136616072583
0,0663165727509212
0,0630668078749683
0,06539113926782
0,0650560230535037
0,0637895629965548
0,0649786058887137
0,0650822406874952
0,0670604882131278
0,0681912130821643
0,0626844957986384
0,065646067581608
0,0630874943958507
0,0637275942939512
0,0646229415020495
0,0612711025188153
0,0652986614204529
0,0652455254207724
0,0651597682523932
0,0649634820122312
0,0649793834479055
0,0618307747419165
0,0623089967429188
0,0648411335174039
0,061820454449169
0,0616077983156373
0,063527460263061
0,0624379025187567
0,0657987191498145
0,062415962069898
0,0653192808283614
0,0610929600476704
0,06107112114538
0,0635574133557621
0,0656033670165318
0,0639579222001534
0,0656968599437549
0,0633469186224668
0,0628695772348439
0,0631971875316355
0,0635503268808155
0,0620606726999693
0,0646360818794744
0,0626182845588479
0,0643458961911852
0,0619544695130438
0,0596681283608988
0,0608382244049427
0,0628857338333671
0,061050233005211
0,0619611455549264
0,0636054671990683
0,0603594394220576
0,0590652155384146
0,0607372545069334
0,0629959072175586
0,0616687948239294
0,0597286830171995
0,060645441380219
0,061861187784801
0,058769526814286
0,0584660284628859
0,0602005850271116
0,0607814084474985
0,062361104966609
0,0610329405857446
0,0625288876889527
0,0589224445962354
0,0600466684067677
0,0598727805055185
0,057532810428021
0,0609864670818268
0,0595674144769493
0,0608436769485845
0,0603104330026161
0,0577953082787366
0,0609631505781892
0,0619898140161395
0,061893391619505
0,0583707483630133
0,0584942593017214
0,0596279924738212
0,0616076282275404
0,061360955379136
0,0601691871285345
0,0603479280147747
0,0603967411755074
0,0578887483582714
0,0618688956302508
0,0596248620616317
0,062031042850914
0,061468011507544
0,0590533651804658
0,0610775539495398
0,0622221175950661
0,0610357299946012
0,0603637445551557
0,0565842158488898
0,0598014079466201
0,0615457081357095
0,0614705985496285
0,0562900940268335
0,0591682651805199
0,0592519757887454
0,0619504955744549
0,0586781031953013
0,0596357379818213
0,0595735921545749
0,0616260870583976
0,0600619408754764
0,0577165732551436
0,056395554752231
0,0606649705366269
0,0589420608262906
0,0610124817895829
0,0599164717907633
0,0605646048314099
0,0579329020160285
0,0607730240048552
0,0609283362778055
0,0588282996970956
0,0584640222724839
0,059588850597033
0,0573142246428687
0,0614134938211289
0,0609215215275292
0,0584858764956211
0,05464827877572
0,0607215289780821
0,057632960468083
0,0590930489788821
0,0599585947523823
0,0601600895037669
0,0594206188313898
0,0612648662090849
0,0607136659031849
0,060573892520404
0,0630954862886692
0,062652030477178
0,0628547495562894
0,0610696590647384
0,0604116935971672
0,0598641987234662
0,0593808521665101
0,061287537039836
0,0617408721766088
0,0646693954707015
0,0594358569031568
0,062304774051188
0,0621498539632172
0,0625460022382461
0,0594508062634713
0,0592074677723874
0,0595660857541208
0,0618207697530439
0,0593359200614511
0,061991085101333
0,0624989931909956
0,0613065436403029
0,060403887442769
0,0623507863521152
0,0616158681201287
0,0631573703645437
0,0596655482780996
0,0597468989300394
0,0635838622119938
0,0639435205939423
0,0599347990806124
0,0627028697099765
0,0580335760439415
0,0634487853500357
0,062911059023901
0,061040085639615
0,0609780205935794
0,060956141306468
0,0631032744034254
0,0637090794368237
0,0621959466836392
0,0630082014373786
0,0608658961603018
0,0641052554814995
0,0624160121713547
0,0615720626820303
0,0646361889536086
0,0591334893637814
0,0596825862598418
0,0632543501590379
0,0616835248417539
0,0627557376410846
0,0623177006820736
0,0618733305560547
0,0640477049848652
0,0657679112295423
0,0616512679595399
0,0631345210789937
0,062522023009908
0,0651068632168839
0,0640920349549734
0,0659698267440775
0,064316954597747
0,0660410775655312
0,063236423054289
0,0630726064417029
0,0664382111300192
0,0627106576525048
0,0616854951337127
0,0667143728740375
0,0653459615424165
0,0681309355322865
0,0614750475983784
0,0645663663840813
0,0657507825517191
0,0644151907838409
0,0658483922084342
0,0674010660123472
0,064070141714872
0,0637242802163274
0,0636050759265883
0,0693005327925844
0,065954651429761
0,066924372212541
0,0665632872070813
0,0683102636907306
0,0625426105289289
0,0673579717093012
0,0660660989875209
0,063817671050226
0,0627484026600469
0,0655280135537154
0,0677898784963857
0,0660651413649186
0,0649616251390698
0,0656356460078821
0,066008726770815
0,0673772437509703
0,0668539951942969
0,065226799948995
0,0655367801784317
0,0683411656295917
0,064172542826917
0,0664833815165216
0,0682065369564847
0,0658941553663508
0,0646356931352003
0,0655295412994324
0,0655439074739267
0,0672192652475044
0,0650002462464198
0,0674591393464812
0,0674687032300669
0,0646806971298196
0,0669931066457226
0,0666089917659904
0,0690657526246436
0,0690348734067253
0,067301727949037
0,067085739169548
0,0632883802111844
0,0682288859868649
0,0684719887089737
0,0668136018820257
0,0675867930053549
0,0688927298818726
0,0706970103191428
0,0699913898917902
0,0697524562086872
0,0703739241611863
0,0710653988480577
0,068038550057523
0,0704359633181648
0,0712889902152701
0,0699684317157948
0,0720777958633622
0,0695137546131789
0,0681726188744412
0,0712354442711274
0,0718477843718406
0,0714140475731908
0,0717719106495327
0,0724650096250536
0,072012450690029
0,0697490167637036
0,0688531210595806
0,0706205702437159
0,07113962858515
0,0731131804970222
0,0729327082794089
0,0713544501365253
0,0713007747777571
0,0710893771506201
0,073494783476034
0,0697761867946056
0,0703176784736682
0,0744966902414481
0,0703431884332218
0,072522457899698
0,0742112613886682
0,071309260563904
0,0728369904849941
0,0722404828093821
0,0738012547636678
0,0747265189218733
0,0728335377195004
0,0721862731554173
0,0726574527873623
0,072967263353756
0,0752920770977265
0,0738726414536638
0,0747024223821959
0,0771585801164887
0,0754317748839012
0,0773115600891508
0,0763298095824234
0,0706107149632376
0,0721383898923578
0,0739995110595608
0,0734031086241287
0,0741645488259866
0,0762526014346989
0,0775991048502472
0,0743723049826391
0,0762234447267614
0,0780687108300011
0,0769066854538593
0,0780563008346162
0,0751814003967491
0,075204125068184
0,0764280062497378
0,0788110253368937
0,0760172307918088
0,0774765216909173
0,0805710720001919
0,0772272033951751
0,0813743795224999
0,0826492601769021
0,0825085602195317
0,0845656223727942
0,0848260742263391
0,0861854139484408
0,0861563431767343
0,086167175830793
0,0922798667598089
0,0889721998427265
0,0860616853746823
0,08387261600028
0,0799483527014625
0,0824889751535776
0,0937117161215038
0,0927271145417672
0,0845811146849051
0,0866962084979919
0,0910157339253674
0,0863645563274372
0,0898638482995229
0,0928261592458679
0,0881459145820063
0,0923609916412638
0,091148954160547
0,0843935236809471
0,0901672204825985
0,0875970994001647
0,0909692416685863
0,0797471130774241
0,0850282154081601
0,0848800685346303
0,0872748059242446
0,0783577173543105
0,094795086004598
0,0838809114804379
0,0905753495114674
0,079044723322046
0,0970101327255477
0,0766996597417402
0,0987978202155927
0,0765541059830356
0,103822241561965
0,0782792131892627
0,110177608361092
0,078524216045202
0,108434179194526
0,0747295238507957
0,107520483274773
0,0649992167710461
0,10627130413177
0,0641018296427444
0,124044144424416
0,0710990605397092
0,121340211333326
0,0628008737118535
0,114187740703646
0,064895746832025
0,125113540109119
0,0624213706117046
0,116566315153052
0,0694817784797855
0,122586442938726
0,072282690842356
0,101253123959405
0,0855584966094887
0,0978862804523934
0,0936249322358409
0,0832408576748156
0,108168694944909
0,0745701095179877
0,114224448884171
0,0724511790405057
0,114097283519765
0,070993015003204
0,110043738746564
0,0809568981681992
0,104289053970354
0,0862749964233888
0,0955739825217285
0,0906184123629807
0,0925004779662675
0,094108089161107
0,0924517155021997
0,0940195541113559
0,0960698952011165
0,0874453317405971
0,0990904186578289
0,0877859497635442
0,0998692221771401
0,0871835958688524
0,0975994279397633
0,0899257052445944
0,0958801498512158
0,0931349884074894
0,0962487994565082
0,0908650043546364
0,0984957195673606
0,09145380635702
0,0973391954942279
0,0900886550680567
0,0970527004552458
0,0913539713749461
0,0985656590492658
0,093817334449101
0,0959576060341245
0,0927883745101023
0,0991024007043782
0,0922553143915278
0,0998887016661137
0,0935083566744425
0,0995298074662086
0,0958652182365041
0,0999494167032796
0,0958042910478017
0,102003658099946
0,0961649133800565
0,101240408253692
0,0961232633348514
0,103269083252765
0,0978664672776593
0,105483368380717
0,0987861808642391
0,0998826004695476
0,0969500391736457
0,10234146247045
0,0965623043525606
0,104355976937236
0,0953230057160261
0,10221736322234
0,0977750054918259
0,104760793075527
0,100316814025825
0,1043743428175
0,0962769773351809
0,107686765170978
0,101327717255077
0,107846354068153
0,0975526825844285
0,103938784760233
0,100822647972127
0,106828694455912
0,103597231084884
0,107403721837764
0,102485339776171
0,106886204109634
0,102575764467295
0,106539220068594
0,103454370980437
0,108271719534709
0,105957256427287
0,107805951174604
0,104514717674537
0,107611374849057
0,103795605863123
0,110505981047965
0,105221651601164
0,107746975552851
0,105325450161099
0,110165138054346
0,106473521262986
0,108685058965839
0,107319091642133
0,110016034982084
0,107516511047834
0,113614161204663
0,10868980573682
0,112283586885792
0,106943267935867
0,111571682921281
0,110851793970091
0,114893958004676
0,111109871038645
0,114268291389432
0,109600268645091
0,115071112784376
0,111730370492314
0,113933012806006
0,110661061507241
0,116842892793086
0,113086885149503
0,11496927856301
0,114589829792425
0,114636783893781
0,114466090017806
0,116028122143239
0,114161821644226
0,116652976413345
0,113538699913817
0,118815629834952
0,113436331788326
0,118035065310531
0,115625948458435
0,118091944018633
0,116249088492739
0,118852590416595
0,116440870933137
0,12059754677456
0,117197144644822
0,122114574488231
0,116368816241065
0,119620234478557
0,115490191090568
0,121589276865361
0,119188195779648
0,122851845411916
0,118980096558698
0,121590794272102
0,11739514487014
0,123955669541473
0,117799537515903
0,121870366335899
0,121958069222469
0,123895508936403
0,119841745922041
0,124641162216849
0,121066746071492
0,122983574675455
0,120799823672627
0,122927753867393
0,11970264568191
0,127873748144247
0,122046835801854
0,124865504273213
0,120718667434958
0,126267629104018
0,124142516517051
0,126940453678959
0,122270578301317
0,125828810734225
0,124115201287139
0,125209158284668
0,121880646483883
0,128019966012367
0,12725879425247
0,127860657823883
0,123654990383989
0,126040460491968
0,127641902433608
0,130056456443011
0,125323748923309
0,129010862003126
0,125253524553313
0,129112981449923
0,126219593222823
0,130700260757549
0,125287141740239
0,129780646936293
0,126824160400445
0,129201691071421
0,126492626339943
0,131116116124098
0,130133220590671
0,131355222407642
0,123864058237043
0,127794717922902
0,128134219191674
0,12997506291349
0,126450661760863
0,128390275298349
0,129968329187903
0,128902719607779
0,128373582181681
0,131740075512442
0,128498651027703
0,131937130236085
0,128169540179042
0,130486583543455
0,129641568855773
0,132355623573979
0,128645140529866
0,132194028091882
0,129883717275363
0,132391260805388
0,127803168906713
0,130958784580927
0,129078605556718
0,132041301571531
0,129247726494332
0,132000639860663
0,12813847825871
0,130302260232584
0,129920273615197
0,133176691014489
0,131226010046713
0,131087222834602
0,128242212319275
0,131726432901084
0,129788150480017
0,132352832992988
0,12926604065424
0,131364156097216
0,130024482807832
0,133350140002836
0,128273935170664
0,13018393258156
0,128690899648243
0,130531113292978
0,131212258411455
0,131156140708011
0,129928168725425
0,131593430208326
0,129040731698464
0,132305466022122
0,129374196843415
0,130649442609494
0,128243544993678
0,13250295720074
0,128523021776043
0,130526001238644
0,12833783606863
0,128745900738236
0,127770388387655
0,131433494517202
0,126955062706325
0,13071777881755
0,127383629060657
0,129771170245409
0,125833432995088
0,127860411976938
0,126871720210707
0,129091030508176
0,124304592042315
0,127263035095275
0,124301699045547
0,128596580176401
0,126589266769835
0,127361541685
0,12703024930736
0,12807219531318
0,126255824429405
0,129013589751254
0,122877581759456
0,126424913427689
0,124897471503125
0,128960177650028
0,120902021707417
0,126646786638842
0,124095001596717
0,126437224289619
0,125017292670771
0,125611306136356
0,123646565026969
0,126894271105734
0,123394909022351
0,1257602075987
0,122334767908872
0,125340742655751
0,123809790743881
0,124192459597945
0,123071363809902
0,12373998000231
0,121380111702407
0,123449433001156
0,121796799085751
0,120972844766919
0,119138289517072
0,122959945426666
0,11884086886767
0,119133987029568
0,119036598079242
0,121465749472751
0,118092566733062
0,119954712812274
0,117960505993804
0,119187673921218
0,118013424144266
0,121181374320709
0,115592264586028
0,119805068057499
0,1169924838322
0,122086223793267
0,115756212291352
0,118744942514406
0,116546372674946
0,11743038045906
0,114698776973972
0,116451076138656
0,114600210319335
0,117547672914864
0,114918450295867
0,116080441641408
0,110807347325525
0,113448514697771
0,113487900855936
0,117513082392447
0,113406306549249
0,11706446145973
0,114665724770493
0,115560630607171
0,111665614434482
0,113024733758361
0,109068170832418
0,111018007027338
0,109112856316791
0,112893050958137
0,110856643507438
0,111009436597063
0,108818955359301
0,112226251511588
0,107900951306485
0,108921185465497
0,109296638265993
0,107061673123015
0,108922436623205
0,110870132830587
0,107870142372302
0,106491830567824
0,105333432124265
0,106771307381694
0,10647481058928
0,108695666723694
0,104694102190104
0,102385059005558
0,105125991468217
0,103785518204881
0,11050324426293
0,107087533354332
0,105700433053341
0,10696879197552
0,106325974195193
0,103660189074155
0,103191092022441
0,10545358810676
0,101701277424649
0,104031900555311
0,10059977539998
0,102531334057492
0,102440414323427
0,102628474225465
0,100840593548613
0,102092098433587
0,0998287756273159
0,103028917589426
0,0983980509776139
0,0990822178419696
0,099512817206005
0,100933118670982
0,0981375208125865
0,0975516988950116
0,0982723994952816
0,0992887144355652
0,0980580517378037
0,0997898336333153
0,09482160352862
0,0986680467740156
0,0977142125856409
0,0972336709392433
0,0946032614139269
0,0992444903207051
0,0950379071727484
0,0964240436028802
0,095101212166419
0,0968794992773585
0,0925764531431924
0,0931542800644602
0,0912284866280985
0,0949735959578099
0,0912688647381864
0,0944807413690918
0,089540596222971
0,0965498193841009
0,0915938012328987
0,0977611487037978
0,0914901998047662
0,0969292710632338
0,0887224029190158
0,0968407487028903
0,0926697489417467
0,0999443009438964
0,087597625056246
0,091667297178973
0,0928007334336702
0,0920017968703014
0,0891292777330919
0,0892029072303024
0,0875965954729754
0,0916811644909614
0,0908957774080235
0,0896028174482704
0,0876127832123388
0,0912675999430544
0,0886777372680679
0,0901854833739274
0,0877167019719319
0,0892181776966584
0,0864898882903711
0,0876181789389264
0,0862697419448337
0,0903242110550089
0,0896500576802388
0,0923792080401788
0,0829903256353831
0,0906742900434677
0,0888162119261335
0,090418160672843
0,0937254746920744
0,082974690232449
0,0888234038483911
0,0832311861229061
0,086463891925384
0,0820549920323235
0,0889579576568034
0,0831141032218679
0,0918835001638828
0,0850980405013126
0,0841667097568156
0,0854466714910759
0,0821633703555102
0,0845654194557065
0,0847603980468661
0,0861845198542193
0,0844531064810642
0,0848128735695978
0,084398744436824
0,0848436360013987
0,0847663775212302
0,0839920276442772
0,0845156301949505
0,0852863694656908
0,0899791794168757
0,0826979016770956
0,0851830081308697
0,081821089614891
0,0869003711117193
0,0863799104710391
0,0893000247872617
0,0836426825808031
0,0845398560482993
0,086057333094897
0,0811633604876245
0,0863403500289692
0,0823926088696064
0,0849062560837603
0,0818547714403675
0,0858872246587764
0,0796873264824338
0,0836244306706938
0,0804798311141348
0,0839078729535595
0,0813945048321424
0,0825206310765241
0,084098247245906
0,0854571703531897
0,0821999065392886
0,0826189172447017
0,0861549703081002
0,0888470153416905
0,093533219305128
0,0808899595873799
0,0858617605557252
0,0804807493429806
0,0855822483668957
0,081945230291483
0,0821942939206631
0,0816665030078114
0,0847042740605429
0,0819153734118122
0,0843013736687225
0,0842478068514039
0,0838764390596344
0,0836075609507162
0,0831730614561288
0,0826151670959606
0,0804655633709777
0,0837785906966483
0,0827289333822705
0,0830410969225471
0,0808132675422859
0,0893387577410921
0,082136694053274
0,0901378411906309
0,0767421524941435
0,101316414749305
0,0786674158299469
0,100003520884153
0,0799345523493533
0,0894286862726089
0,0823580923178283
0,0855244651005388
0,083185166584922
0,0864740935375869
0,0831260242972857
0,0848958490213235
0,0836568812690426
0,0905263135690118
0,0838726509698556
0,0829698488138194
0,0887208542104053
0,0933180499507946
0,0905660779020894
0,0907904426126641
0,0802538971259222
0,0937445640454685
0,0864074474472423
0,0963083115170859
0,0891882523688211
0,0834991473981922
0,090226011166028
0,0854818910104713
0,0885159473248834
0,0857058687236254
0,0916575241583855
0,088914211764248
0,0882482342768987
0,0859398285492939
0,0856915355287823
0,0909185790367568
0,086559317791462
0,0947546618469775
0,0905532366596186
0,0915510797671831
0,0915389978600951
0,0890072484677912
0,0933481980300621
0,0877201485936018
0,0941125294307105
0,087713899120803
0,0963122306979498
0,0920726571119602
0,094539666663934
0,0980193029198396
0,0955157302340672
0,0947497485621779
0,0939815491924484
0,0941928249325278
0,102593816703448
0,0871511700505637
0,10618814050422
0,0909520836661907
0,108416814417284
0,100047223842087
0,0986058309640785
0,101353753317922
0,0957628676255886
0,101480198162246
0,0924745055700125
0,109148570981417
0,0935239711756976
0,112731014306856
0,0890380555446635
0,113693423483822
0,0879731581551553
0,109156157520474
0,0990923845680059
0,106550963015108
0,0989484659070163
0,111301525096805
0,0977307386202622
0,114180012302879
0,109533598449159
0,12011943390144
0,11892452204411
0,105522048001796
0,114920035767785
0,116910354860606
0,103807890287156
0,118883056787964
0,106297524391675
0,120884079591544
0,103516895764592
0,122239913323366
0,117231184037694
0,122899603829347
0,122066972791629
0,118955389078155
0,118573920552906
0,131052615557262
0,12287275171385
0,131719409777479
0,117280852217366
0,129632965618507
0,118226506442001
0,145647996218104
0,110702826154711
0,157362468981157
0,122771895395698
0,150594294143662
0,133331481074226
0,142586731705366
0,138000168187963
0,143500188351409
0,143662533017088
0,148089920576082
0,139293041458503
0,150868618898616
0,143039564916198
0,153986378129279
0,151129080575953
0,145148098015476
0,155226987471843
0,156824077126767
0,172634130832937
0,181962792192782
0,163248343771203
0,164464672858077
0,170950507215434
0,171556454143545
0,176554390493107
0,166515974861472
0,176257750296135
0,175629293858643
0,17787289031335
0,185201260607477
0,181696038031116
0,193818310284784
0,185061797975415
0,19532403365894
0,195518738177583
0,216311206152678
0,209498801212864
0,205482901888058
0,226519793273245
0,199425345527143
0,231314421604776
0,21282442280965
0,226062514492084
0,224998630159516
0,233026701344379
0,236797236837022
0,235985803808037
0,251057927055289
0,244960287862908
0,264853312685477
0,263480387744299
0,264398670055992
0,266203144753544
0,268402536098995
0,312263495295145
0,224260281534126
0,318148401178434
0,269621690889146
0,320068086690771
0,291356424540378
0,317166552495995
0,318003842657625
0,318392874960275
0,32547222287238
0,332526403471111
0,332846553385363
0,350482658732301
0,350912590418428
0,356447818949477
0,358951414261456
0,376245180252033
0,358597200234225
0,418427317040748
0,403854792031488
0,404414732161677
0,403186602463658
0,417554413608384
0,414429178234648
0,422335722595362
0,414395225406755
0,439981127815195
0,442444546265593
0,460227122269764
0,464432587519766
0,450801832943049
0,477109422840652
0,467144073910051
0,504841855482109
0,465640683877182
0,524640366041345
0,48817901646193
0,512333041705474
0,516894822644766
0,523945404652364
0,532522650418889
0,532538640882209
0,556848297761129
0,552789814066284
0,559119613848667
0,559539580784905
0,570882062727991
0,580828903107589
0,573481376975192
0,603051619801831
0,608946909887896
0,647596376634722
0,626494562617349
0,641062199431251
0,60780969502372
0,619919848508171
0,631983973254598
0,650534193391217
0,662390540380836
0,626476027293145
0,663708007834321
0,649338977717476
0,650050911001853
0,662208998160765
0,665940525292793
0,680563689728727
0,661836556399578
0,677576478597629
0,661013111578923
0,698771908732858
0,690256092958944
0,707734578184864
0,685996937543503
0,66836443300464
0,676588534614583
0,670381759683706
0,674361374768576
0,668597377876048
0,6762837088623
0,662306832047794
0,659642669688811
0,621390532152898
0,64166618315872
0,631052871244228
0,659493218023662
0,625209412521782
0,628461828728094
0,617770268106965
0,60300403949899
0,607685755813586
0,618272239668138
0,612482958758258
0,58974084354587
0,567306618409476
0,561459662863541
0,555560028966555
0,558869960292246
0,542870165648911
0,544880577997728
0,524582995952212
0,527592965601254
0,505730054788981
0,502107682635794
0,499600811316352
0,498259310599376
0,480293117352441
0,481708397648899
0,467655709085573
0,463544045732623
0,457916659978709
0,45158541563656
0,442111476434675
0,435544843535159
0,429137696205869
0,437750089369977
0,419991854459681
0,422102544566583
0,410658963436089
0,407659374478995
0,398716091511573
0,399065736942451
0,391479227184387
0,39235125664393
0,384048258609664
0,379550533190041
0,370987097010272
0,372424686459464
0,366307696586468
0,360397380383299
0,355815609696067
0,352112889152893
0,355192087390298
0,343239203964931
0,364504068008767
0,348482878377009
0,356649726018425
0,341163760603929
0,330564964853915
0,341644030432884
0,323209991157738
0,339704790562852
0,322626373974043
0,332521971246664
0,321994756467003
0,315065603493787
0,316444037054089
0,321046882067013
0,310331011892291
0,316552336426167
0,293634539889896
0,323800325500909
0,291252791609276
0,334092620541321
0,337044798427671
0,311902913922366
0,299632295623548
0,293031353831889
0,317200828644632
0,288735338229455
0,299575102355493
0,273073774116756
0,294405051031579
0,270658342905049
0,286206079504245
0,283308840774719
0,269787086527436
0,282855068939742
0,290212927548107
0,278260957716163
0,283988667455582
0,284571554099032
0,280426468842085
0,292798708649903
0,293117795835081
0,298460868274316
0,265751506670123
0,268987515759931
0,259764152659031
0,260772434469012
0,277517322097774
0,251192594732731
0,272772911342614
0,255008087151297
0,259211153787643
0,256446753414693
0,26051281094128
0,266942451862661
0,248187428826703
0,270069733138387
0,230120980767816
0,269901961483094
0,241560829657222
0,277950341280569
0,258346446883144
0,268462486419703
0,246723681274663
0,253574139266914
0,263989595439811
0,252089713315995
0,260033365761024
0,241336300193813
0,244071694905447
0,258083903272628
0,236595723133219
0,249529484586678
0,246857451027979
0,249350266306678
0,259542549595328
0,256077456266649
0,287584997845418
0,248503967735372
0,235991812177285
0,238048297379694
0,231672388260333
0,239554127976284
0,222826125921745
0,2442756931898
0,231384787368868
0,22884959049021
0,247882673724427
0,217935856577983
0,238579950518473
0,227409722044074
0,227568703486569
0,23016349977983
0,229747122498152
0,237768155739388
0,236529699804522
0,228868507125593
0,233999721338156
0,224993762134282
0,239362467518157
0,221595946892104
0,230335537455037
0,218646759294445
0,231413914315509
0,225250594447303
0,228234558044132
0,226099585600912
0,223551534613094
0,220999686035021
0,248487231129727
0,209457229754572
0,245477589959788
0,210084025035565
0,257441506875787
0,223187610922621
0,232626446667488
0,225168721648649
0,220451821087369
0,228824787080924
0,222071238285753
0,221308746203321
0,24678191727132
0,219863256317903
0,233961560457275
0,21287748670317
0,233627734621926
0,21481534945263
0,236215311996899
0,222387903082813
0,244982725638638
0,236176261382271
0,226095685998005
0,23944020547497
0,216555309696061
0,229233951889414
0,22531100022249
0,223237265229653
0,224090933707216
0,217039733812752
0,235097454053495
0,224147114222652
0,224951819362883
0,217858181083229
0,219966474301656
0,223527036100134
0,220457405894324
0,224500350792492
0,221293486762365
0,22043615534521
0,222512432711332
0,21619690056572
0,246615266639464
0,21417269774416
0,226813463905103
0,219332458978908
0,217772851822553
0,226294428315556
0,22086696327844
0,230100194168369
0,224497891350063
0,222350426418125
0,223990156679791
0,220116142022677
0,221365906517833
0,210405596533488
0,238295665094932
0,213501005151717
0,230164307751022
0,214312859453423
0,221821210451823
0,248197694250014
0,213051074848914
0,235872495825931
0,214377094986648
0,231629706757289
0,213304195448378
0,227783998338523
0,216358219802714
0,227843432660729
0,217254027550814
0,223637010453001
0,22159437240439
0,221662090853923
0,222466431609401
0,218570329976817
0,225817654791488
0,220123734523942
0,222477266038719
0,222303526584919
0,222451106476149
0,21558402176444
0,220370184345096
0,22375195208413
0,221506281755612
0,227894442001737
0,21433346652534
0,233565186965967
0,224043881733878
0,220018995633246
0,220768550676901
0,216385585443994
0,21598591447108
0,222894205385588
0,216345579243617
0,235613502154905
0,218861167010091
0,228304756313242
0,212575403553273
0,221331417867221
0,216925920940189
0,222026104655625
0,216362413652248
0,226065708442759
0,219330493839723
0,225318837851576
0,220542346124037
0,223004661000588
0,220361874375652
0,221237298285349
0,226830036025334
0,227825027626676
0,220970776750417
0,224335005372114
0,215719583254548
0,229097487934347
0,222922680204063
0,223529034269526
0,214010110929798
0,224910419180862
0,209954178008102
0,233766024162198
0,215998793290085
0,224313758611093
0,22049540499801
0,214163284045885
0,219398557067363
0,21434487297081
0,215148984132749
0,215139476373821
0,217366853723276
0,216373120060971
0,219460268235734
0,215461363795565
0,217630038913016
0,2157006315045
0,216070313775245
0,217123708119141
0,216752140663592
0,218921448095836
0,216907847261679
0,216124136522773
0,216520881582261
0,218695431838625
0,211835083221579
0,217516788894796
0,224166381827679
0,220489061813713
0,221942735726901
0,214882883472903
0,22281114386102
0,211808851708545
0,217815598073146
0,210308646234155
0,216077255881498
0,212725432967378
0,215404226262853
0,209677506716352
0,212884832808772
0,215381895790107
0,21534607737701
0,213267130261369
0,212891467259981
0,216032830220562
0,217172731594154
0,21324011629737
0,213763870710789
0,212409254847111
0,21526492205427
0,21282623913355
0,211257194671462
0,218251638021221
0,210898796562561
0,217242130476174
0,212538769931503
0,21882522540415
0,213265375834343
0,213293037182687
0,213658822756133
0,211264400180572
0,212779727959227
0,214943146472476
0,214843026574808
0,211877523704283
0,212464836791219
0,21312388781413
0,216744679356134
0,212226721676791
0,212257874169965
0,212028997439924
0,209822758029495
0,210866725415102
0,212922907321366
0,213256703055927
0,20985168751407
0,212416289814089
0,210122072896758
0,209872044086481
0,20928170272364
0,212412982597225
0,209333091233841
0,211817466046066
0,209726689824857
0,21207205325909
0,210683747292028
0,212107169021329
0,211349403252888
0,211408181854773
0,215132186699617
0,212595522288149
0,211162640737383
0,210038416043433
0,208530528314814
0,209921496951845
0,208277527547298
0,212155792001179
0,210322302790912
0,211945132530141
0,209199819100743
0,214157523751343
0,211876461501604
0,212192006041501
0,209906669387915
0,213687489020207
0,20882450667268
0,211399684592987
0,210893865670688
0,211985337459418
0,210262150770804
0,211553929681101
0,211556447625989
0,211899884141486
0,210577324761238
0,212484878313712
0,213533745365602
0,21311147270116
0,209197116851914
0,207682855469634
0,209236920885647
0,212410543892162
0,212342298963506
0,211842344061662
0,21253414179118
0,21036328858905
0,208867777983907
0,209448795028303
0,209003670707487
0,20785817255273
0,210412086895708
0,210742717732592
0,211330949688995
0,210116576194578
0,209156591778656
0,211081112639285
0,212344954968473
0,210957827440139
0,207645889072136
0,210652869278554
0,209475216165612
0,209131317945721
0,209045630270219
0,210652832852557
0,208543232570185
0,209822542299541
0,212245231505925
0,210683942982449
0,209160200115277
0,210258122156675
0,20939357153717
0,210457908740211
0,20939401448048
0,209033553370363
0,207745076753645
0,209936273408443
0,207776901449722
0,208619325035562
0,208725431441956
0,206556424899249
0,208248429430453
0,207581032375984
0,205515894947689
0,20819131769469
0,206388403110223
0,206253490419493
0,205196234279568
0,206855753084201
0,207397335919297
0,204892520704264
0,205490024068991
0,203654625523564
0,204578725019173
0,207452652869461
0,204861472573545
0,20731590813083
0,20741494074002
0,203128633205735
0,203398608495955
0,206006034357052
0,208162786961257
0,206062658293305
0,203193120982079
0,204859484310282
0,20541975673007
0,205150455467421
0,204535314009546
0,202556244292465
0,20367561272809
0,203409634968183
0,203854822795439
0,204231771711831
0,205630230399873
0,202339328483068
0,202489118115541
0,204558596560997
0,202262617161072
0,205097143885619
0,204580633942323
0,204066330130879
0,203224771782204
0,206881215107452
0,204528654421425
0,20511262636676
0,205914788883586
0,20665608981369
0,207533882989373
0,209289479214313
0,207132407295742
0,209646242293416
0,209511428648705
0,21074849269518
0,212092723001404
0,214239423861566
0,213764325257762
0,21458298871218
0,215657899279772
0,216509816630511
0,216055172362138
0,219810715062424
0,218496460457165
0,222151962428603
0,220359591543036
0,219891394702017
0,218626725451219
0,223757732367022
0,219430890145947
0,219965045840327
0,221309946070383
0,224046824951814
0,222588776646506
0,221063679623162
0,220907563933968
0,219911937275196
0,219972595457633
0,220708415669619
0,219887727942925
0,219500378768351
0,219552800090057
0,219193684645589
0,219303598429231
0,219342254611601
0,219290947473121
0,218209125763948
0,218364530932275
0,217146510184902
0,218477220588275
0,219343152704962
0,218637109626226
0,220015467393932
0,22201996874592
0,221001262946103
0,221403536658365
0,221024231060193
0,221197989292405
0,222694779425392
0,222710982439846
0,224476657561598
0,226636374646898
0,225909173294981
0,227539312790947
0,231300757726041
0,230012292602319
0,23170474091337
0,231516551545369
0,230596450476004
0,231710999652408
0,231268574275232
0,230494826962202
0,232222998753444
0,231653299581917
0,230499597263637
0,229449732355805
0,23192021215182
0,229903400622275
0,228703968186098
0,228082538286753
0,228661252587099
0,228614435431715
0,229265685894278
0,228990443771253
0,231384703809553
0,231397078894681
0,234100284716682
0,231051741379333
0,235358556126599
0,238381015046509
0,238660581150688
0,238682853181751
0,239349892247951
0,239269891712587
0,240998225227262
0,239774420439859
0,240480127664498
0,244830237034748
0,246354556507707
0,242778684265489
0,247136303893505
0,246409199235942
0,249883032428864
0,249356779413202
0,250602385122621
0,256061089399969
0,254455425085191
0,256282215518199
0,256882605334742
0,258660685677688
0,262119395731595
0,262632360418721
0,261856990815231
0,263539192949308
0,266021618729483
0,265676982407219
0,267789728117899
0,264537663190012
0,268122306679285
0,266732435707222
0,265660168655985
0,264670372784723
0,262692300434477
0,261194098508709
0,259763996034991
0,26048844038226
0,255819481114572
0,25412447001115
0,256289400426289
0,25625890019946
0,251961574997147
0,253292492953783
0,253692382960184
0,255149524679472
0,253404563132404
0,253502007729164
0,255094899517341
0,254895133907127
0,255971580649113
0,258553903699202
0,25776034022934
0,258046964264557
0,259239981074826
0,260477958495585
0,261196966514444
0,26102343473477
0,262693623608426
0,263694031266419
0,263026158788777
0,262685715355268
0,265834447677599
0,264939182720428
0,267059454201381
0,263905221903575
0,266083990451043
0,264005253958853
0,266953682015609
0,261617710039154
0,261374623078613
0,263704167909309
0,265089416512247
0,267869547662322
0,264618277321029
0,263513993619612
0,264116330202261
0,261567406417429
0,2629899931631
0,257990503360021
0,259143591877176
0,260982284303875
0,26164735415781
0,258898040429973
0,260416556829448
0,260748678625575
0,258938816684285
0,254676592676721
0,258152620378708
0,255113869761978
0,250767499849716
0,251773240702899
0,250179510583458
0,248045052315263
0,247469555336523
0,244473261211539
0,243271158970486
0,243926108955067
0,244730152628113
0,241869964501429
0,242324024924573
0,240138474399072
0,241415160195024
0,242939297076874
0,243818484469982
0,241588419380156
0,244151314442727
0,245576974664308
0,245955299157744
0,248595222908812
0,249534322485183
0,251035142147878
0,250007699090655
0,250084040668134
0,250378030090395
0,252237974561944
0,248684522178843
0,248211500225601
0,251863884051567
0,25124149387342
0,24889456728471
0,249550154807928
0,252241264266046
0,252052618863267
0,250995195900584
0,252624265108791
0,250848009239872
0,249899147914166
0,249198266112642
0,253804571236068
0,253139489427398
0,252666462394625
0,251664103232669
0,253385542255236
0,254416539115778
0,255852130832017
0,253517152439894
0,25283279281856
0,257176660831449
0,256307494497871
0,255893442856772
0,25723040888868
0,258679047938612
0,259493515415014
0,259554333760839
0,263009019107842
0,261712283863899
0,262265100050298
0,262423600502487
0,262299943021897
0,264807317140289
0,264001229411892
0,265988721457729
0,270511939369939
0,269685978233222
0,27098161668212
0,270984447435972
0,272510468512965
0,273549475471675
0,276792476347038
0,278423667453735
0,279138966166252
0,277405302134582
0,282761939476324
0,282509100640811
0,280664079045727
0,285491117882869
0,284503427956971
0,284613251291459
0,285274594731949
0,287797492202408
0,293446530778461
0,292661036310039
0,296414541218579
0,291466144655915
0,295483310046624
0,296476496269693
0,297574348009578
0,301785209713105
0,302171227739601
0,303458174289259
0,304265924099838
0,303915255992963
0,307585925055698
0,306114454767595
0,313121471124252
0,315591197601948
0,319013485409188
0,314968468227366
0,315415655986331
0,32040386046602
0,320731984522368
0,320493214509915
0,329570530710266
0,329377986245365
0,329073876469226
0,335326750914265
0,3336827232406
0,339427218982484
0,336749725738236
0,338312024122828
0,343706574318597
0,342667276200973
0,348100044336677
0,350489695378836
0,35479367173693
0,353701279359818
0,356999198871707
0,35548971159919
0,361038169753179
0,364903784521706
0,367080405445315
0,359837983969618
0,363313241861536
0,363110715300376
0,37667611702928
0,379162918439497
0,379310205527791
0,384777478635318
0,385028822008737
0,389056492903773
0,392202545520147
0,395484266951544
0,398778832392817
0,394801511073476
0,398086721697682
0,398528651778812
0,402468368656645
0,406062723995447
0,406585311232104
0,415134539009882
0,418931399966257
0,415016360189372
0,421532684361961
0,425999966702747
0,428871904665618
0,428856070560449
0,438007088338554
0,439619630955142
0,44144972934868
0,435939788167196
0,444214323144313
0,44665644754772
0,451460609719523
0,458180688927798
0,453162131058509
0,454209345678045
0,464574094180301
0,463195339716714
0,465540115475513
0,476971129464117
0,480395251830537
0,482276861206197
0,482980996668025
0,487947090008823
0,482488348914625
0,486526965458866
0,493490336623688
0,492502161490662
0,494931950123355
0,505978430121728
0,500225108715594
0,510597956486777
0,518743008952587
0,511057219984076
0,526072214944655
0,517052811182238
0,533912927788988
0,526092045242714
0,542240173676975
0,536031697751895
0,530501623986518
0,542982531930816
0,538543834845711
0,554018790987782
0,559344083271622
0,570857313261445
0,58116831380895
0,564110698793067
0,580477593516132
0,558637900046528
0,577240862937941
0,571152816273872
0,582844873454452
0,580426183162028
0,579512831969549
0,583907152642899
0,588489101271743
0,599673545131148
0,611053286287092
0,599185814807153
0,612628114731904
0,620423599194908
0,613823220409621
0,6304721623694
0,637971270635297
0,625413421293386
0,645361810833949
0,631285387090257
0,642779756517132
0,630160556423019
0,655312625433836
0,645180106930803
0,658233107839337
0,670740790654405
0,668514394861618
0,651807910122923
0,655165429191651
0,672539345308662
0,675614608062691
0,678245762643651
0,702012889195834
0,694867510614531
0,694166075277878
0,714255980560445
0,68280859156941
0,678447609414526
0,713406749646663
0,68642463696235
0,705084375508781
0,698025540423497
0,725061208068518
0,710313967691962
0,74548578437211
0,725825462784952
0,764384600579868
0,731309763257423
0,729301475725891
0,774365079918908
0,763441102802078
0,747812821030801
0,793649869857067
0,774240382866711
0,757541691168896
0,768285800470815
0,798392362323064
0,771213952533639
0,793753546948117
0,794742722983578
0,84039927751083
0,815444957581651
0,824802849500061
0,785433661477509
0,817696733944323
0,796620485550108
0,786129763402947
0,796322097564166
0,81812702686363
0,836185353365107
0,857121091301081
0,814823062439256
0,821417338895593
0,816075016771798
0,863812211981751
0,836789599586318
0,797905824154583
0,823499612602209
0,842361730557116
0,847220563544894
0,89346707741849
0,846091669666237
0,888174020964495
0,878466202428857
0,860875443265274
0,87380467925308
0,92505020165418
0,947632392219489
0,957344276958373
0,86242616511499
0,950571492654568
0,922182420229746
0,874227243396693
0,955822319124122
0,98641727828391
0,942051359464526
0,976152050025224
0,997436854595177
0,902693245488956
0,917168324831958
0,973552105320951
0,947810320293137
0,9847692098317
0,936061847173019
1,00451607690954
0,95321063181958
0,97154224968353
0,888798912145684
0,963897634170322
0,951374076831645
1,06876483078398
1,05486070285233
0,962510706762548
1,00158323260356
1,05596947490531
1,00438005676309
1,04752392795514
1,05528368092214
0,985679751092666
0,938552443447871
1,09022010232293
1,06534849212187
1,05301939409025
0,93838581112187
0,999015062588498
1,04969300555277
1,10130719549509
1,11499517529293
1,14731713542811
1,04503443020267
0,99115285083067
1,00891233019334
1,07553624624284
1,05066931341781
1,34609757406145
1,16103874086086
1,08084101015281
1,05291265902564
1,06048280545103
1,03273738900052
1,20553478240243
1,02661462788228
1,05830787415
1,12480826035348
1,15202922423079
1,16574752063983
1,24902836691509
1,11797274817316
0,910719124139379
0,987203512098508
1,12209010783357
1,03522469371958
1,15203712490996
1,11153848306989
1,15921769088184
1,16960247877629
1,47316980761416
1,23163201995782
1,05169264890618
1,11810103754921
1,37163615021182
1,08413660993932
1,25199207329636
1,1702809389498
1,20297020929541
1,48699552036989
1,07035493353087
1,10896486925461
1,20949809644181
1,12642676200232
1,30610426071425
1,18555569290797
1,13683660083277
1,0448523971987
1,24389174354311
1,41061431733346
1,17364821740782
1,03860576129187
1,10137578885288
1,48918836605705
2,4071288407478
1,34660310820107
0,889913682696926
0,911054510059542
0,91809665262805
0,803822930359815
1,53036836032521
5
1,39480824633358
1,1600773919105
1,7943714238165
0,795461880466208
1,04422565593898
1,55254101809584
5
5
1,10007674746082
0,870688115348731
5
5
5
5
1,03056489196903
0,992705325623157
0,807686966448135
0,863688948317181
