3596
4000,36533379555
650,420452594757
1
2
2
0,0242944702774982
0,0258146768405349
0,0256639007313842
0,0332777997668559
0,0241059836851485
0,0327126557752755
0,0259504850144829
0,0209854994831596
0,0208500123471424
0,0278009909802974
0,0217267011050677
0,0262742151392351
0,0227778376607757
0,0237126303777705
0,025534861736192
0,0263350501528257
0,0162002987696589
0,028490558109622
0,0181118258079177
0,0256730814132322
0,02270092444374
0,0249619586060824
0,0294903628437708
0,0317671049460156
0,0241876967163067
0,0249198713731878
0,0229138337843153
0,031700380437208
0,0241421066804777
0,022473484120709
0,0253161632626709
0,0311150527302771
0,0320048802669522
0,0353122364499519
0,0247740073121466
0,0290429356336857
0,0207958391437406
0,0310146959246268
0,0209935162225463
0,0268125136844579
0,022538707819416
0,0308570359978511
0,0256566086119625
0,0279778831570916
0,0325910899851898
0,0254396832776983
0,0183270530412655
0,0228535076899864
0,0276549181797335
0,0256498440139151
0,0193148473751633
0,0300080835238571
0,0288997450288593
0,0257816428588823
0,0297835612006841
0,0288777095507709
0,020068439526045
0,0302229400494464
0,0240026118764927
0,0321142265101152
0,0393995480986297
0,0316633563938253
0,0342764915090668
0,0256591635994194
0,0264895338564261
0,0213982297840346
0,0214876944437014
0,0328997572386153
0,0294811112935363
0,03075323007834
0,0210525312422551
0,0397332416558253
0,0226236230198971
0,0252069418333423
0,0269782562153971
0,0290679770780556
0,0246268998894909
0,0274283314430708
0,0274827015907115
0,0377602629696883
0,0290812386556949
0,0364982100197165
0,0234329863650908
0,0281023257575144
0,0262272161971524
0,0270264946121733
0,0242503349739287
0,04227798685479
0,0217605737061086
0,0300632893334829
0,034225286682414
0,0329039223360138
0,0235987513606872
0,0261607381808093
0,0158637964534732
0,0276215429150665
0,0209126254101692
0,0326802264627494
0,0205577846121999
0,0365226700103457
0,017998236121852
0,0607142284679653
0,0103424816992422
0,0349047230512922
0,0408169478645546
0,0216496356432152
0,0435111822054764
0,0319514559437659
0,0240963367628365
0,0291970990363573
0,0219119154577909
0,0231558769563898
0,0258217957572561
0,0366000486489937
0,0229382645789616
0,053994700408447
0,0226284367205873
0,0296081197141738
0,0160203366949891
0,0302181001727371
0,0232426021557798
0,0618490968424618
0,0233175995246093
0,0451131258236046
0,0220166241834394
0,0317742599590385
0,0248240157720148
0,0483716910635831
0,0176023056020126
0,0294868458206865
0,0163785658147984
0,0348590141217262
0,0130424497332619
0,0476276197328419
0,0315270842763942
0,0299966099276301
0,0293916606212668
0,035782213284897
0,0462669812087744
0,0395342685903033
0,0203986160677253
0,0331249590113779
0,0189775655767277
0,0476152463976688
0,0207014190912954
0,0313320449968645
0,0301634327471265
0,0405692339707081
0,00977745598467582
0,0283230266145111
0,0256232912841885
0,043768438051044
0,0203562840544463
0,0365315579487412
0,0257499297741459
0,0788466780802216
-0,00176870591563209
0,0796327329253292
0,0236927740505799
0,0285675442195393
0,0284555781441477
0,0339494345371458
0,019825357811942
0,0260785303040425
0,0287229732170523
0,0311976918858762
0,0381582099279799
0,0287673357385042
0,0287410103305735
0,0413532978843126
0,0314883139382529
0,0272362831778638
0,0319181728759834
0,0450599822752303
0,00353316239997826
0,0547181353390959
0,0311184726629183
0,0367135611428177
0,0105353230323574
0,0409328974415057
0,0217912170328795
0,0332261992417222
0,0273609005788424
0,0317454509699925
0,0274827275006558
0,041229670563584
0,0240484457453955
0,0399673047400481
0,0232890836613166
0,0316571262246893
0,0323607866332619
0,049362817108644
0,0264611043973047
0,036423714239478
0,0222283709805074
0,0280919038852447
0,0480529114270986
0,0386939140964158
0,0259877622570284
0,0356308319384507
0,0294465348987014
0,0328471789714795
0,0154712627415344
0,0402635549389826
0,0247665273047322
0,0498387980182989
0,0418948121953697
0,0327100036562906
0,0298922250073577
0,0314070098777188
0,0211044351846546
0,0311296185584103
0,0651371147953717
0,0322348662216062
0,0346842674728738
0,0295557515162509
0,0315112502706306
0,0378910684449595
0,0229959335595262
0,0350817730623362
0,029126220484053
0,03340531314294
0,0277097239871715
0,0256209679519748
0,0310530146210644
0,0443525798643491
0,0312967738784802
0,027236851329492
0,0233168813643926
0,0423687026807211
0,0364348730636953
0,0417708332960118
0,0333918010583681
0,0408693918641715
0,0260434349410426
0,0512931003775616
0,0330358451603979
0,0374355211800248
0,0319382023012727
0,0372459476979931
0,0275792875211923
0,0358077967567243
0,0320336444087062
0,0408707452833874
0,0258410949928233
0,0437473298772218
0,036193786531033
0,0298514496771399
0,0369747521555665
0,0302363758795064
0,046378516043668
0,0331860355642004
0,0374111903267773
0,0378087684752944
0,0315429212605278
0,0335321041870497
0,0472291429466437
0,0439487095729713
0,0375040237373867
0,0335935727346822
0,0505325965398502
0,0382262625008323
0,0409824967530577
0,0460144932437907
0,0510745273367179
0,0657218103039958
0,0197737808873229
0,054692263341869
0,0375852073698637
0,0334543260714224
0,048907318583007
0,0425555141189612
0,0497383197575167
0,104505870397948
0,0405123325126753
0,0361780363494467
0,0345736093739139
0,0537597692371798
0,0270095129048021
0,0571696726041074
0,033978287603912
0,0683079082125773
0,039684937972655
0,0574080900786121
0,0459985682328214
0,0409346733170542
0,061587121071144
0,0435469747190018
0,0451448570352727
0,0463202315158431
0,0500141237692838
0,0463423760198792
0,0520240154911716
0,0473320383649212
0,0543571297154696
0,051266039416769
0,0598484361428529
0,0581401740992939
0,0452453025040839
0,0520759089561846
0,0573363755860171
0,0551891688810503
0,0552665257677082
0,0521380495610536
0,0439870651016894
0,0703902008584766
0,052554875487674
0,072984473435794
0,0621211520427879
0,0562060895218205
0,0705407821208453
0,0701342968548257
0,0542423948541863
0,0630070708364318
0,048344661964231
0,0585320429296018
0,061106573508684
0,0715970042222637
0,0601525944345366
0,0887602897606313
0,0611385577728712
0,080795785292613
0,0616552800392438
0,0794460831818811
0,0645107521642034
0,0810783724754035
0,0762037892312784
0,0825733310420193
0,0836866563250045
0,082745737522428
0,0929109670678237
0,0939542667963546
0,0812088725447394
0,116355529853811
0,071084618682893
0,10142564981073
0,0863079274098476
0,102488619917787
0,0940790296926428
0,105946334381877
0,0994231320483857
0,110014814737497
0,108633268731923
0,126017645926517
0,115792363683445
0,123394934884937
0,125925297516312
0,170732038843429
0,123282378164608
0,134678023877473
0,132610377392196
0,130489553334399
0,171715408672474
0,135185556936497
0,160295605699183
0,146139298035883
0,134916339737015
0,162436027702637
0,150300967378662
0,171435645361603
0,15941668767954
0,178985890536684
0,165591456813499
0,183758386516549
0,175280626180797
0,197541945263597
0,178578642084865
0,221107612051775
0,195140873173635
0,196323084001787
0,198033572072384
0,212162504882982
0,202883727594222
0,257222942616912
0,200155816243767
0,283673396284304
0,214565316325156
0,263006505432238
0,224378099337811
0,239731778340284
0,230131558314198
0,239281771030763
0,239800628983432
0,250540995326926
0,251009201705763
0,255638818916999
0,252599255647043
0,26956074950053
0,264574421230362
0,267613935731764
0,264541560764677
0,28186712867268
0,279646268743392
0,280321744425702
0,278418938942597
0,288967095999136
0,320803420579116
0,335469864632411
0,289047546896548
0,297007218653648
0,283570766517627
0,300788543998009
0,305987129302488
0,312742432750881
0,298517928380135
0,321549874582546
0,315918145389495
0,374244722765756
0,313107815740658
0,365079282670844
0,322423214878398
0,327026409302378
0,348945922059033
0,343732504726741
0,354262210834388
0,366551778160391
0,327704951502065
0,358798914440574
0,359039255081577
0,359636497251752
0,358074965672337
0,391967490177526
0,342103187728545
0,365377515983658
0,366081189146325
0,400068437003392
0,372325453163315
0,394401425842993
0,356318433320351
0,387639054428366
0,39043333677293
0,404535955368691
0,370650266579455
0,411043284627966
0,378758305938121
0,430897454029345
0,379350352164564
0,414458190984391
0,404654033402416
0,427663562562564
0,438572658927046
0,432537452610973
0,425178163336892
0,441266159520775
0,403964495225101
0,431932108196541
0,418660702094298
0,453566790577843
0,420137070584943
0,456825094467708
0,43025063241168
0,46270561126514
0,422403736595914
0,471746247917424
0,443899986962041
0,466805793058454
0,435419625073987
0,4714901772414
0,45857634934385
0,487425887588844
0,464798471180698
0,502143782805135
0,509028307437074
0,531621950467441
0,490264714263275
0,515236259270027
0,453940558138362
0,495940149338608
0,503645954778049
0,506480807402732
0,472472081338805
0,52361238205817
0,489069888028464
0,537389251034703
0,494741554323571
0,568239517458857
0,493896820720425
0,55961728114301
0,490230856568606
0,571822530896262
0,500481588318585
0,54816669629272
0,533768122108767
0,572574118723223
0,51817132429737
0,581395387091969
0,543323075021744
0,614632748910568
0,552238770245037
0,603824243862442
0,517824035479338
0,631117091401564
0,549737379836682
0,618822355318966
0,546018843230654
0,607570592687626
0,581173633580199
0,617511946951482
0,580725354434527
0,609445383898986
0,564140333998506
0,613352966069491
0,614256273655429
0,596995741110512
0,593364503102665
0,630589350085177
0,61992294704162
0,671387345987563
0,611548955015575
0,683318536050791
0,636501261190676
0,661918748172618
0,618337693636052
0,672785437767992
0,602197443586764
0,685759608118422
0,647645954780097
0,670189512574466
0,617523820758468
0,688148962820844
0,650847924009761
0,746468560854052
0,630027007802587
0,716542327589027
0,67522756474927
0,719830224882705
0,705564474113446
0,695520601801252
0,684320321729494
0,716258256498742
0,660812906677076
0,756811020638105
0,682341282386746
0,784193089402265
0,716578743449681
0,765904711948771
0,691073292278719
0,755490978015362
0,702229648687113
0,767432655491804
0,716822468052968
0,796142619058546
0,703698522944519
0,780624084501293
0,752464952870816
0,793683493348861
0,723641641282345
0,798859025402058
0,76091710739308
0,797129131172207
0,763046504605683
0,772002543451575
0,751901265463535
0,82520342471702
0,72058038997785
0,819394498970355
0,778876086364764
0,809372738900071
0,749779947556626
0,872993810092957
0,773734908117717
0,827436709402106
0,821247693486193
0,831900513602702
0,810082942974803
0,860308945512304
0,751024509897563
0,81124528167835
0,820062818510561
0,882953976305446
0,832965730605965
0,845476747797715
0,82688778579809
0,952610340687752
0,806045024927113
0,848548977247312
0,839681581236379
0,939234226076768
0,865913306471271
0,94145278185326
0,857580089208511
0,910496220002132
0,851139585274718
0,926178422196201
0,892552232027589
0,976404191169604
0,903430584094176
0,979687877072603
0,888457277487358
0,947791319107575
0,909891173519776
0,967820537831877
0,891774379176425
1,03972336961654
0,908294455884223
0,938268382492345
0,92523961389203
0,985932114273288
0,857379717403743
0,992573140882695
0,935414022311208
1,02191278202369
0,894555105472261
1,0163329004438
0,864530801981286
0,950316531446249
0,902927793818086
1,04822890590292
0,902698319911274
1,09035593305005
0,986518518762216
1,07665482720456
0,965245725920005
1,11333956889443
1,05731175284504
1,03230782847278
0,977265682584331
1,05812495445945
0,973396627301688
1,01789898766278
1,04738593549486
1,10280958508063
0,978935971814756
1,13178553476245
1,02653133588944
1,0762437466489
0,992292949396023
1,08873469949446
1,03157173816605
1,04567485938993
1,05176749154864
1,19287236733142
1,0485943331377
1,04062803162019
1,04410549283869
1,12434109956823
1,05077271479819
1,19935080261051
1,02315224320436
1,09078965832826
1,0483169256804
1,06404080063485
1,01203725327067
1,1754750380754
1,09349122384565
1,14994965071006
1,08929706729371
1,17619816588778
1,11485979033326
1,15343704584324
1,09347263771697
1,26152166464886
1,06584070081439
1,17336114787964
1,1144318402361
1,28519482485844
1,09257143753981
1,22878096198811
1,06432127729317
1,25171527757694
1,04449335105107
1,21994671639102
1,08241794708582
1,16860384930697
1,13462533021245
1,25910769308549
1,11498113477198
1,13555176060391
1,09401086169451
1,21478512582095
1,07912000455266
1,16822364763827
1,09688536446198
1,2760346940362
1,08787328924114
1,15968420200119
1,11910796316556
1,24548900812514
1,19441637843742
1,21374340549322
1,15120562667028
1,28748989599298
1,14550012550891
1,26181477022701
1,17818434906097
1,28968439981997
1,19511136491153
1,18730633171411
1,1158467908336
1,23507063253678
1,1140548333459
1,19400737572764
1,18599200884167
1,17676842580609
1,10633442107127
1,21062166612904
1,16473989170873
1,27403927858524
1,18362950108202
1,24037869641718
1,15492958989537
1,2485813441135
1,10862322802478
1,21297022082129
1,10120987293831
1,1952397759688
1,13409859724709
1,23919898942086
1,24114489902946
1,30796955876385
1,1457783942038
1,28326467647194
1,14377984830721
1,3181723305153
1,14312793778992
1,19867005546716
1,14685549431641
1,18910987980563
1,22341848347077
1,22160114468113
1,09734099565373
1,21246511473818
1,05097568318915
1,14703850886299
1,24313578176305
1,18156379311976
1,12170476496242
1,28166695963683
1,12738586532708
1,21279957194128
1,18443319734149
1,18043420110782
1,14937931671321
1,26484160604421
1,13774553512117
1,27178926692466
1,1872203694853
1,20033144117805
1,11697494947136
1,20876291542811
1,16752430108488
1,18737900316092
1,15489096902441
1,21457133855683
1,16008788891585
1,26238773118552
1,12988495932621
1,20242138338027
1,15189416917767
1,16960168076307
1,16023140370528
1,17743627249114
1,16040388127211
1,24565890838052
1,14643345846878
1,19079740692012
1,15176141009772
1,24963732017382
1,14885190727666
1,17053007173423
1,13717701332768
1,22981666138459
1,13984508062135
1,1688968158712
1,14688141961181
1,15496481922086
1,15143964610762
1,20106396169649
1,09863659089944
1,22914544644505
1,14672405000349
1,15934863226521
1,14043861644765
1,21860249262733
1,16823677641588
1,20457131621218
1,14413140233534
1,26540636921897
1,16918230380545
1,27848477229531
1,21547631276123
1,14151800262401
1,08820245720386
1,22880643160573
1,22812469355139
1,20460483914849
1,15722193350253
1,23635736158221
1,10429033681749
1,16541413216078
1,19012751157128
1,19897992122033
1,13793611956929
1,23556601297469
1,16015993123449
1,20605261908057
1,21668885534398
1,20670406290877
1,09464678492886
1,20347593415676
1,13520234247814
1,18766341378313
1,17263138787526
1,24886805645276
1,15678981705839
1,26486368033628
1,13767284292562
1,21421318515694
1,16049237499115
1,16020631561981
1,13661208814974
1,21058420971276
1,12801053883657
1,21300805099836
1,13450063403847
1,21752039853782
1,151304829987
1,15079947855179
1,08784568833992
1,17181622488863
1,14125267335064
1,17047547717674
1,13488100098113
1,22864271681796
1,1097466367227
1,17784998445883
1,18840074980449
1,25667281602267
1,13191858992075
1,17549661135029
1,13952796678368
1,15694588721134
1,096056613902
1,19806862389487
1,12105939984667
1,1070032528387
1,10934591977906
1,13725845912476
1,13698385389559
1,1701792837021
1,10426572308381
1,09402651325784
1,07536687227493
1,17727822276017
1,08940438198364
1,11514012675272
1,104562089921
1,11695025872785
1,12710729365279
1,11268838887606
1,07228170419667
1,1024646028161
1,09720443957418
1,08918604809275
1,09458770548862
1,08961831137395
1,07083296194603
1,1162104953365
1,02522908195049
1,06564775507459
1,05581733202814
1,05855313694165
1,02835730429946
1,04721244374094
1,04431974626469
1,05415797543799
1,00164776684284
1,05529893002339
1,01442872376041
1,03129561977515
1,01803014723241
1,0748831578032
1,02804079015043
1,02049294038628
1,0293705318728
1,00979338529272
0,973729057838192
1,04006041922518
0,987553847668084
1,01955567025252
0,9700329946793
0,932878513054876
0,948200315969768
0,971248578699622
0,953091652683462
0,979428693265953
0,955517403823116
0,962873363928561
0,921514233109272
0,912934534427928
0,892543066188013
0,947416594047075
0,918315596830933
0,92062766628273
0,913052689539234
0,955823807435841
0,937836567405405
0,929718526119459
0,868132849807784
0,919251801093333
0,893199110098736
0,899481377187963
0,866342005466586
0,887327845902564
0,88577432329332
0,876790237253665
0,847131457198067
0,865314956133679
0,8477530379312
0,847829939336413
0,820678393961142
0,835211013975662
0,8248662545425
0,839826324955097
0,83211522690811
0,836329473685324
0,807253081441601
0,828140607391504
0,816737574042724
0,825698636862633
0,812028816377255
0,787235083713269
0,771365752374341
0,785953945038348
0,760531227320218
0,777182384737461
0,767362482112515
0,790190142789456
0,78133936691191
0,766654431488194
0,734560371201513
0,758230937115672
0,736140385000541
0,743010123577969
0,723386265182961
0,722070763975168
0,71071405365894
0,717839131136106
0,723801698888534
0,726329438939741
0,69801733581535
0,701789898621594
0,683994809526384
0,695028036164274
0,668974881953973
0,695768589884724
0,679801686902945
0,666144058493067
0,670481001821618
0,672598439565272
0,656736538395135
0,679138740419264
0,648032497142936
0,64510972420748
0,64591248372615
0,647991326649625
0,632169689569674
0,64273961294406
0,621850837725165
0,628148501292035
0,621842597761973
0,620836384396235
0,614017454132763
0,615573513847826
0,610347349375047
0,602149857339258
0,587806837462179
0,605689844076469
0,587805981825132
0,587705560508259
0,57743712690244
0,575187921272784
0,573006235056598
0,574026224557344
0,558750181621277
0,556574326031805
0,552831238241848
0,551318405455928
0,543289516437956
0,53937895939474
0,544616848684318
0,551377471895692
0,528052132686299
0,537675259473861
0,52587983418981
0,530136363010308
0,522438900374745
0,515794357220777
0,515139363830321
0,513832159823677
0,500753511234433
0,513370476116984
0,489847583613588
0,488945929650242
0,483178692168169
0,488945096657932
0,492138884589295
0,490813321334269
0,471209565661106
0,481002499108457
0,473297494344145
0,467642876408969
0,460343506658362
0,467472740348426
0,460545147769633
0,459292818776603
0,449087973757674
0,451507281264538
0,446631755399278
0,448709258183737
0,446030811760281
0,44432025834005
0,432899708127355
0,433988785492437
0,429591017091005
0,43216298146998
0,418573040884589
0,422863486487789
0,415920644055016
0,423907580334146
0,408459477680268
0,408501623504828
0,401386622369624
0,39971114561112
0,394447031304898
0,405134978464002
0,388839638400167
0,388744131320818
0,387257976393351
0,386095610422494
0,38876844889852
0,380493905765742
0,37782744613916
0,385740895450781
0,370397248633539
0,376711678518725
0,37397573011459
0,372126304727179
0,363578510663141
0,364281389082282
0,358042346511123
0,361968597917957
0,356019542350314
0,348510466808682
0,340333110694452
0,349585468630896
0,344839583628302
0,339041596177352
0,333490851206947
0,343325753210328
0,336335941356009
0,331364143777222
0,331139085118854
0,330776376930329
0,317846647867235
0,32267299664077
0,318042050826551
0,3191137828222
0,317780335128032
0,3184074497373
0,309702539463757
0,311100288075421
0,305466202141411
0,308964327661004
0,302314929993215
0,305109062368041
0,293678219046857
0,297571180332522
0,293709730984985
0,294689704269777
0,28645875970231
0,290969206436926
0,284221159983934
0,289794013475737
0,278995017063339
0,278728866978841
0,277998214614933
0,283141460354046
0,273981592358208
0,27601773287774
0,270921226267431
0,271711389270019
0,266540224361385
0,26718692443801
0,265061396749165
0,270527948449805
0,261048619079216
0,259188909563954
0,253979597203577
0,254121934476159
0,258042717833455
0,254573054663394
0,246514143240323
0,249818558525154
0,247319504231247
0,250213968473243
0,247271133326449
0,242206192459857
0,238203791122116
0,237799625467838
0,234131563075711
0,24308819875181
0,232845436261145
0,233822365531684
0,22863180761381
0,230548224376679
0,229286252683544
0,227934328692415
0,226852637935697
0,221955792827905
0,218169680971154
0,217350748089773
0,215370175063233
0,217670446246877
0,213213298105779
0,21243062717985
0,209549097653266
0,215760465577852
0,206820197386448
0,208422726221782
0,200834804487782
0,203295389398426
0,204432473753776
0,20190489388298
0,203620961695515
0,202345277214657
0,200089563805493
0,200376789758771
0,199411434876376
0,202001935288654
0,195162786277192
0,198100693237977
0,190186298874699
0,183898482118932
0,185329624770123
0,195717163769491
0,189722072067083
0,18885622903337
0,189026376155915
0,184886941185608
0,18038227359383
0,184119009626999
0,175419537037256
0,17816767505231
0,177484125030818
0,178343569302957
0,173864019125454
0,172504334851426
0,176549455167738
0,174840598232712
0,168612984816799
0,17053512169509
0,16213504549998
0,16738598109559
0,16035395792341
0,1661125137105
0,161310466551569
0,164183759316946
0,163309759362609
0,161051142776958
0,162273041420087
0,162035229012897
0,158548003171597
0,159157880783734
0,15201974198328
0,150103766493009
0,151595973012615
0,158452829476861
0,15112160022946
0,152118332271934
0,15396045016269
0,151461191129784
0,147239492510451
0,147609410473628
0,149478846179769
0,145364849300135
0,145922422002569
0,147946729859886
0,146110009297142
0,144244035425602
0,139614149034317
0,144871718861726
0,143959423926363
0,140330777978654
0,141462800809523
0,140869422052602
0,138897219271501
0,140518446140844
0,136164098306969
0,14109816937194
0,138177931423388
0,138579058137616
0,13675929350048
0,135961928946
0,128681634489597
0,129726912409454
0,130220045291711
0,128527181561734
0,128139029660756
0,126578485960021
0,128725282939888
0,127132872637362
0,130169313782396
0,128674516856864
0,122745090295929
0,127421138239054
0,128018559511674
0,124235615620565
0,119781695443908
0,120657634784586
0,116807348052374
0,12370529793019
0,123047528954259
0,117382136798068
0,118300648686846
0,124037356119716
0,117795032702784
0,11743468772971
0,115975503796695
0,115639362176925
0,11069785133497
0,116303832605717
0,112897845373312
0,10955896355276
0,113918020072067
0,109864802721755
0,109921487965866
0,107293200492407
0,110150723236901
0,110799056062819
0,10465265743316
0,107987155133912
0,10402250577761
0,106685938834559
0,103532423000821
0,10322874179601
0,10692228809209
0,107285907007331
0,105727126031619
0,107611831299394
0,104429827892537
0,103903950533382
0,10664874601603
0,106974957752169
0,0997648882804941
0,100688849479502
0,0995920342241702
0,0965875351161173
0,0993972440399387
0,0990549317574213
0,0980760485537083
0,0980259127468358
0,0931481174634701
0,0963491282536782
0,0941629341961081
0,0965293574857823
0,0966528904694455
0,0951797229818623
0,0978187309365662
0,094044450510511
0,093815945508305
0,0947217651623497
0,0912851023361832
0,0935421984532793
0,0929997658576177
0,0904140184168624
0,0876483364779808
0,0912769978169741
0,0922921484044214
0,0936696052682585
0,0936639246578836
0,0925692598837921
0,0884764642953873
0,0889778941400438
0,0901597256693364
0,0896764469474511
0,0875273222211638
0,0862873424458341
0,088254867229746
0,085429355694468
0,083079711793193
0,0857056003451507
0,0877966552372475
0,0852138125059992
0,0844914621965388
0,0863809494431372
0,0852099302185476
0,0856278869928582
0,0870830343257727
0,0860771367621205
0,0851304726969138
0,084103675348698
0,0823986166666133
0,0833147078131816
0,0791821930671537
0,0820164620121613
0,0831592941959244
0,0803059707763386
0,0826588757273225
0,0782622596118759
0,0796089494622975
0,0800606237103879
0,0768991401210059
0,0795214866936969
0,0776226210105091
0,080300999936157
0,0759319326056925
0,0785703645363796
0,076805444642887
0,0772854274850806
0,0751562216426915
0,0775465585408198
0,0789875758890748
0,0792246937296724
0,0769648045922063
0,07433882802607
0,0751029626096221
0,0770103655120885
0,0717839709542255
0,0701233954368915
0,0780128213146445
0,072854315952548
0,0765648240292775
0,0737228769178966
0,0745480136387403
0,0766663755056179
0,0719909285025157
0,0715542616005573
0,0740713949410107
0,0699868474331121
0,0751106333051094
0,0663317872100731
0,0717100007726193
0,0695336476871792
0,0682558545886463
0,0721197164446039
0,0732163398747681
0,0708291403464982
0,0696345129838272
0,0706662126535901
0,0674492838986187
0,0669142932604585
0,0678898802679261
0,0705311885920139
0,068131388514414
0,0689505807500387
0,0713523596010665
0,0701066736780078
0,0702900877399055
0,0693797807626958
0,0699073448499414
0,072503767433703
0,0680597896437141
0,0658677838522359
0,0718121658900476
0,0687274534920853
0,0675289955796707
0,0665886355817568
0,066589014961392
0,0679259161271773
0,0663302650110563
0,0679358597716172
0,067125783030159
0,0674456093409421
0,0650094271093069
0,0643704129546741
0,0685859582444506
0,0647899259733863
0,0630818268010492
0,0636826514125947
0,0644345604875054
0,0649262330980744
0,064504174446318
0,0664504822099494
0,067400223878192
0,065815074379195
0,0637404124097073
0,0628039557992764
0,0649706758790293
0,0650271812548353
0,0648320740215757
0,0661265840865217
0,0638324125850385
0,0644353860267698
0,066299985757058
0,0630942514369905
0,0622174895882336
0,0620019855390361
0,061671741812508
0,0616418497453914
0,0609746546933379
0,0624437611452164
0,0610221922577654
0,0618581399444606
0,0634731452299445
0,0621863327823182
0,0613074565569588
0,0610112603864001
0,062460906105315
0,0597747985719832
0,0622531188642489
0,0590664081312622
0,0582417804674759
0,0603790035212679
0,0633433674277968
0,0633225615296975
0,0610530197424354
0,0614348727622798
0,0566567834937013
0,0638083481715597
0,0602826404108489
0,0581214287577729
0,0608898012045415
0,0587030170250399
0,0577829959625332
0,0586635476242213
0,0588514094830099
0,0578663870344485
0,0593262941400581
0,0580146002146162
0,0588017030655515
0,0575943164749976
0,0595626517599199
0,0592991595071641
0,0603186159232534
0,0603397152545299
0,0576991840376643
0,0581984310226465
0,0621229706397292
0,0572616406232939
0,0578818863836201
0,0568229956103807
0,0593704995597458
0,0560991235808123
0,0609193597278017
0,0615149299814808
0,0578969388197854
0,0575721490760917
0,0573382315042586
0,0579890981655849
0,0587751230802986
0,0591623940376317
0,0605084649895144
0,05826879788155
0,0577684746388253
0,0578874051317134
0,0572230768632431
0,0552106452979765
0,0574855394417967
0,058132789597406
0,0605821754964019
0,0547534192576576
0,053991443084948
0,0557037513403026
0,0588183685495
0,0534674559791225
0,0581799802324732
0,0574895404214244
0,0582017751628318
0,0544811107095387
0,0586512614509316
0,059031033847652
0,0565838538155522
0,0541302178881252
0,056449297959756
0,056378292330129
0,0543674563996876
0,0537239904208214
0,0577926912491161
0,05384159669591
0,0553728781015659
0,0563181527517814
0,0570681901703632
0,0544116336127858
0,0587383682382434
0,0529309487418451
0,0543891260257832
0,0571742700903525
0,0533305745097171
0,0548432147179062
0,0536068414753321
0,0534880839038754
0,0563115966724488
0,0582288573472646
0,0553918569055025
0,0539830572078768
0,0566934515326219
0,0558603291311001
0,0542567997130998
0,0547712452822176
0,0558108059110091
0,0549256232809517
0,0559953536956158
0,0540276124765491
0,0564903584012617
0,0564248441495271
0,0561909434745779
0,0555500318534758
0,0548203727931429
0,0553375237788339
0,0589684095162346
0,055994007790758
0,0567405127996975
0,0528335761267348
0,0557680982905896
0,0523743820047964
0,0549965474907259
0,0523027506838056
0,0529745173878158
0,0553428970541753
0,0581064806211541
0,0528313374382149
0,0554145811224341
0,0583183609903956
0,0553054072162702
0,0569213111143118
0,0570567197589711
0,0543992326122826
0,0530698800777845
0,0558208600702238
0,057379961303819
0,0565500687937889
0,0579981180627606
0,0521663530832153
0,0553948668942481
0,0531975461912155
0,0565415333841575
0,0533492098242623
0,0572332488436591
0,0542260897304955
0,056614100516312
0,0550701014129022
0,0527725509931855
0,0526374849640772
0,0576020075234506
0,0532724188714118
0,0561622494683244
0,055746694866355
0,0544903810444058
0,056369766218318
0,0542809296726093
0,052122346119324
0,0545521919982471
0,056714812639555
0,0594547791081622
0,0579901556915048
0,0555154902467391
0,0548927305515537
0,0557668005774876
0,0524288791810083
0,0557338208988569
0,0570228454699612
0,0579251983904282
0,0559275997121888
0,0584496765897096
0,0556359745249399
0,0547925903723686
0,0550874452072593
0,0566235218720085
0,0569646339437759
0,0586009643869609
0,0543659120757828
0,0562769484044527
0,0558137640159215
0,0566291582017428
0,0588327750185839
0,0563414174424698
0,0567441946030136
0,0594417841109443
0,0566532443988897
0,0573527950200602
0,0572631668826977
0,0578041831540311
0,0535792792214193
0,0578834923240406
0,054695784788307
0,0577723163812658
0,0582928611904483
0,058862449331868
0,0552793131233995
0,0555940052524264
0,0569705856039049
0,0604000801569485
0,0549050726900352
0,0569164314710467
0,0556192637972914
0,0569288298656658
0,0574363618575527
0,0572909669134813
0,0588687384220862
0,0577400001186026
0,0533652815890597
0,05765757842636
0,0578939768766342
0,0592209105009546
0,0578665983558521
0,0583061859973759
0,0577496693115919
0,0575917669458097
0,0554951604721331
0,0592266382310525
0,0592803790020244
0,0613548228835626
0,0587380938663328
0,0585386605941011
0,060113824832633
0,0591756528724693
0,055773926994248
0,059101660262946
0,0599031748430388
0,0593616532111791
0,0559110992153225
0,058598879386622
0,0592519677136262
0,0599436756174621
0,0556167780850214
0,0600094630140112
0,0586996514020145
0,0573633649854265
0,057820552866493
0,058469093095821
0,0586600838755918
0,0557779804412259
0,0565431940690258
0,0607506639568027
0,0576599111656035
0,0629394114667625
0,0596929769544712
0,0587932949557834
0,0602435324456173
0,0601618829614847
0,0595133199619615
0,060111656739313
0,0566203871847929
0,0597850670880891
0,0601561235806881
0,0631884720579305
0,057065619743991
0,0582415441443819
0,0579541673334628
0,0626691676069293
0,0582524609316486
0,0609787254661983
0,0594640297343837
0,0600243270846616
0,0592124780642446
0,0606846899026529
0,0607172215437546
0,0620502611331325
0,0600747466227141
0,0576704012083352
0,0588169421681994
0,061472626584272
0,0592579879624314
0,0613810678075871
0,0601500730688107
0,0627039758879654
0,0621405292153889
0,0615710173784539
0,0609571818366351
0,0615270576858624
0,061561889601509
0,0614990840703515
0,0593504647703382
0,0617682543196172
0,0609733474644788
0,0627296967151467
0,0599098454129967
0,0620056527195831
0,0626277480992349
0,0639406290796734
0,0602113384770861
0,0636157638395779
0,0633490423540062
0,0636683753482426
0,0633828710436987
0,0644066590491033
0,0601747933502147
0,0639902646849396
0,0624111463884183
0,0606217635559515
0,0629432384133656
0,064665341551377
0,0643616095381972
0,0630110705016129
0,0620365040420692
0,0644805666485253
0,0645432477230475
0,0649205004025437
0,0621319854822524
0,0648572612504817
0,0630076770317399
0,0648865071762821
0,0631402109575403
0,0648284125969039
0,0595159740936463
0,0664589103427569
0,0642176857831661
0,063770357141433
0,0642389217971745
0,0669707839652097
0,0670140956014739
0,0646404715702169
0,0654159285579149
0,0667886735883246
0,0668610918717363
0,0671541494809577
0,0678465317243082
0,0678628081941557
0,0662663796112195
0,0649994490404295
0,0666445975164297
0,0649667237996352
0,0663573554083149
0,0665896688479203
0,0664233410900652
0,0670428220932237
0,0680302565244739
0,0653527074506746
0,0648401733871791
0,065637703182483
0,0647869760998664
0,0653564840035873
0,0672934547949076
0,0685198364926161
0,0665864788275286
0,065033057931982
0,0660047627290951
0,069702689020345
0,0673489038799579
0,0677237321117514
0,0679878335605023
0,0656440338422219
0,0676605120709243
0,0708458848104074
0,0675696068022244
0,0719318072289448
0,0717475754578112
0,070877592742919
0,0733873372014495
0,0732600255304617
0,076264979227015
0,0766443800504657
0,07693806744979
0,0783645915478654
0,0772989790778758
0,082241689291379
0,0817914221852184
0,08141026784421
0,0817320467139264
0,0789167073036209
0,0732375787668956
0,0746166777407772
0,0801484290315875
0,0829051574243406
0,0763387123787164
0,0746674217767081
0,0820869036405922
0,0789592022596764
0,0860920015132172
0,0852112773485078
0,0854050186563407
0,0831895214062364
0,0815025995578833
0,0798637578283059
0,0854369844962602
0,0740523863800032
0,0830743369211892
0,0774716370125476
0,0743180563033425
0,0756719103192273
0,0786342182796566
0,0686705901521929
0,0860228856042631
0,073973527603325
0,0844604753534791
0,0734232965790391
0,0850298551817206
0,0696351824857288
0,0919579374379819
0,0682402535365045
0,0936694985773229
0,0657816274958822
0,0979255856927556
0,0734998122493731
0,101819195704559
0,0629796809864276
0,101054420597282
0,0545581060182559
0,0989201287764099
0,0551155610873901
0,114397202087366
0,0620452170622975
0,11606491666128
0,0507999665703686
0,109667273440445
0,0531721664158549
0,125750498820279
0,0520212708913081
0,10849060578777
0,0535363311022664
0,117828968451627
0,0606995922262115
0,096234187346938
0,0719872529816638
0,0897611745934432
0,0788934928102446
0,0773683264619794
0,0970461710000864
0,0661071232206245
0,104135021814704
0,0627898271029524
0,106119810477759
0,0611682458212673
0,101381948610595
0,0679890583041647
0,0955111191413868
0,0752929386045937
0,0865811626409922
0,0808487095340125
0,0795354614707657
0,0830940630562549
0,0809707843424594
0,0813306765845697
0,0855732127353669
0,0769151783612197
0,0873832804734278
0,0788523387858919
0,0889079396721059
0,0767346022612757
0,086823713366145
0,0785406609335201
0,0850247762530881
0,0812465582272264
0,0831759994689748
0,079607727197152
0,0844400576741619
0,0773902047486045
0,0872633753383999
0,0792405988974959
0,0853597764786154
0,0787035486738979
0,0879380276483673
0,0817676301090994
0,0839678253968759
0,0821552049131035
0,0860777349033031
0,0831317483008286
0,0860904735551568
0,0813615566478249
0,0854967329720631
0,0840157172619725
0,0871870839351752
0,0852076260235101
0,0864371156221602
0,0828096565494061
0,0864782101695971
0,0858994626507986
0,088176337728065
0,0833370299835036
0,087030354609411
0,0859864724983248
0,0886665660751784
0,0864305501175112
0,0882520036194257
0,0846931829681888
0,0881520019344757
0,0839811916357251
0,0914647666071126
0,0860157393494251
0,0908175667520557
0,0850028325620537
0,093474706148846
0,0847125178759004
0,0942659408611992
0,0889194907319254
0,0917849551602908
0,0873284051757617
0,0927134222809733
0,0861524575122984
0,0933131314787913
0,090390511278977
0,0948434771113921
0,088509156123341
0,0921218063688077
0,0894980409372245
0,0927026933602801
0,0897121771109118
0,0931751000976466
0,0902849830333795
0,0930723184455587
0,0884223343479375
0,0932572001131974
0,089410157612962
0,0944749774368117
0,0924700631270738
0,0960524058954468
0,0938398093966831
0,0955833442267572
0,0919930751893066
0,0951684424909709
0,0925691816604638
0,095313612092721
0,0914087130364589
0,0983124637505839
0,0937396926683501
0,09796171646557
0,0931553703244401
0,0978267663109529
0,094520615959946
0,0986271806574307
0,0978985413230017
0,0994747178917492
0,0944768922253441
0,0988352221939494
0,0962035002783875
0,100027399047847
0,095833600902417
0,099586218360382
0,0952474934762272
0,0997474741022797
0,0976420379115828
0,0999963503723857
0,0960872099981644
0,100347592496502
0,0977440736164442
0,100515860531649
0,0990710483240909
0,10259879406358
0,0986317178271678
0,100966068666954
0,10079254959857
0,103493549092424
0,099049135728321
0,102160534788312
0,0985006153575251
0,104109198890885
0,101726712012983
0,103844570795904
0,0999800316602476
0,106302578002834
0,100558927681951
0,104277964232469
0,10094560638913
0,104750759919163
0,103240142672878
0,105651272173251
0,0999347091015064
0,106793028681156
0,103802804254149
0,104747094385888
0,10468446280027
0,105116376291099
0,103916067218508
0,109298586457149
0,104699413911286
0,106456857445639
0,10417216149327
0,107301682161317
0,103728711432683
0,106618143185119
0,102600042189654
0,111811491012685
0,106038165647224
0,106835804293788
0,106519679276478
0,110095552439906
0,104739370684464
0,109013045337805
0,106728200638363
0,109382708124624
0,104761420660925
0,109863534351454
0,107878840773103
0,108439347146794
0,10600547505392
0,109340827619694
0,108960721487553
0,112126248897589
0,10714468385932
0,111749952534749
0,109916069765194
0,112290352906179
0,106769376051361
0,11223300345952
0,109182013169457
0,110812505261824
0,108964449584048
0,111882904888534
0,108058747709733
0,109746654307818
0,110678146468401
0,113044421875129
0,109359827541444
0,111413385825936
0,108924513036097
0,112977698754079
0,110441361109873
0,111140165491919
0,10673560520583
0,112964902419833
0,1098594578768
0,112612558588651
0,109790009493223
0,112350970508974
0,108742295956025
0,112466856440608
0,110450443162488
0,115684500334544
0,112747627481251
0,113649373719884
0,110631169804047
0,112752150865136
0,110185106764073
0,113342260754548
0,111618856313146
0,115647353436405
0,109407005451977
0,113655063851752
0,109003089992172
0,110948502417323
0,11199340902897
0,115930642524119
0,112298990391679
0,11272953807756
0,110626245526789
0,114548949038821
0,111392742341199
0,115602246082388
0,111113776462915
0,113943637268446
0,110095889660057
0,114822773411887
0,109337848452961
0,11335532367389
0,111688944029425
0,113159237371437
0,11208318475669
0,111964476574886
0,110990604623659
0,111908978270445
0,109722395890163
0,114800864296021
0,111642332351264
0,111933066515491
0,110835481844245
0,112806778195742
0,110161791078622
0,111880140339161
0,110108781193969
0,112674136870721
0,111000813622977
0,113715751191386
0,108981986386068
0,112655587051429
0,109217459984221
0,110742009439248
0,105690056761926
0,110547930633843
0,107759119889412
0,11011712780115
0,107225319199692
0,109865343821549
0,105002838370365
0,110928063909296
0,107600530909702
0,109490163232516
0,109446163052969
0,111229197536047
0,110269734354948
0,110988878558085
0,107538157680409
0,108841424852768
0,108246855881805
0,110102875589606
0,104381768982443
0,110108731055828
0,105831508648491
0,108611472573022
0,107068449284535
0,105712074236185
0,105587682051424
0,109135880639237
0,106644993105074
0,107270382711379
0,104733734865309
0,108129220474207
0,10710056089644
0,10625795773089
0,102561566826405
0,105188388306225
0,102447301522896
0,107103788149298
0,101647505719326
0,103120112972032
0,103627516676066
0,105774047995624
0,100509899200343
0,105145520798221
0,101305065431662
0,103240282768978
0,102009954389317
0,106789730726195
0,100239045941579
0,101662595879337
0,100588557339485
0,102970788748875
0,101786783676719
0,103949439831732
0,101314255278365
0,102983642297311
0,0998909274815779
0,103798375278342
0,0999287160292405
0,0998949283267111
0,0984142794522849
0,101121499788397
0,0954455991227874
0,10109388028208
0,0975041779441348
0,101614549724697
0,0975280762088616
0,0984134176318467
0,0964676932836466
0,100878358002874
0,0949081564699129
0,101154260526667
0,0983529981114884
0,0998774431353925
0,0942058625689882
0,0976368998958672
0,0952137810824034
0,0972099828561423
0,0939649786552983
0,0935090111421127
0,0934515190455385
0,0958809178985323
0,0938127700123631
0,0968299494948668
0,0924137401830784
0,094287101854747
0,0929127205269632
0,0945740531655459
0,0945623239068237
0,0959543465799524
0,0928676750012928
0,0932991048658023
0,0916930197873498
0,0922414140561027
0,0907429826604787
0,0917295993524494
0,0910360132586392
0,0922633665613805
0,0915863187844873
0,0893141661427733
0,0948934295371179
0,0928311645046593
0,0909407508015915
0,0916446359362147
0,0904604595874235
0,0886476832390214
0,0891478940999599
0,0919020922716738
0,0877276998088572
0,0907506774956565
0,0882810039029637
0,0863015075435809
0,0865046882803405
0,0883091650143673
0,0874431518466678
0,0888055513863617
0,0860020212454066
0,0860523751962269
0,0849249166419479
0,0858559644702357
0,0848991938950257
0,0852730550599199
0,083809288223462
0,086088647486901
0,0861163469740723
0,0869707337353432
0,0859986436320127
0,0862636463622961
0,0828236626080666
0,0865784154634991
0,0817283316581151
0,0835420957941664
0,0825413092038803
0,084563341556105
0,0821758521440126
0,0838519411881511
0,0808250170944136
0,0842268879099681
0,0813018402774523
0,0824635929926857
0,0786575006344943
0,0843929842195466
0,0799289434816153
0,0805842571326635
0,076755462102994
0,0828813035765453
0,0794906115101961
0,0834415911884774
0,076285458283266
0,0804649865713122
0,0758919590396945
0,0866480822325053
0,0795105383436911
0,0888081440827004
0,0732087430125399
0,0794980691591055
0,0782836242194584
0,0787058299261831
0,0776317791166857
0,0790204075082769
0,0771269207681814
0,0803623768585632
0,0773771973056793
0,0800066998750228
0,0746471160386531
0,0789312488703029
0,0768515418881516
0,0789291626875587
0,0748151074898828
0,076043956899484
0,0755993540149003
0,0754912001403762
0,0725149385663612
0,078103295839545
0,0789718160796858
0,0838159102458855
0,0715171697892
0,0797926401883253
0,0760258238186295
0,0791080831003108
0,0815437861878432
0,0696059582592022
0,0785686641829849
0,0725512893506418
0,0761138228504451
0,070972118343401
0,0764659218944681
0,0698218197365892
0,0792764405322795
0,0723233342803085
0,074153064305162
0,0738579124737013
0,0722202621358778
0,0760796835630989
0,0737070284677997
0,0728731508649812
0,0723994816589017
0,0744524414301053
0,0722957864381808
0,0742174798895645
0,0727111046499676
0,0731508058179158
0,0747955577370932
0,073797004560824
0,0765391462879807
0,0696051475732133
0,0743926710691732
0,0697657472554184
0,0756971864471759
0,0733029572623685
0,0775857036728379
0,0698099878161979
0,0714727669356847
0,0745460537010472
0,0700555399585478
0,0752966396739266
0,0692109478080079
0,0709197625248198
0,0694841915833734
0,0725804518106724
0,0683113431685847
0,0733186152337746
0,0692556066865891
0,0725684197238012
0,0707525032142616
0,0726078051107266
0,0707037212130035
0,0740181583048951
0,071878450988089
0,0732606757127703
0,0752265230502522
0,0767545331798809
0,0843068753054273
0,0702686076639127
0,0767690873731735
0,0696751478649493
0,0719684382811022
0,0691354923608474
0,0723468023638349
0,0695851533247425
0,0731977424733032
0,0708099678047476
0,0716742880330912
0,0712249022618214
0,0711452664539231
0,0707861842198555
0,0721996518543069
0,0682570356350615
0,0698962199775736
0,0728184952526927
0,0713106995280298
0,0734998873457501
0,0720783447435281
0,0752913177420357
0,069043184875157
0,0778390234828557
0,0658576588183955
0,0885155560195723
0,0668304816965863
0,0914682136145401
0,0673385339338819
0,0782011709943266
0,0691845964782788
0,0764857875806426
0,0694364317515201
0,0736654789072259
0,0711157675973844
0,0728894421392276
0,070988384279453
0,0771946143783406
0,0733708934896933
0,0735707858379967
0,0742647174595197
0,0792399661998483
0,0806411540350814
0,0781870406446819
0,0670899745585744
0,0805419290223565
0,0712254895437093
0,0845483702486102
0,0754127930270202
0,0707888828084478
0,0775365394883846
0,0729447497054509
0,0762530287237294
0,0722266545084835
0,0780379547936862
0,0765895260417912
0,0754959872425333
0,0737157950937992
0,0764182622928789
0,076682342333486
0,0732798831053365
0,0835483015927598
0,0777938291537366
0,0793692361196404
0,0767745326211113
0,0765750372761294
0,080406267672728
0,0741757856245999
0,0820986195774016
0,0739365173517664
0,0825338319800727
0,0797459536801119
0,0818952644983447
0,0827229184911033
0,0812259161607343
0,0829918798098846
0,0812351834309263
0,0802182567577326
0,0890416673098509
0,0746407655309444
0,091953629540527
0,0732384857113105
0,0993567961107428
0,0860176086921466
0,0865031218548093
0,0863763567487663
0,0786778900549559
0,0846076686561619
0,0795439656072893
0,0944262967538285
0,0799813884435415
0,0986703648226465
0,0755694522185137
0,0993858624303624
0,0729778385015421
0,0963727130967827
0,0826660907352789
0,0914906383205689
0,0828341140473801
0,0951212266403059
0,0809130618741576
0,0990190656753126
0,088251561655302
0,102184996055083
0,10177639547587
0,090300518491109
0,100411525872307
0,0992515880194211
0,0891249560647198
0,104218919190763
0,0876266709768949
0,103500751645171
0,0874832680256656
0,106446237841863
0,0986874065340108
0,107753819218777
0,106316154071406
0,101670071546796
0,101317816651227
0,112617705549906
0,103456719904713
0,112314340578207
0,0988956338974973
0,11277260699466
0,0982454558908469
0,12732196050627
0,0924405080465626
0,141017934759193
0,10117127921151
0,133756169428038
0,113784475217045
0,122635008260403
0,113815168579392
0,122276007536196
0,120923047845199
0,127189277114394
0,118321708280364
0,130166254625056
0,120031021152148
0,134497555094215
0,128816936734501
0,123603234020889
0,132389625690005
0,135568711966679
0,148845795324186
0,157997410259574
0,137773080010366
0,140599551832838
0,146158226883893
0,145019906976054
0,15167197632511
0,141726383782074
0,149181329358194
0,148999593679201
0,150644694144733
0,159394637337981
0,153432715796294
0,163684370468143
0,154730967108047
0,167943547703527
0,165559227492853
0,187992644431984
0,181455159529849
0,177722730336331
0,195854524859804
0,172787301478552
0,196454688240641
0,178785840577074
0,19612157745116
0,192683052548362
0,196298711433193
0,202047619660933
0,199589490377925
0,212968854621255
0,205766134749422
0,228368377212817
0,221188147949057
0,230414487356383
0,228454254256171
0,228479889495539
0,274141238185602
0,198404681249909
0,279460621723224
0,22163171716724
0,274492803888793
0,249899400494808
0,276774805749131
0,268424612485309
0,270937168074263
0,274365564533899
0,282500779435255
0,284687597707934
0,293295523827479
0,298025764352597
0,308832144578424
0,300706383423351
0,320185939388559
0,315730880076746
0,374379297402628
0,340751881091103
0,341352749942158
0,341941549744789
0,35748485905731
0,352126266268932
0,360243526076564
0,353199339514317
0,377749293043613
0,373068272366374
0,398956609868105
0,398312937764291
0,388405689913124
0,41569367544518
0,390797974689553
0,434962142779548
0,393571049051576
0,453904111034947
0,417238087602635
0,43981574855081
0,433183550714495
0,447394904176907
0,460550485992579
0,45959109331137
0,481986010732863
0,478342632175768
0,483352245894143
0,480826221099363
0,486495609643077
0,497053868461817
0,501124745747205
0,521399790688546
0,522980223808627
0,584755682389857
0,532643193736211
0,559456188815882
0,515898789279284
0,536407827534034
0,547555437761078
0,550047768268971
0,574701016026084
0,572080930605728
0,584965111490662
0,565244027998222
0,560984175033182
0,577926608006642
0,575497673775228
0,578064443489243
0,57213898458848
0,601205988949059
0,566531222731368
0,600996156680593
0,578692005421778
0,633632134857226
0,589706188040496
0,573579468427718
0,586168223363045
0,577519024412638
0,572273069139154
0,568968096566176
0,581534556687948
0,575990985768589
0,576056818566578
0,544774743406859
0,572769963011461
0,558775112968454
0,581363362778863
0,546354007936608
0,530686510530033
0,543425495588928
0,517163552778373
0,523515141026056
0,526977624717945
0,517666154486509
0,507273580670649
0,489800841730419
0,495815541504777
0,476124723784449
0,47423993944627
0,465697609721863
0,467477627161232
0,459624750306727
0,454798268727953
0,436250024941039
0,438497421722442
0,417703683247534
0,421920165832473
0,411391425268752
0,409780182029007
0,400021677584899
0,402083851537081
0,386725891960777
0,38021185808515
0,375610747066182
0,378668017829002
0,366807864310669
0,367295036154023
0,360431167418196
0,36435453440191
0,347350509133726
0,345911965844741
0,342491766145561
0,340216876510961
0,337688713628352
0,333883181551413
0,327333826410855
0,32573397026086
0,321614985128593
0,317984835652028
0,312346264757494
0,313889914638682
0,306016021621019
0,301448911001027
0,299588668300472
0,292803148301103
0,319280912043626
0,283462761332946
0,305515751844
0,285880723057784
0,280981208217404
0,289124944540847
0,272013790865337
0,293005679943365
0,274930017155131
0,286732032770223
0,27095401746401
0,270731257101972
0,270067270062469
0,268779497248722
0,2613644415554
0,271311424176807
0,252729308801296
0,284063293979983
0,238759845346369
0,290656770299964
0,28343282052644
0,285764995596632
0,259987192250256
0,250528636411668
0,278265125872795
0,241019149854383
0,260116763303459
0,233788299772531
0,25844672020695
0,232058586722579
0,252700354720467
0,238190628301781
0,233624745338018
0,245182406239852
0,246203932259636
0,240416142640983
0,245383240058678
0,250578908362614
0,241380201334071
0,251857455491893
0,238462454224625
0,26865091328123
0,231813754535612
0,228561878472929
0,218281234728885
0,224587422332645
0,236821640189785
0,218696593904773
0,23825424163975
0,219422033519382
0,220719508677457
0,219769048040665
0,221131298992737
0,227274748452119
0,213316667860175
0,237799944755537
0,199804875312212
0,236277583386818
0,202745535280289
0,23861350479948
0,222985205621096
0,237836217609349
0,211286648896727
0,216658975632803
0,230251849259713
0,215644378843456
0,218538688767963
0,205040085781759
0,209226002588915
0,221529109830266
0,203257516805849
0,217069227008289
0,206480213824047
0,217139809050886
0,234571989786586
0,220191433228827
0,245814681043707
0,210110732874923
0,199258264357577
0,203265281839264
0,197135788531279
0,209864462329466
0,188674518080577
0,213353113256356
0,192669998833314
0,196041636017272
0,215422837221398
0,188816632604643
0,207701925909896
0,194670738761666
0,193039774042884
0,196520704791302
0,197963825110082
0,205971544405086
0,206550659035107
0,194573753281638
0,201370817972339
0,192762454443719
0,201851679190441
0,182485306550347
0,198106059204468
0,185656457165529
0,201350487419025
0,193033082111628
0,196086228928849
0,184863703123408
0,191819071167067
0,191326953296761
0,216687305071012
0,178453600898579
0,216043181607083
0,176422260159795
0,227560112506811
0,187364389546094
0,19874739490617
0,194247682638953
0,188719122758982
0,19227998642016
0,188970826957685
0,191100564170461
0,208674314033879
0,179738077908014
0,207248447444064
0,178680063846626
0,201486514124192
0,176868299138287
0,206322225938584
0,185405389694846
0,218282131906175
0,207997907600143
0,195148020820857
0,20183489624023
0,184890743044147
0,197591261861408
0,184693313094858
0,189273240914212
0,190877236011559
0,185588253443181
0,201539863513842
0,186814064411956
0,196012052725133
0,189617420682694
0,188519084173424
0,189913478555832
0,186917757829597
0,189758424436255
0,187410605725296
0,187645859752768
0,188060986363493
0,184493248401976
0,213528318447162
0,184764387256267
0,198524220587546
0,185411145114762
0,188266702967985
0,193817962179898
0,187796298565487
0,193308375495025
0,190246763051132
0,189292228279575
0,191683899215204
0,185584603631368
0,19211363723069
0,18267058191437
0,20374572666463
0,178878800869475
0,201825117650679
0,178532721232476
0,191601343618459
0,21408845157396
0,184093122510945
0,207091868203394
0,182293892239158
0,200778267996021
0,180602129935887
0,194322507676346
0,184743770803405
0,193206683455227
0,185435216344777
0,193259219051966
0,185235846450378
0,187360790353471
0,190964032230409
0,186478618749295
0,193927076899569
0,186159471694946
0,190597488558401
0,187137318336802
0,190680571788357
0,182348010687607
0,189685767822606
0,19146320391205
0,188815395172577
0,193422824672449
0,181161621895255
0,203267537583854
0,194128533472453
0,186002231699693
0,189347955417507
0,185368777986101
0,188329395359249
0,187990977291866
0,179514709650743
0,20075574924992
0,184954665673998
0,198405333551828
0,180057367222856
0,19274242962365
0,183702018795119
0,189455950745588
0,182542611632616
0,191569138803614
0,183636612712847
0,192883697993768
0,186585596033104
0,192901219003209
0,187036598621485
0,188297371534438
0,19842780047949
0,195112223554178
0,186448704901477
0,191862099150695
0,18485100860572
0,195622180882702
0,189014404937627
0,189728689047413
0,179385393129209
0,19425925925775
0,17656948751287
0,20230573611352
0,183187992663945
0,193528673518251
0,187910464914333
0,182704254309821
0,188159149966964
0,184174278489048
0,184915883147207
0,184280638955659
0,187179150151313
0,182699451865846
0,185441368905673
0,183273376305559
0,183422475682315
0,183008474771758
0,1849670594592
0,184273059731922
0,181999944064057
0,186760095871095
0,185084115628559
0,184341992761186
0,182208802922666
0,186263518983648
0,182049219165912
0,184251891495999
0,189088980699716
0,190014305630515
0,189083257898063
0,183051182708782
0,19001695868123
0,177106910650236
0,184422746122412
0,182533790387348
0,183803889549564
0,180383229604254
0,18402149388803
0,179132010360216
0,181970381595969
0,180499704793336
0,183894958959792
0,179624912962219
0,183797690852205
0,179947099716748
0,18537736465591
0,181487243619388
0,180849910104775
0,182843251048482
0,180000112164371
0,181037648885364
0,180707021806693
0,18752510762353
0,180846846709452
0,184340562672688
0,181008093166177
0,184571848332623
0,182548476647965
0,181149379184197
0,182305562698284
0,180593071900326
0,180711170989283
0,179714377370312
0,182661605009001
0,181869991629362
0,1815096179281
0,181726909453144
0,181462000056778
0,181489632952921
0,176487594760828
0,181669429549292
0,178950004349628
0,181093983957264
0,178934332603636
0,181237815901266
0,178791475519636
0,179813875541185
0,179883387253825
0,178249027719984
0,178650119229151
0,17857724048246
0,177868164090937
0,180724280373658
0,179223793900151
0,180423568952501
0,17747185328676
0,177486605565608
0,177989157175451
0,181390614914988
0,180254789992439
0,18147763697379
0,179978674534811
0,17859160482273
0,1801040697237
0,181010634137331
0,17714571574597
0,178668926339022
0,178026831527888
0,183044467355108
0,178323155619729
0,179051753176433
0,182504026849921
0,182281305958409
0,178531009295802
0,180993110770517
0,178745951832713
0,17876233429904
0,179228646305736
0,181010476378331
0,179593174646801
0,177020545366005
0,178454692388205
0,180795942030225
0,180100923655317
0,181644076969341
0,180882832361558
0,181550000439383
0,179030392347273
0,18065368509253
0,180708021174328
0,180613589109099
0,181634090855056
0,179325062080047
0,179709521998502
0,179166686527788
0,179265426129556
0,179595140254057
0,179243163849754
0,178063251226523
0,177432551286816
0,178289328548844
0,177082420903718
0,179602627759755
0,179624786981035
0,176076405826688
0,178115379863291
0,178083641252714
0,176357736098505
0,178725832553938
0,176532306467517
0,177379748111966
0,178919345315587
0,177796169419594
0,177979714252756
0,17795110498956
0,179183376134909
0,178718962027831
0,176987782466288
0,176329656864561
0,176354773312999
0,17838394121182
0,177732570694576
0,177804332108413
0,176809742356732
0,176882662670914
0,176659228195358
0,17795759368453
0,175901817712041
0,177401000024653
0,17647222474007
0,178051267296351
0,175216626491015
0,177361922908101
0,175202362898148
0,175446798984001
0,174931440776571
0,175553420142038
0,175225433782311
0,176280816561581
0,174131210035524
0,175602093581102
0,175519091847885
0,176267725629788
0,174662554246537
0,176364180586675
0,175543502808316
0,174936485189105
0,172990462498196
0,175310572144744
0,17685124714986
0,174257956304088
0,172770652937565
0,174722124046358
0,174503561015388
0,172184888873945
0,172443017591203
0,172343461065842
0,173695827448152
0,173644545723189
0,171384840164124
0,173382435982527
0,173653402837263
0,172053487103737
0,170890321655135
0,174830255093238
0,173483420422384
0,173450703453916
0,173375834155069
0,172057224750728
0,173081718120545
0,174875524252027
0,174438484342807
0,173095858800434
0,174282869383231
0,17457612956995
0,176571601192403
0,176942059542071
0,177291706126435
0,178168018021573
0,177202103915106
0,177908877160663
0,180965873435925
0,179771066576394
0,180496796098247
0,180307420978832
0,181939017121326
0,184893612399336
0,183998532603621
0,183899996510247
0,186198460347413
0,187710519344626
0,187722384787851
0,189481291962922
0,18735001025995
0,188976639276284
0,188848151657545
0,188931756393186
0,187761043585153
0,188690789418198
0,18642625864596
0,186979020691869
0,188400160728227
0,186524533427414
0,187243930419885
0,187921280605693
0,1852227828077
0,186310187832561
0,185142807839616
0,185720283615877
0,185867026971903
0,184743646874189
0,186588295110491
0,186853628309756
0,186493022169414
0,185876570514247
0,18626575998263
0,186374646352088
0,185065086061583
0,187202973398079
0,188189311001481
0,189009997809065
0,188376034745236
0,18829403876983
0,188259876112157
0,189140178960288
0,188814757389476
0,19055844749271
0,192972074149496
0,193168818931218
0,194043218882778
0,195699970904736
0,195201203466288
0,196423188260052
0,195768199676066
0,199071465380581
0,19603975093075
0,197683595829731
0,194976419552005
0,197022670074914
0,194839442055383
0,196679867849862
0,193083192155839
0,194766307618818
0,193945004373081
0,19419448284559
0,192554796422083
0,192561945876096
0,194579447395316
0,195305115902254
0,194984701935732
0,195872249620767
0,195756913085802
0,197236128674667
0,198698704583646
0,199380747987941
0,200264202565536
0,200714740732978
0,198964105574603
0,204109552058921
0,204235930334999
0,203266132101972
0,206948906511815
0,205065962090651
0,208222449216657
0,2073166104038
0,207837463239537
0,209528881495679
0,209587066662402
0,212270493694354
0,212476733173409
0,215276455733387
0,216435909810485
0,216234004615265
0,218190496138739
0,2176250389191
0,21690244869508
0,223771737361201
0,223844537298618
0,224013398341569
0,224895973015743
0,226391760817794
0,224110317489236
0,226760864355649
0,226731357436394
0,227248574558797
0,226247273221524
0,222690949776379
0,225625264741555
0,224849460524688
0,22308646719377
0,22188993246741
0,222544873527434
0,218976228090881
0,21551136732237
0,218774228797369
0,21567903307885
0,215176869803774
0,21498471779222
0,216025576171928
0,215570214660298
0,21321384020675
0,217757019355783
0,216442085312061
0,216792047996942
0,217756700461896
0,218946756582549
0,221893730007702
0,21993905099948
0,220206040215957
0,222098467945648
0,222311823175271
0,219530420525613
0,22206987189661
0,223221854728075
0,222991305234524
0,2248545350996
0,224889913853772
0,223464039863414
0,225385189939227
0,224929086942958
0,227168994347343
0,225841760384804
0,227264127840481
0,222885164992109
0,223878867477213
0,222403619208484
0,22494491680394
0,226475938515986
0,228156621789659
0,225245315230315
0,224724176118924
0,223908776322066
0,22320437559364
0,220406817770832
0,219455272985477
0,220911748752934
0,222520619793767
0,221558439959466
0,218955323823934
0,221824423648569
0,219176775351776
0,216894923602411
0,218489720079554
0,218347540914081
0,212714125420988
0,212535926081739
0,212416646821157
0,211836535495312
0,21076703629463
0,205681052234811
0,206948269661637
0,207806865489599
0,208985914602711
0,208438685688798
0,206727338216379
0,207014917092038
0,205703311766993
0,204616566128504
0,205891291831122
0,205055642502576
0,205488638290298
0,209864738582805
0,20783772233923
0,209762034657391
0,209743687187175
0,209775138085424
0,211218170885308
0,211778252657074
0,212619572688517
0,212316626045344
0,212199219953895
0,210311480804598
0,210536023233033
0,212869651894069
0,21122255020974
0,213052100634382
0,213989899920855
0,213156988767231
0,218342498779457
0,211648896600564
0,212365640397202
0,21332170269214
0,213684649680411
0,21259059530413
0,214433075819998
0,214828429415565
0,212098650641728
0,215272591775195
0,215136228764759
0,213211382388063
0,214606679797091
0,2166372052287
0,217187950483598
0,217112004802807
0,217908421460026
0,216561544853745
0,217992312302362
0,216443611344221
0,220290453518095
0,218744986159221
0,2198359465504
0,220865244909327
0,220018361200124
0,219612659443438
0,223913058843761
0,223423502604846
0,225285145168089
0,226778836612095
0,226218105564317
0,229922228368309
0,227268801793282
0,22939060343674
0,23449909638063
0,234027521008468
0,234032119685769
0,237105944672048
0,237872482177533
0,235976044576673
0,237652588434562
0,237959611299618
0,243537808732883
0,238884923256323
0,239313355613295
0,238930170399684
0,243263554117834
0,245275932549496
0,245150918483704
0,24828589246134
0,247465679241771
0,251704843125121
0,25116135352686
0,249468122140385
0,253909427546235
0,256867629952191
0,256831111240177
0,254127297539766
0,255999736739745
0,260491753672316
0,262934145052951
0,269548798931934
0,264707369385146
0,267609739206486
0,265224811753623
0,26984054354881
0,271580215535106
0,27169030869475
0,274004337722039
0,274639955255598
0,2734781319669
0,276524496262694
0,281975524851785
0,2849107714014
0,280776463902334
0,285994404463159
0,292008709988877
0,293663399080846
0,289703271539783
0,292053750077798
0,294009652014295
0,293291298481197
0,298691876981086
0,302576917084284
0,302868503967787
0,304828854162371
0,309641862848978
0,3138068890563
0,307516265223829
0,307995231989196
0,310905430857187
0,323637200723773
0,319349137948187
0,322207680037914
0,325679670474638
0,329184366058113
0,329997655680192
0,334294388937266
0,333741103229464
0,341759287733906
0,329968990711091
0,337296814024383
0,34182169801047
0,34647678949927
0,349099246089665
0,349559242106336
0,351363153120214
0,355173103487636
0,363948102142484
0,358238462377601
0,354746511747499
0,359257964983631
0,365757593686649
0,368049387217846
0,37568923089357
0,37555716114971
0,370729378640201
0,380280100528444
0,379430610195769
0,379954509521673
0,385780636023045
0,392839766173762
0,385279525173084
0,393573461700632
0,39504511482936
0,398278175706843
0,406910217099079
0,412500278951647
0,404795615716278
0,40833828094387
0,405826270541653
0,414956384605761
0,413632562419547
0,419961469456088
0,414237707346202
0,433217985193248
0,42640216994632
0,438353944203728
0,433273214493261
0,434900539847743
0,430241606783079
0,441856372992102
0,45059575478605
0,459014830584941
0,440777790309278
0,456671483659846
0,46808386598422
0,458140516732865
0,46166035286934
0,480652547278619
0,472541343958845
0,467317009189372
0,467276447765755
0,487609426437599
0,481490799384916
0,486064773706831
0,494558626001976
0,500084657566995
0,495147081281523
0,494235806045457
0,494191900880419
0,509516173559449
0,499005295415142
0,513185988919806
0,533889213457498
0,517436262987291
0,506111135606936
0,520613345141838
0,531587251821354
0,535930592495272
0,512492767434519
0,544055928980781
0,550879139983582
0,534486691838676
0,528682119262268
0,556091303082876
0,555618335201385
0,53329372984293
0,538415478666132
0,572124012823891
0,573595403436403
0,561055613626608
0,578602200716174
0,597211204256253
0,59175506693272
0,56729830595005
0,563484830253708
0,605373935379573
0,566078494758597
0,590771224827845
0,58483871443543
0,581755627917951
0,602581645635917
0,609215910012207
0,624272031652256
0,634952439989562
0,627910005135845
0,636109181227507
0,625745912335711
0,640145900135062
0,623732458296935
0,652188197930312
0,644816224066637
0,633854843499021
0,633401239748635
0,637530285387911
0,641940189159408
0,657289936184232
0,654690073642054
0,683388147311903
0,675020207594569
0,669989344866749
0,653794807743398
0,673345533264959
0,671561462909109
0,701778472103289
0,695569496812494
0,747670145408949
0,687354653017818
0,653284496492991
0,691565247777119
0,715243907708704
0,678666014521175
0,706116494983365
0,717076030054104
0,716099173841249
0,685559856607949
0,729813252194602
0,733917789254998
0,760382417532887
0,728989098043073
0,737566181192247
0,740963231315018
0,742806798515687
0,743132948319409
0,774766266778578
0,744246331036146
0,732287187243558
0,762728092647424
0,782245185829815
0,736178520639175
0,753920863652247
0,750398487024001
0,809235490641784
0,76839655341075
0,77870917803603
0,803283134608137
0,857710731167112
0,819705954838027
0,854929149385221
0,785571477794419
0,799817168642747
0,821789331233946
0,804781295654606
0,797215123335869
0,845079061510929
0,841159564488339
0,884114450270036
0,778607834265925
0,82767758292047
0,830025010379877
0,853174819076538
0,855339541025929
0,878334697780817
0,869848349679802
0,842162643111023
0,83701998184627
0,838295042693257
0,853861523734375
0,962115268119365
0,886565813022617
0,905047232962477
0,943828468375999
0,939673458205043
0,845916322159979
0,949131335864945
0,935980935410674
0,879630302178378
0,879493574270696
0,873830080324458
0,942467214081335
1,08378446686308
0,938085133741613
0,858548533902884
0,900421977804553
0,972803893203678
0,998859902458816
1,05516964433438
1,00150341633688
0,889196962558658
0,816958931429392
0,989578561436145
0,968953875104896
0,943831442639655
0,988280642842039
1,11298040688995
0,999538835695044
0,906466102442279
1,08001888538657
1,05468471904058
0,92732494829107
1,01523877020627
1,03903458662572
0,986283547557846
0,857795409527585
0,944370296523613
1,01674986370797
1,18853293036093
0,79182070516948
0,85939977217687
1,01900915035625
1,0818441313243
1,08889910928147
1,46850135859197
1,0117813320442
0,936205017776918
1,31548668869817
1,6499892164298
1,03590423724071
1,24300788411713
1,07386146920677
1,01547388017436
0,99984596060378
1,59546338167249
1,05390838810913
1,00251934720292
1,20835216997632
1,15370057161831
1,48088608603594
0,911246955511563
0,848863200032327
0,937303175122217
1,08596596973238
5
1,65393000524648
1,57582541488778
1,1809241963
1,02056239606123
1,46318888453983
0,998851306660305
0,915235056518164
1,0109720591986
0,987746455072709
1,55158055542734
5
3,12009057721109
0,717224273360794
0,931267796424838
1,41529156180372
0,770624629300859
1,18455633860797
5
5
5
5
1,17693597251918
0,80516510821245
5
5
1,11821864307355
0,647137651888467
