3596
4000,36533379555
650,420452594757
1
2
2
0,0282649682569308
0,0293440733800741
0,0275520940420838
0,0324802534323932
0,0272782616226194
0,0243966741359139
0,0280146133152274
0,0233696611592025
0,0193698088419873
0,0269742823306979
0,0333430666633024
0,0315624192263102
0,0271319899518599
0,01895489897716
0,0219619911255764
0,0243602961678008
0,0277139747593815
0,0372350427589288
0,0307487154828864
0,0300634473012337
0,028185156934663
0,0240059851178103
0,0307609845622544
0,0307181578220634
0,0232816422650217
0,0219686832401011
0,0209544647054469
0,0317220387037467
0,0279633903570351
0,0251440703890754
0,0285327484952677
0,0302357262967409
0,0348289843912857
0,0305535325248524
0,0296686578778701
0,035111363763589
0,0240887157849098
0,021508738111963
0,0240446463233468
0,0362063977564988
0,0291551064369166
0,032047663113345
0,0296872288043179
0,0216416139657055
0,0294256915574432
0,0243499794890511
0,022126092503601
0,029106083026056
0,0266272339050032
0,0287596909326996
0,0284587792900154
0,0358574052939635
0,0338950276142401
0,0349804800248042
0,0317906151749151
0,0275945664023466
0,0236258177083466
0,0268726243037503
0,0252999456288845
0,0413637359977475
0,038529135658376
0,0272896497206797
0,0368136040931962
0,0279294142953396
0,0312900251572916
0,0229783337130438
0,0303839584555055
0,0342006688264492
0,0300059221335141
0,0368924651963479
0,0342375012606413
0,0412392520415557
0,0202262970356949
0,0291783849912195
0,0361967010614666
0,025644067700518
0,0243537158913889
0,0301948971521863
0,0358916578424175
0,0435156298040478
0,0303191348482105
0,0338713076240962
0,0286080624461983
0,0322660804824132
0,0342370831955955
0,0379619353733668
0,0285373450454805
0,0494111306929051
0,0286517411851991
0,0289515026486698
0,0330046826651681
0,0318310794599727
0,0203887913333457
0,0261851900282415
0,0259344364996235
0,0300602564297818
0,0243410283307643
0,0335481641378665
0,0206014805978966
0,0363581861227003
0,024586241478668
0,0601365832093448
0,0198228460991323
0,0436735358674751
0,0467784391236603
0,0236836358317153
0,0436132384542842
0,0385471223488407
0,0283189232223289
0,0389063814290239
0,0277166990865264
0,025376821680269
0,0301103058824487
0,0379953581532926
0,0314646683885278
0,0473028849075766
0,0251574972078995
0,031026405350514
0,0263174251219666
0,0304750642566509
0,0284181673281054
0,050524762361798
0,0259463974569135
0,0371242036983713
0,02109232452084
0,0346939738097344
0,0260300881900263
0,0452290082614164
0,0211823585958646
0,0375704271171421
0,0176806247135052
0,0340073818987838
0,0154149189856229
0,0472422990687806
0,0403965253308564
0,0286415525088263
0,0267760825734696
0,041444804742702
0,0477985076436107
0,0404242368384993
0,0241310392567716
0,0277576676024737
0,022760152664955
0,0478136242154974
0,0208620515272511
0,0373328099294501
0,0373656357547245
0,0337574482481377
0,013931522238935
0,0372851374249823
0,0274010364837687
0,0394287090459532
0,0239175902627427
0,0406239976590798
0,042204318578642
0,0663366859115732
0,0140034119167014
0,0790148363221994
0,0220181999195556
0,0412765825419592
0,0323170569676906
0,0343768932515238
0,0225214423332538
0,0287385335028492
0,0276966976855132
0,0312254893886362
0,0489949632680504
0,0283390754205409
0,0260133743269301
0,0401522970387605
0,0294347134917408
0,0312908467482711
0,03206590826181
0,0330902523462052
0,0138281008126083
0,0411745841823551
0,0312799491498815
0,0455458190884783
0,0221780676863637
0,0464737466419906
0,0277200387403997
0,0421603508152884
0,0294567096831641
0,0423761138706931
0,0331774421818361
0,0422844381945537
0,0291098978448242
0,0368395549246102
0,0231727965426635
0,0428547432623806
0,0362157028703052
0,0588202990450279
0,0319004422999526
0,0344832560396326
0,0285928743714021
0,0407804677226676
0,0475877618371294
0,0326895575200148
0,0282595114418646
0,036600805012689
0,0324249566777832
0,0350150539245656
0,0188946790514485
0,0424369143470975
0,0271603558315261
0,047814281571893
0,0398175989648439
0,0293901241761521
0,0359173291735546
0,0373965024637567
0,0294342467505022
0,0365837926217173
0,0478803503271012
0,0342809079194829
0,0348840625502036
0,0372476819651535
0,0410048446329228
0,0411429159570343
0,025604158650457
0,039112539452393
0,0292779967801853
0,0408559783268554
0,0285371855042126
0,0373856289222753
0,0375160678716286
0,038218872671624
0,0333960259894201
0,0340973491030099
0,0292202520309638
0,039910416356379
0,038038713572811
0,0369701621466854
0,0392603954113505
0,0432587538654802
0,0335393817331667
0,0613921972236258
0,0344557127438276
0,0375495029421835
0,0300194916168624
0,0360528282317512
0,0268336012955414
0,0446264846013378
0,0347267961623138
0,0485268733149235
0,0307596162932225
0,0539123766081984
0,0300339961153428
0,0354238035036262
0,0364707305400873
0,0395098981133567
0,0525578527519677
0,0367704316324618
0,0372983485789233
0,0449609953829298
0,0432249550822293
0,0382568247004867
0,050095194901278
0,0515465100597731
0,0406348987798247
0,0446328854976693
0,0454652337230889
0,039963979526714
0,0476056139215214
0,047124713752463
0,0553029422447509
0,052900589669286
0,0318737296832767
0,0655669113110733
0,02922067205291
0,0508198006740705
0,0510797788167691
0,0456608154010026
0,065795779251646
0,0903597510816899
0,0460034363755479
0,0464065693917327
0,0317459827622352
0,0466984691327339
0,0357916433074849
0,0664390842453259
0,0432394925457013
0,0778615013411095
0,0432130138134528
0,0714914238545231
0,0387814549504498
0,0551839418765723
0,0759690641470516
0,0396860747893248
0,0531824125032795
0,0469607730324534
0,0539325395795536
0,0509859473248513
0,0611532631193388
0,0501912365978847
0,0588219703511055
0,0521576746495325
0,0672764442869875
0,0633875523844426
0,0538327655481916
0,0589543776384202
0,0659850273857261
0,0617838405104069
0,0561197899123446
0,0597783468720541
0,0514900273623279
0,0735791709015287
0,0624141959349403
0,0855057067395246
0,066739172417681
0,0616171884704376
0,0743841544107744
0,0790525378419528
0,0670563090567779
0,0690465053447994
0,0650708278260682
0,0649955655208552
0,0710045690145663
0,0813888469168524
0,0678875458998814
0,0982363215207372
0,0699677832562037
0,0888985952640198
0,0705618435908843
0,0825210965856304
0,0731018251199382
0,0942779730353911
0,0892977427538432
0,101230675357272
0,0953187163106037
0,0990646216651615
0,0974003680764142
0,105593652393926
0,0947451238725957
0,142841416191249
0,0989824042729135
0,108121297017492
0,103493909477632
0,12627339016054
0,10940403565494
0,119939174286752
0,1136949862068
0,123906759370486
0,130030466625325
0,142649447633542
0,131013630888299
0,151391112966421
0,150824846174135
0,189772733162461
0,163428539904701
0,161481755025018
0,151815433278063
0,155034665737132
0,195351429486926
0,159325888745029
0,188370782130594
0,177680336844807
0,160690885765996
0,183001714635838
0,180926023341742
0,197585730795936
0,191317840954699
0,209062548634442
0,194193235048897
0,215325636395742
0,210635733483887
0,234691594124631
0,208557110566428
0,251105362693295
0,230276182324715
0,23159476414268
0,230949940959599
0,240739062316914
0,240200416130607
0,297896856487301
0,23355393489816
0,348641709377986
0,25290291449479
0,305699784472874
0,275127130310511
0,282446197039205
0,271236459577255
0,287653036618934
0,284013940935488
0,303459577827546
0,290702465969726
0,311018289274192
0,288220481417236
0,326962781701899
0,318305176471136
0,323456034102135
0,307379633261868
0,34344836123361
0,335207647850397
0,325140412061014
0,336537572671017
0,339071185481223
0,374202975333701
0,377078951029899
0,332110944720837
0,355687825753834
0,34858391824643
0,355552159661291
0,349307933447989
0,371657180080762
0,361727094689643
0,386917659734909
0,368538541962026
0,412569899232954
0,376174581179355
0,428371024029166
0,372316570542482
0,402031485643999
0,406668062324197
0,408743977110072
0,427833113740255
0,438334226627668
0,379666005664464
0,431697258208706
0,437303158658454
0,430073378009018
0,425241796055135
0,472574816383309
0,417665951922422
0,433881739836622
0,43072786152034
0,470199802003374
0,426526884806585
0,480482833137067
0,446001858880396
0,467364187936785
0,448700843056691
0,480511017102145
0,457196449491423
0,504365901795296
0,454081694465449
0,526637167589851
0,465124322431084
0,477660199706584
0,4924649483328
0,516117805554452
0,497097053773452
0,501646922021532
0,507733448478696
0,516565092364212
0,472586637690375
0,516164651030603
0,485397731724484
0,552570802263027
0,490286518805634
0,566831479074394
0,511447949629358
0,560082299004754
0,52479667545278
0,554288893976398
0,527649235937695
0,579060143552406
0,537709696925944
0,58156750064102
0,543555995730832
0,558786085857254
0,537295743605941
0,604453066723689
0,573788380146022
0,572161479266102
0,611876294434733
0,599451386445233
0,579886800577662
0,589221682834531
0,567853773692304
0,617455696134333
0,5929304489756
0,651188495793368
0,571637719900267
0,665408300637995
0,586874698863212
0,662296495516687
0,625705142359213
0,685323161842216
0,608892133921362
0,657986130490325
0,630669203437994
0,697645672636111
0,623542645623154
0,683107070007263
0,615978007448039
0,72846740543057
0,614439935494161
0,711591947042877
0,678628341829678
0,697179313887045
0,647212413934487
0,744914464496891
0,657786650077084
0,700719860609624
0,675986282869852
0,734276908057215
0,702365421434755
0,800994534183512
0,715806205207959
0,715147675177152
0,69477962736999
0,753065383725534
0,708120206042978
0,792592178263443
0,71640304641106
0,793672383776024
0,736138905643824
0,76072159191799
0,68701632757607
0,826461862313257
0,715616281155205
0,784814357235244
0,735294704439298
0,84812387494089
0,754690830431807
0,836185705317208
0,766182628994868
0,818839413749812
0,808169660022662
0,805213157793412
0,813222554453256
0,835282511180423
0,7624746742167
0,841877978277692
0,792760451694319
0,917957852666163
0,836377397479083
0,874283010452154
0,798904991932464
0,844282899007824
0,815106057117387
0,921888799244302
0,769996236729402
0,951028298823763
0,859156443755581
0,859571457054928
0,796629622865521
0,869474280366834
0,858616907938133
0,908781883045816
0,887725518961684
0,908113672856305
0,892340775216817
0,925542811475463
0,827625257859028
0,922443674868355
0,85339735400334
0,945441394021724
0,952084835534706
1,03103153184805
0,936873866211359
0,933344113336725
0,908279970965121
0,95629770834542
0,910946296605558
0,993426922733415
0,974793235888093
1,01421487462821
0,935012728185656
1,06285524327271
0,901372457577825
1,03764432740291
0,906647192675896
1,01042718438781
0,954547648730348
1,02889908966156
0,924923691832923
1,02075076766897
0,876774286107183
1,09046607567444
1,02254867449325
1,1049464436678
1,00077452773467
1,12794673897784
0,995361752142904
1,09588953981215
1,04264408109015
1,15334780401343
0,971164299491844
1,10296879433763
1,00277298099317
1,08132055280969
0,971442687673139
1,14067084887605
1,04478029097616
1,1720643697894
1,06885746061869
1,14244660408094
1,08022505921957
1,1950613530467
1,03714735714491
1,2817230295643
1,06854874314209
1,32255328530551
1,07187079834366
1,18682743827044
1,07858471325214
1,11468250878824
1,13721236929633
1,16194828155106
1,12376688799271
1,18430543166574
1,04773406396534
1,11357951593387
1,06552264254963
1,17169534852793
1,18032442416922
1,30662286809637
1,21907367564458
1,23386723632146
1,05614548316794
1,30292451026281
1,14692037638422
1,32746690780679
1,27642055894335
1,28257019685124
1,2375934078291
1,24116352029366
1,20096856964041
1,25352550352469
1,11859031185229
1,35457480577623
1,19402629110848
1,28653734993508
1,1593334239234
1,54410514091797
1,17806593744383
1,33115452472977
1,14105166406852
1,30933332969806
1,29027996188473
1,37164794919472
1,29240275093283
1,24373413122818
1,25367083441863
1,39541208846172
1,12519606906813
1,37188154023432
1,31642329016724
1,37938150326176
1,17129388940457
1,32971567539769
1,25905580418256
1,38700270430847
1,25504598559401
1,3991771293343
1,30855454618644
1,6229022238288
1,25741486608648
1,52462284768011
1,26044645050671
1,45219938148275
1,14701526054674
1,38247546835776
1,3332104740984
1,42182455330832
1,30689502500991
1,4412440600703
1,39589607564553
1,74262843823721
1,34208156932098
1,4203546344051
1,33195167417382
1,56504489259503
1,32845279471367
1,35690479471154
1,27852084323484
1,39432574411389
1,29170523006661
1,38831382253588
1,36708222732259
1,3683900322823
1,28392717240752
1,54705409517144
1,35555224318786
1,53791819997926
1,27309828819495
1,41862168720903
1,396716744545
1,4617818773168
1,2719949170932
1,45081350930496
1,33622415905993
1,69164110931601
1,39256030501603
1,4839069226396
1,45300185482735
1,4994997744548
1,42621466597938
1,55673437998389
1,35446673331994
1,54626307426972
1,43106004219021
1,63615887037555
1,33324041604145
1,55974946160023
1,47180462168241
1,65216546910335
1,54008695519539
1,45473724370719
1,37708574281293
1,58807841518537
1,34469044031932
1,57502299535355
1,27524961237904
1,41528247675912
1,40590042290262
1,49904470558323
1,29655789273095
1,39666178825612
1,33532871242661
1,54166430007358
1,37354585792869
1,64258344016933
1,39780782475486
1,43079196223383
1,39941657963291
1,55130944957875
1,39376918656196
1,7272126105536
1,36432394499895
1,49192422787473
1,44194948616982
1,66404685954889
1,33460180345234
1,43979872250286
1,48954086546929
1,43568555037481
1,28742869766187
1,44301118266596
1,36111829812232
1,40106177916451
1,39246536035159
1,51154055562935
1,29332081864422
1,39615617229969
1,31586445516212
1,57152663579166
1,37961386336191
1,51654091870256
1,36446181668055
1,35821614817663
1,36628626065878
1,49909232263762
1,29374106822967
1,38081389982859
1,49188789073332
1,57826801674737
1,39865102745105
1,40841650293359
1,50873885084027
1,45655105368432
1,40362419321221
1,47248874204731
1,27946954639932
1,41421689729876
1,308271425121
1,47558865014065
1,42767004342629
1,40692624782251
1,42705137946792
1,41973424479326
1,41365514291639
1,4469341881838
1,35231643261083
1,50154081556519
1,39210023611947
1,40047230811864
1,34926059958889
1,68192389920843
1,38259851330008
1,54305597478838
1,4217511544968
1,49766286181575
1,49207654651236
1,49710078482165
1,34128848196611
1,50465273187431
1,37711146316529
1,50354645952474
1,36517915962784
1,51788053483346
1,37986807801697
1,54818892562614
1,48284942365511
1,56648572976858
1,28878597044911
1,44459352743108
1,31223065729263
1,46681158384504
1,32333310440124
1,37745730172776
1,42181829834111
1,42574232094815
1,3751399958115
1,52827045795002
1,34774518463624
1,49688015363325
1,36447349189349
1,56751007298419
1,43681175857281
1,38551771697127
1,40209095630464
1,51960303626887
1,43658949154463
1,52187005338977
1,39156097939528
1,47059683300508
1,39383017423916
1,46373263192524
1,46454411775989
1,41973158252718
1,34810763592962
1,50982331484793
1,32787453869848
1,3703763091491
1,38588723830004
1,55011452842267
1,32765463646238
1,49133004640055
1,33801003121469
1,34284174344066
1,35471080104213
1,40903921500162
1,34374051304588
1,41093291403164
1,36064657535772
1,49161084753002
1,32970285556061
1,42669559002061
1,30406905509744
1,40597425308464
1,38695623842684
1,38896984672446
1,345660595575
1,47063775708638
1,36671724276256
1,4255500687904
1,39103055557216
1,35673734819606
1,29554081226239
1,26875061435898
1,2154948680287
1,36978308978006
1,34381485159685
1,4515980077631
1,27283178880412
1,34535128748757
1,24164149718008
1,34170028936552
1,34742804780029
1,28672620187287
1,26745926417165
1,39203916249326
1,27734274190421
1,32800367247971
1,26032866719828
1,30263150467018
1,27573237578577
1,2224781019193
1,28098770390293
1,37115665464687
1,30472876516169
1,30820590797002
1,18733764285775
1,26224235113726
1,20024723392551
1,28671991902597
1,21475148120418
1,29013152390779
1,25326985557151
1,23073218644169
1,18247890042496
1,26379338608161
1,21049784141018
1,20210150082601
1,14583553996945
1,21140794017559
1,16973452033583
1,19784919366167
1,20602174015097
1,2192161418374
1,14000918381836
1,20737264806088
1,18543101339993
1,15613991038982
1,13828500400582
1,19007223914538
1,10349716414042
1,15071878959644
1,09590369548428
1,15069838058096
1,06370088997475
1,1199579466429
1,12166679954596
1,10884864591582
1,06519932043341
1,12880462805355
1,06178552590295
1,08376069724329
1,01993040399734
1,05953537446032
1,03533291076165
1,08326696431702
1,03868237121203
1,04353109326468
1,04794778252867
1,0516375959502
0,989556379431203
1,03526539586843
1,0196733341217
1,06705362940292
0,990372621894261
1,01145282123293
0,969136396205102
0,994153495952436
0,980251677037247
1,0046649811139
0,977891193773851
0,968998492000941
0,90770438388297
0,961776074520218
0,944320128479793
0,936284546290985
0,932847287405368
0,959493490315297
0,932120345344435
0,924983207000054
0,905987626805556
0,931225212235437
0,903551128942788
0,91594007920415
0,906801894326653
0,884341992205841
0,88119130393548
0,864787256691513
0,852801262790644
0,873892241956475
0,835515317538602
0,853214332408173
0,827082307720066
0,848581985212576
0,84977760829789
0,834343672904231
0,806941353290189
0,83826219824777
0,808551738318472
0,807373951628242
0,797814203422659
0,816138998849011
0,79491175547073
0,78260429084099
0,782572636308143
0,803461431275326
0,763993381834453
0,7781856846786
0,768884978487179
0,768587448812472
0,738520760731816
0,753780254529681
0,755232579859613
0,737243602745557
0,729788365972605
0,749876951095589
0,733124873439424
0,730607414274333
0,720803561192071
0,724882201136378
0,689402730383734
0,71220217035722
0,687513298917826
0,69548554429848
0,687291729889168
0,683804579145901
0,668236252964641
0,655958133449444
0,654560779293181
0,663451726481497
0,64607527525715
0,660154458058626
0,644368249174906
0,651137610610408
0,635130563008082
0,644789931186716
0,621658356849054
0,626903893065546
0,624642593966306
0,618689027530605
0,602983813630385
0,623994788453482
0,608964422531623
0,59646277087753
0,593215066135448
0,605535882608674
0,579845265305545
0,591077862420863
0,585257567020489
0,575802637743461
0,561919030661201
0,567999179239888
0,551089843621279
0,558920445138172
0,544997043332168
0,55389335561786
0,538852270836621
0,543260833534556
0,537601535704881
0,548304631054838
0,53838990903373
0,537707897677514
0,522676466411915
0,521877640914939
0,518485321916243
0,524893048164908
0,512518222294608
0,520343687911511
0,50210897103575
0,498328400601267
0,487863564934867
0,499569630429668
0,489787431128915
0,48784559482904
0,481086871965238
0,478418086536718
0,472535787457905
0,477281021391952
0,460862481329616
0,464796390331755
0,46506890835895
0,459076310236155
0,450055646490068
0,44853468035693
0,446758712893964
0,445945212484075
0,434236150880691
0,441706276991266
0,426148141973749
0,437382281697693
0,430749877271506
0,429586802663551
0,420538806194263
0,42516281715185
0,413922040265374
0,413657532907444
0,412640840160187
0,414582826651018
0,402247332210881
0,403253881872795
0,396344901222108
0,396979315981985
0,389564355469112
0,38925251746038
0,386574155305922
0,394121480998921
0,377677228469893
0,373897555982064
0,36790119822712
0,380676939839159
0,371008112060521
0,366349005288882
0,363319994177492
0,365845558321966
0,361251905861495
0,36341825654338
0,347852776033008
0,349700450226093
0,340062806081039
0,349831395007081
0,342518745734499
0,34559366577083
0,341200005250648
0,340452804703724
0,329170861827721
0,337381722113639
0,330029773780821
0,329758584534359
0,324585873808717
0,325755819005347
0,319884223185458
0,323569501233072
0,312817146931511
0,314582649234658
0,311819574677222
0,315758730304447
0,305728810284929
0,314712396474606
0,305313666311933
0,301883723843646
0,300168362123511
0,300103563981343
0,297068616700357
0,291803991509993
0,284758831833681
0,291434606600925
0,286044927793781
0,286757409964505
0,27826945963158
0,28231819593393
0,279692814773149
0,279970268080817
0,26815815643484
0,276709980998033
0,273177214305128
0,267576861084172
0,265280670561855
0,268496599885893
0,260240447029525
0,265101734814674
0,262256794635018
0,258352952978683
0,255497117488234
0,255936865727478
0,249267353040302
0,255578072024483
0,251190018435337
0,252494163734737
0,249465718397164
0,254143913313203
0,24163078317408
0,242488347551409
0,237880441754251
0,241213252395617
0,238514465837718
0,236755608234288
0,236376197812526
0,232995730407608
0,229636270048229
0,232417116711634
0,227872612886076
0,230610499702042
0,228891039061416
0,227872709419593
0,220950497049608
0,222341832536468
0,217783395630218
0,221285117552119
0,21270035491596
0,219888049042276
0,217951131632866
0,216569932994928
0,211882236016505
0,213167876250246
0,204559895388587
0,205148762981912
0,207279052634573
0,210802763767751
0,203729198566176
0,201185241559109
0,20126744324178
0,200052483520925
0,18897693604302
0,196236587910586
0,196263504302474
0,195964938915048
0,188153744398474
0,195248932893198
0,18757090085532
0,187721809522311
0,185491802520658
0,190416755372658
0,188553649018642
0,184947143318796
0,179035366155216
0,185322403419277
0,177865475859357
0,178876083539436
0,179107560340959
0,180950172864991
0,178251061834474
0,172427825802721
0,176387529823729
0,176864725124079
0,167909486662277
0,17030399709153
0,169326489476818
0,167963057984754
0,1678288938819
0,165572747443448
0,165692610436304
0,165973855200549
0,160864117886805
0,167577134894574
0,163960143185512
0,165080431836874
0,162837910238122
0,159311526472506
0,160913419500999
0,162250408439104
0,15539252062962
0,15815544168369
0,155427376098478
0,156262482490793
0,155404429594848
0,159211606834704
0,152030042082239
0,150118450811332
0,14998577102983
0,149868180445597
0,146950696563021
0,150458892619388
0,147439402284884
0,145584200153189
0,146262989532785
0,143635626749749
0,140724275289123
0,142382611152645
0,142998527516204
0,141053659782658
0,137309428138351
0,140249292647198
0,132740842837823
0,138768452687827
0,138888956701721
0,135320885029308
0,131974642279892
0,135555359072541
0,131910417102033
0,131209165265938
0,132317534493737
0,133101883267977
0,12783929990252
0,129641490032004
0,127840948758955
0,129068579325448
0,126122060022265
0,127649433975233
0,127601339245405
0,124405245689694
0,12614409943575
0,126588580590775
0,118060557841599
0,120094283435742
0,1172101408014
0,121940836600302
0,122465446749739
0,119585577729025
0,118565238731838
0,118474549017403
0,116668771573166
0,122390394993918
0,118773477833456
0,119303476355976
0,116300948784929
0,117815934181907
0,113432877385646
0,113513625085646
0,111896422246757
0,112193532390578
0,111695166487716
0,111257471323623
0,107793110858131
0,108781997689892
0,104078569708986
0,106547038941632
0,108062284358125
0,11135003661718
0,108042153311271
0,105624406392324
0,106309230458814
0,105160985559954
0,104042000362477
0,109985953595925
0,10419611196414
0,102782440824153
0,103414872958048
0,106515813013894
0,104027107233535
0,100479504812613
0,101712846170584
0,103225344437332
0,10155102852701
0,101507772048733
0,103081860637184
0,0984182441153925
0,0985666970813812
0,099097824019119
0,0972313872140319
0,0957214186520754
0,0973955177007745
0,0957659631362209
0,094414190159
0,0974455866237788
0,0981136695852836
0,0947307690911039
0,0944172169445936
0,0966475856124373
0,0930862657369143
0,0940808077801635
0,0945339892600069
0,097298874051172
0,0952505203607816
0,0901935792713789
0,0879308399611331
0,0929035988371695
0,0897388824376336
0,0937615181711164
0,0916778193060124
0,0885155415032568
0,0896510900344621
0,0905074599170437
0,0873732459143442
0,0885116031493181
0,0867908885226199
0,0869620279474556
0,0850013116735289
0,089796453851076
0,0864136579891168
0,0870424386153434
0,083254614430378
0,0857028566487899
0,0842506601989692
0,0863126395543853
0,0869584969864728
0,0872133821484178
0,0847497306790636
0,0822326247907053
0,0808461273278974
0,0837049311790516
0,0814271608064292
0,0790173307319072
0,0841714230911082
0,0836638243308608
0,0831692831057855
0,0790566044166297
0,0821885696359174
0,0844266836715547
0,082671378236601
0,0801834050870536
0,0804073410964076
0,0800003027695956
0,0833317355445972
0,0785845219568349
0,0779398951930196
0,075605974658188
0,0799038849157001
0,0797596726190973
0,0805984106893252
0,0792849531011255
0,0750015594590134
0,0750480617848946
0,0750763925157126
0,0730899812233906
0,0749463808725159
0,075565915275229
0,0748990707726211
0,0766530138628255
0,0742790954692986
0,0754227738173398
0,07720391071075
0,0742525586288476
0,0745202230802271
0,0790679388579891
0,0753823542926373
0,072570383570312
0,0755444129265839
0,0774611674086979
0,0728875972084001
0,0743003756697717
0,0721240210920637
0,0722088370238466
0,0731645373433427
0,0755943405084562
0,0722298436113817
0,0708883779876991
0,0694924712027829
0,070650377976944
0,0715035905873442
0,0733645146001156
0,069043179332902
0,0686466450791009
0,0691957581872846
0,0727671709951518
0,0688503276407785
0,0690473820862993
0,0733497366775131
0,0703184308501931
0,0679733106338356
0,0714155202028652
0,0701060151123799
0,0693888210816142
0,0684631651184242
0,0694488943721593
0,0706289280359149
0,0693914973485717
0,0685660778349082
0,0687910323050903
0,0702560510665102
0,065985212089342
0,0668020431540374
0,0694254542308882
0,069664657576532
0,0674563303528901
0,0653526956219106
0,0689338854744069
0,0708276949425608
0,0661737649895588
0,0663887796732915
0,0635451791473858
0,0668071255155006
0,0661081798092441
0,0678865693307241
0,0639973187605908
0,0608211333380604
0,0652634309561024
0,0661586601340107
0,0648769073447967
0,0642280143069912
0,0632533746398629
0,0619954236281241
0,0662182309689552
0,0645728435757655
0,0659741583339188
0,0647061286831092
0,0644148006263321
0,0648912046231538
0,0678047543068071
0,0644927419315071
0,0647646507389775
0,062110877867003
0,0617555689151507
0,0641080041271063
0,0626002837846394
0,0622025252967822
0,0643588783886515
0,0651536535065895
0,064247288548522
0,0627004823886316
0,0626664321036591
0,0650534460285096
0,0628599030058963
0,0607772061100411
0,0609199770457538
0,0617684425677517
0,0620552421273904
0,0618561814593886
0,0634739970482437
0,0641340681111562
0,0639027417047959
0,0618790454858896
0,0649202949904332
0,0625878649651237
0,0630778814663737
0,0645523704340181
0,0631536735729321
0,0616268241675599
0,0631999293217163
0,0624337661478873
0,0599909830428663
0,0609235889542083
0,0632904323415041
0,0628388433094526
0,0619808411193198
0,058976410601445
0,0598784003583668
0,0635679783500132
0,06061304930265
0,0597598537510845
0,0574545504693009
0,0593524279396511
0,0574476263018417
0,0639117907954351
0,0637116799085088
0,0611585021275601
0,05964094003209
0,0597650211991274
0,0581141421061872
0,0590578642890144
0,0597737189175567
0,0597408281388249
0,0580715170167698
0,0601479205972572
0,0609625675420958
0,0622316329466562
0,0576768475327722
0,059921796648395
0,0601852529669404
0,0578565622587638
0,0582327256900272
0,0613260477218426
0,0586160365085188
0,0573498745725952
0,0589066075922866
0,0613446876339948
0,059709773849353
0,0604861774010995
0,0580259618552367
0,0596848808000926
0,0587251390329913
0,060629292962585
0,0607566583134372
0,0582995028577803
0,0606079886026635
0,0588446605170311
0,0548006776524426
0,061546576529359
0,060863220059079
0,0601273459453215
0,058518445225421
0,0555440329316357
0,0590995040132562
0,0597454849825302
0,0579873194694501
0,0597214436363403
0,0595436461529116
0,0613407155113172
0,0599712577232438
0,0579978289850668
0,0547193101122741
0,0585491525953497
0,060258429758383
0,0613091534628297
0,0594295938741453
0,059167053049893
0,0606386545935275
0,0614491958412499
0,0595733259711847
0,0589101641037534
0,0586690873869105
0,0599288263458305
0,0572564315253217
0,06033832979693
0,0616245473770405
0,0604134822615913
0,0586172892115712
0,0605321880311047
0,0611793317462537
0,0586208452987621
0,0581933947365679
0,0591982468912702
0,0562676294474724
0,0618691955703475
0,0602889337897355
0,0592271797798475
0,0566459559978102
0,0607198830514107
0,0593208114826225
0,0599815570270067
0,057191154531816
0,0561727711848176
0,0584390658064661
0,0613971093720468
0,0605444940102684
0,059229070006391
0,0605075313905067
0,0622466791276778
0,060233472017104
0,0582797841883671
0,0629549073484636
0,0619963646005641
0,0568886001371111
0,0611942030680085
0,0636157527477607
0,0622246582594191
0,060337703304146
0,0620932503238096
0,0594966350319798
0,0603609552748054
0,0610633049163088
0,0594514332726974
0,0581325608436879
0,0611126809882085
0,0607526319675193
0,0602393645930128
0,0595389269711353
0,0610368307290359
0,0614103712661733
0,0624392996592732
0,0610710342387289
0,0613183519192615
0,0591484389558192
0,0593865990266534
0,0630843457381177
0,0640990788120665
0,0590646523118007
0,0642021810259317
0,0586349456641946
0,0627450116918113
0,0603770312222091
0,0642550918387964
0,0604660016358553
0,0605886349001366
0,0624285235526941
0,0650952955641641
0,0601365809593756
0,062447307937837
0,0612476301329792
0,0600116101002353
0,0613622570664926
0,0615859026821759
0,0619599893906926
0,0606501396452394
0,05912826756208
0,0607363888577262
0,0606692317349847
0,0642258762211564
0,0609551942836417
0,0613382829530694
0,0620300633748232
0,0636213679724452
0,0626608892215703
0,0640517540391198
0,0637456049747336
0,0649458037486986
0,0610046128969014
0,0646577470998096
0,0630477390324232
0,06330725190921
0,0628074595569218
0,0643842507627935
0,0641195318373782
0,0645351218585707
0,0618732441220669
0,0635040957241862
0,0634809776745804
0,0654113969970372
0,0604908311739065
0,0629923813054747
0,0649065289414936
0,0627065537241696
0,0660300799755748
0,0630609063177801
0,0625221960639716
0,0619723576890367
0,0620382061937403
0,0656409536185232
0,0632171837522872
0,0690369967260439
0,0659849590255167
0,0637799298327822
0,0657521496524215
0,0671886183501358
0,0640862803554928
0,0617687341470206
0,0633698598793579
0,0664594501921437
0,062282376103929
0,0670764260829722
0,0635601487639133
0,0662357475179024
0,0669402676083537
0,067937884322921
0,0627454350410107
0,0649077319698873
0,0643271451538152
0,0661083508683388
0,0641456181400201
0,0670119488914274
0,06561627969591
0,0660095566930665
0,0657903253720177
0,0651278139334733
0,0636976579970676
0,0651997518813046
0,0662448824667362
0,0674805748738296
0,0660265320257401
0,0649359628462553
0,0652827497427746
0,0660629250116248
0,0660722053608979
0,0691635615495959
0,0693622675117642
0,0677432960411207
0,0645979343012635
0,0680347842369385
0,0683955459887137
0,0670401916288915
0,0639941379102896
0,0678685871658584
0,0688674022776479
0,0712022086447217
0,0671180092093094
0,0684574721194533
0,0677318293610243
0,0683489192938319
0,0690336183666715
0,0686825762276208
0,0694021728994545
0,0696080713136547
0,0678870679119943
0,0682321725048468
0,069202184219367
0,0694338431949619
0,0720782690483996
0,0703816030875657
0,0702163684747505
0,0715049912545016
0,0719154918501448
0,0685607487013736
0,0704987671047657
0,0697720072921233
0,0717844319804192
0,070913022685331
0,068645562276858
0,0708567356340033
0,0691504830309367
0,0688341822243942
0,0697905833295518
0,0717218764890542
0,0686406804265564
0,070366181534356
0,0693070926500816
0,0718727779860159
0,0716217872689168
0,0720910845662757
0,0724380270062062
0,0749538433328625
0,0738614100334058
0,0744312233952341
0,0740691927656295
0,0724677300112977
0,0718394437391285
0,0744908269611438
0,0711421909091202
0,0733644517298904
0,0736429956320068
0,0749952547959823
0,0725310636329638
0,0738310258098115
0,0710081913318066
0,0710503976066297
0,0712542507899168
0,0730866686374825
0,0719938149351458
0,0746447719610617
0,0732401578828595
0,071094359126676
0,0749543513529383
0,0775283816518568
0,075447566095214
0,0747464299240888
0,075593641049378
0,0753167353268539
0,0750221036839918
0,0796466777625569
0,0772552842906578
0,076588382306772
0,0772023902212389
0,0754567685868528
0,0797939137424242
0,0838945521776222
0,0799675489234696
0,0841584493628496
0,0861853806768318
0,0880699679878716
0,0867056850573186
0,0885813016458533
0,0937464390895872
0,0904879300915743
0,0881387811013161
0,0880213204370839
0,0786414332618793
0,0878774195674894
0,0953639753154879
0,0951568872261659
0,0855723541592603
0,0889178962428295
0,0887349502071854
0,0858399710502622
0,0914292385253875
0,0935878246715397
0,0931913676099112
0,0922655978847444
0,0898028871742465
0,0842022789812488
0,0962646676697545
0,0818932849413911
0,0899970784607259
0,0845018184357053
0,0844648510887569
0,0848094990130343
0,0863332352254267
0,0757626116649613
0,0937402076115052
0,0865682912076536
0,0897112326243728
0,0804020553329193
0,0961124232395829
0,073747556728516
0,0975678048349646
0,075492198588206
0,103207924909459
0,0755858258008139
0,106869231083355
0,0773865573694012
0,10888590428876
0,0794858634299092
0,110046953782279
0,0686105081962622
0,109041015661919
0,0650037309930966
0,120181173016437
0,0721340083589656
0,126933282187732
0,0578568992142856
0,120486960842227
0,0632011660372678
0,137220095707357
0,057926474453792
0,118046256193391
0,0589476217635549
0,131100254996955
0,0661068908611693
0,111076828334554
0,0786894713591864
0,109265806450619
0,0841959144446583
0,0913289585873976
0,101652566790048
0,078183649734826
0,108422631753243
0,0742014426705554
0,113193774942541
0,0699206139038679
0,110524209318161
0,0787023124051801
0,104846132692232
0,0843663546442582
0,0951489458126463
0,09204444339481
0,0908142968287636
0,0936295288163917
0,0901073205034819
0,0932716565655525
0,0931893268111118
0,0898633078924608
0,0968346943342193
0,0852654409995324
0,0997209357867447
0,087056146337557
0,0973596278505872
0,0875930776417889
0,0955048788287671
0,0916898933494549
0,0937171229142154
0,0897761730849173
0,0945274572973278
0,0899045451654891
0,0954487173527488
0,0905936527582379
0,0956690775702659
0,0895873509645204
0,0963712051992631
0,0906311937586436
0,0926369312619207
0,092107322830675
0,0965975872930853
0,0925102357141913
0,0969427740936094
0,0947506026845096
0,0953387263114601
0,0937379045506141
0,0997255832517301
0,0969314892999002
0,100534367539648
0,0946077184958119
0,0975203753300195
0,0939948942647016
0,100648985689776
0,0952570561379861
0,100031196262193
0,0967337078786828
0,101583176469632
0,0971461239363443
0,101470738326566
0,0941751907075166
0,101047223296255
0,0960676978598008
0,101075986512084
0,0962514227131268
0,101619764788616
0,0953259994632152
0,102568328349787
0,0981466186687174
0,103505515571408
0,0984790859361213
0,103656624338379
0,0999325182964374
0,102444766141355
0,0984376482708449
0,105541990163452
0,100336395795421
0,10234773802135
0,0996705548843395
0,106762758106921
0,0990936836261303
0,10718824799878
0,101655111587585
0,105331295173109
0,103318226141498
0,109162440732793
0,103079488355573
0,105777101618782
0,100690400921287
0,106354366627967
0,103538867625737
0,104553365462968
0,10399880000544
0,106690770187204
0,103788981496052
0,108128119061968
0,103551479051975
0,108104686963158
0,104181808395815
0,113110501313908
0,103568660335065
0,109154155680385
0,107422986868474
0,109273861487105
0,108582493630387
0,111494768211108
0,108258194979294
0,112088465378807
0,107998085031497
0,111465458072413
0,109539656870715
0,113713076463098
0,10801707560298
0,11258777370936
0,110496108519772
0,11410484865459
0,112121283629541
0,113963876618286
0,109659204324509
0,112459429918329
0,110326981821122
0,115977567765621
0,111209192274302
0,114920870738653
0,111349030387293
0,117429258984249
0,114038329003674
0,116285515045074
0,115299976700388
0,117501526015271
0,114431953190953
0,118989018949161
0,115990612761608
0,116407670960396
0,112802470721888
0,117999970821744
0,115110230419189
0,117269885864204
0,116462924601002
0,119372274543166
0,116203678986483
0,118170258051862
0,116097439537191
0,121162911738392
0,117303196613044
0,119369874163754
0,119696692638219
0,120816341629959
0,121580692003436
0,12356358535357
0,117858077997149
0,120792539525382
0,117127492984818
0,122452952916528
0,119797105590199
0,120695517851126
0,118768340790543
0,125593755647602
0,121972663516584
0,123578246032177
0,119059392739194
0,123652995655134
0,120397832067255
0,1236529281043
0,121213310073712
0,124178125500067
0,121454066611123
0,127978578629475
0,123477983264146
0,12428587091216
0,124699702877781
0,127225449121751
0,12356154548962
0,128534055736693
0,124432135529967
0,12416074689807
0,126043595721673
0,126235936037541
0,12198631928784
0,128750602868296
0,124301972877697
0,1257623062166
0,126344006493002
0,128408075903141
0,126760384146893
0,128769670384321
0,124173866756305
0,129269542835609
0,123188069627028
0,127284511327062
0,125274405742083
0,127620812806214
0,124984174317376
0,126243299929352
0,127109275392324
0,129964512213924
0,12611230579758
0,131864339721789
0,125770531422753
0,127974722833259
0,126772482563185
0,12951391715548
0,126106446827781
0,128506450609265
0,126860815383612
0,130946959581777
0,12780146317746
0,131298144271875
0,128393140967496
0,129737082562974
0,128272163990344
0,130913306263542
0,124624477241367
0,129927825786011
0,125508510607008
0,127869455564155
0,126921113349654
0,133936433868649
0,129963619794365
0,129932212610823
0,124415078892586
0,129691067129518
0,126896732009436
0,131466837541083
0,126327502462191
0,129262489470411
0,125199426137622
0,131417138047583
0,128565141854365
0,12924941424972
0,125959678668103
0,12969992298913
0,125088395333654
0,12872004249225
0,128366454753626
0,129340915869525
0,124977431920416
0,1291648576227
0,126526839140371
0,128626676634238
0,126847811339047
0,129867381065057
0,127553763989681
0,129530416664936
0,125754174950271
0,128157852447108
0,124775394282542
0,129367822943442
0,124354255695054
0,128330799051239
0,123405633996948
0,12762383161585
0,122655866275725
0,125159160366826
0,124112434361755
0,127931672522372
0,123593188360627
0,127418544063843
0,121855757824828
0,125175715321087
0,123581456576819
0,125198048526642
0,123720448484176
0,124602402893093
0,125730377403463
0,127256632201469
0,1230719240863
0,126092776639792
0,123377375120745
0,126344045698423
0,121484864809308
0,125794634016549
0,121760115193832
0,126685264100697
0,12337379195471
0,123461325840904
0,123250522745599
0,124159746135456
0,119990390559098
0,122575037122776
0,119219738134015
0,124027695745183
0,122179210140125
0,120289694615471
0,11941459962849
0,121340802312625
0,120106020886427
0,120289078055162
0,117659232497771
0,121082450785583
0,117968914258685
0,120875160747812
0,11646562803752
0,118537859270097
0,118331248540323
0,120257783808225
0,116470259610918
0,119628889614568
0,115130628969625
0,117238197044298
0,115669419724892
0,118238329980253
0,115635295043285
0,115866208638481
0,114386675636004
0,117687226502469
0,114508584454398
0,115961911906567
0,11352958547088
0,116484192594696
0,113379504625714
0,115284397976305
0,112402642407717
0,113089507072233
0,110476682304773
0,116154682003144
0,108905372909751
0,11318226627664
0,111910911954446
0,115042310163911
0,110198996112639
0,118660614766085
0,111033281371215
0,112714255459493
0,109317611967808
0,111808761462965
0,109300605563241
0,111044221603004
0,107727559160969
0,109123439879163
0,108016317692763
0,108916588587358
0,104714282939114
0,109881873721583
0,108103836284405
0,107492020446431
0,105065919810544
0,10659006921938
0,107630183845509
0,108581505832167
0,104546430287052
0,105656477189798
0,102532381115961
0,102918084783566
0,102874967938427
0,104114372324812
0,102620486133887
0,104886596825692
0,104691428184009
0,103062891820853
0,109114013498613
0,103336281453091
0,102740727614494
0,104259135569095
0,103488688300785
0,102364077484623
0,101850684377554
0,103874304332012
0,0998557641452887
0,102059644934347
0,09966468721676
0,0999633458998192
0,0961519309678292
0,0977222917697478
0,0988054372409872
0,099270392761801
0,0979130895957239
0,100559255941629
0,0969129095783691
0,098409119516723
0,0985981348590518
0,0958116242391653
0,0941467164284808
0,0971711927782314
0,0971642593332687
0,0964056679075175
0,0977662817091224
0,0964820722788882
0,0924586492887408
0,0962070081379835
0,0924964724990136
0,0950919277212629
0,0933993439041283
0,0951148737479746
0,0916789649467165
0,0950441202171979
0,0911552289926142
0,0949570978552876
0,0907636561265787
0,0947324225368015
0,0897370753608906
0,0946084861713055
0,0909805293980242
0,0924252217664946
0,0875526332371836
0,0938893375661638
0,0888544487483093
0,0935314106330124
0,0888322885655911
0,0928327349347985
0,0867519639351331
0,0943445514839649
0,0886921656547045
0,102222776673515
0,0857435587090992
0,0906494517330796
0,087499966688415
0,0893454989440513
0,0871867106643428
0,0882294145416438
0,0844365794386994
0,0884957072135403
0,0862939259442062
0,0888626911761639
0,085332555313276
0,0902095567761418
0,0883451449744769
0,0884210878934509
0,0838332315120721
0,0885775408131524
0,0851309904767501
0,0850476759767617
0,0843743661097036
0,0878573432443309
0,0891067939313773
0,0925062520109767
0,0786648285472247
0,0886729837833234
0,0831701040020564
0,0905941273784329
0,0910598759899974
0,0783198370985281
0,0857343998254197
0,0813676522188053
0,0865874277864861
0,0813760069058884
0,0866920164563448
0,0820442290424275
0,090189853321751
0,0818084930259818
0,083449962639709
0,0830915208091978
0,0818493160694431
0,0844698349923079
0,082911680482477
0,0837561343627475
0,0820064755420663
0,0817205135150115
0,0826197291287132
0,0830995951457548
0,0816384550779411
0,0812652392871788
0,0830829986937225
0,0822811702894654
0,0873347271116324
0,0804358920954652
0,0831215492638441
0,078764741853806
0,0862287932186161
0,0845457988119096
0,0898337405032239
0,0803061240168818
0,081748674480795
0,0832186488581764
0,0786186910803178
0,0807123571705349
0,0785151591466052
0,0823863450275819
0,0802434170437723
0,0831019608053702
0,0783377946932209
0,0841656144115007
0,0776226937137874
0,0810702281843164
0,0788435619768178
0,0821487886519894
0,0806042249820378
0,082050351165138
0,0776040464855133
0,0808923075715828
0,084340610618922
0,0902442297426849
0,0952948026014654
0,0797637740879642
0,0856764374787795
0,0778876964390146
0,0818726043240853
0,0778515500354968
0,0803033910937222
0,0781640428818524
0,0817091449506896
0,0794631991783304
0,0829756521752685
0,0815102232524346
0,0826982108394009
0,0794951961004697
0,0811826389746376
0,0791177835592273
0,0785046305901176
0,0803310260210283
0,0808838318212753
0,0810420608048615
0,0801341100892708
0,0844904709831414
0,0801900039066405
0,0872752985521673
0,0754874423747786
0,0975252108791002
0,0785234316192651
0,101911708094042
0,0739694786619008
0,0891885564597368
0,0780413111884719
0,0846189241558876
0,079978674136375
0,0845226985030374
0,082600444657887
0,0817672815451321
0,0792228105831834
0,0872524757543819
0,0826971855181443
0,0833722855824375
0,0855654681691418
0,0903049312080127
0,0890576688404473
0,0900591470447031
0,0787977206960013
0,0922088861225559
0,0831508882580384
0,0974504275804569
0,0835308695884609
0,0792419881054759
0,0878731023685074
0,0847480318424048
0,0853851609818898
0,0823033895278501
0,0893154425186782
0,0875079156266493
0,0871212331694879
0,0846246969795557
0,0866932924860455
0,0875160358621978
0,0843056848198994
0,0914698691581163
0,0879582979243309
0,0925255422831764
0,0880264027053727
0,0867031329838289
0,0915708173742068
0,0853751624615689
0,0926270118213381
0,0854063426428785
0,0943343309999228
0,0917670017112804
0,0956190448867558
0,0949986055810368
0,0937348828940466
0,0948825678302569
0,0911653703865999
0,0915972236599783
0,0989132909660068
0,0836068092903743
0,105436181687403
0,0864386796274589
0,112334760598509
0,0945319052957713
0,10179802512174
0,0973144393626896
0,091678947389148
0,0974637249523622
0,0906055541487112
0,104278664880047
0,0935608653605588
0,109132429711298
0,0849437025183092
0,113289016440511
0,0867514307700071
0,11340038072436
0,0969586559323812
0,10518009889415
0,0970865623302346
0,108571031837088
0,0943246223327553
0,113696279586218
0,102199260745983
0,121909928690296
0,117765649514523
0,103702310053153
0,113116876679544
0,111953867167393
0,105410271952043
0,116982452956015
0,103052997890546
0,119886856397803
0,101337947614643
0,122799220581814
0,112641644572331
0,123636163057299
0,120551624902538
0,114267254316823
0,117266283456241
0,128686042562614
0,119428516989232
0,128789763897435
0,11486931888929
0,127583918684416
0,115319483175186
0,143928850584936
0,106829613440221
0,161489692257632
0,119101656188759
0,154539853167461
0,129934155151447
0,141370599293294
0,131254893084422
0,143768339452234
0,141534129578289
0,14793830160551
0,135763418352624
0,151359366140922
0,140805023312213
0,157044129810773
0,148588697996332
0,146006746624463
0,152958901829191
0,155233929601518
0,169646064546235
0,182246678625041
0,160080020023652
0,163604202756713
0,166750738183643
0,172025896010493
0,175091599573905
0,163976368081019
0,174023170881345
0,174272288301217
0,177208307020402
0,186275874447026
0,180951989901977
0,192901377118088
0,18022203373264
0,195358540803198
0,196288022981946
0,220440106137851
0,212962178102634
0,212777910166641
0,223686774967583
0,202722079622357
0,231525335578893
0,212847484941132
0,228649267135048
0,223914652490085
0,231541065599527
0,238058882098867
0,235187091874729
0,254472189312337
0,242443867766055
0,267809906935895
0,25970129027985
0,271951888671523
0,268604786847817
0,270656057528363
0,316396016098658
0,251534803218532
0,327018391942518
0,264524557532721
0,31970072283813
0,297490203508447
0,338596170361958
0,322635585416701
0,32174315377097
0,327759152220525
0,334974470528139
0,331259165238367
0,348639342878141
0,356003805365758
0,367234276936442
0,358274358053142
0,378421529944388
0,373634443816273
0,445913842182306
0,405979351076691
0,406134307609976
0,399326753914122
0,418702366024998
0,421783112057435
0,42993701807386
0,41917990029306
0,449147669610256
0,444693911557988
0,473437280835217
0,465536424387553
0,456765781446612
0,485022763905309
0,470586291329372
0,511971026388215
0,467372063746739
0,533832704064661
0,498000908875941
0,530250811961956
0,514514168490377
0,530044875742291
0,551000576934075
0,555510827896821
0,572952516808857
0,563221602376391
0,576095453153564
0,577756428243986
0,584980393733509
0,592325077315033
0,595105081290702
0,618351318169127
0,611242863729967
0,705444726062741
0,668234957233717
0,661898443858252
0,625000739966067
0,644688787299907
0,646660196495803
0,669275723174546
0,699668107879426
0,661492803568416
0,686158657154084
0,664544215577168
0,677768951316171
0,677708799082499
0,676210756265932
0,694202954007883
0,690711610532606
0,712849139000814
0,667990286128657
0,716203770790952
0,71684511145951
0,773555416017376
0,700015649677178
0,695633972980983
0,691212460187089
0,688359143256746
0,691956856542561
0,681598751366705
0,682247212580621
0,680946804933016
0,69210880157067
0,66270510075142
0,675989685616852
0,652771571134022
0,686187218100859
0,643890595089097
0,63901064088918
0,642102503348373
0,610642401978884
0,635922220171056
0,624363499166411
0,627135552049153
0,600681368329224
0,57347169254561
0,573958682058106
0,560068198868962
0,566829852365025
0,55690202170767
0,549110707384992
0,546214565582134
0,540774673974022
0,520887640253031
0,524457153616061
0,501323146675051
0,501260826268261
0,492308138136222
0,491850840222531
0,474101161456612
0,477717780552728
0,465846378289133
0,456837319418993
0,45020861854834
0,457447759352054
0,437247858098098
0,437417524732551
0,428126393455306
0,429849522688652
0,412207806985629
0,410696790105154
0,400281010442803
0,400350945643358
0,393821784099798
0,388204207383389
0,383371266269124
0,382796336738495
0,375123596137013
0,379593574865213
0,37275308930425
0,370459138387958
0,366522613287393
0,356871497635999
0,357130511865913
0,342628774383199
0,368283124691852
0,33797470023385
0,357724148346032
0,334300172057154
0,329298589152023
0,337575385258809
0,323702634170931
0,340592257044006
0,331890418527921
0,345784701656667
0,319143642355585
0,316375901212733
0,315002390597876
0,318639433554596
0,312055080687402
0,31738509531221
0,294099152591961
0,32899903501063
0,300783692266123
0,354185229118071
0,328637774151118
0,330774309705012
0,302847465698984
0,291785672375728
0,316905718335374
0,292084612951408
0,302077489626283
0,271427599019317
0,296839069018151
0,268019759971552
0,298176402314798
0,285297166304116
0,274485425606012
0,285811839871541
0,288619730906502
0,282823051077866
0,288417254130577
0,287781771636881
0,277765662357729
0,289129632462318
0,292023328391369
0,305304704107102
0,267533202725105
0,271607024776581
0,257564806261205
0,263460969995472
0,277831345729057
0,252786820130604
0,274427407146826
0,254330795723952
0,263085631521051
0,255455989722022
0,262914227782856
0,268600703169481
0,250419890267687
0,274257174587585
0,235796964340718
0,275043343749259
0,239404400659769
0,282081582407239
0,264020342386468
0,267725564610644
0,243931168276863
0,255413094548373
0,257001719344605
0,253853989295101
0,261808826775824
0,240846697450761
0,24707456258436
0,25802021438449
0,242137857943521
0,249668570151032
0,238321665578307
0,25336772606685
0,272199607139766
0,261762120811448
0,288722779095309
0,249183983594116
0,236950091489343
0,237845193847616
0,225936596773925
0,243141738856939
0,220694678252146
0,249690544927846
0,231163193438487
0,235470258143704
0,249466682378475
0,22190859101648
0,237207044046773
0,227455290141248
0,227036421607519
0,230325459983223
0,229607847704268
0,246820005129249
0,238249114802512
0,233374820197094
0,232380918133389
0,22340918524159
0,236986612364586
0,218613233275556
0,229205884824964
0,217344939937196
0,231656592229972
0,226402038067549
0,229103756304277
0,224791477392164
0,223442122065811
0,220851887575724
0,247254117478023
0,210869434722715
0,252343419096915
0,211998893866001
0,262265941773195
0,223566521716147
0,232175897991318
0,22597467389739
0,220555777953712
0,228166947414358
0,220677519380477
0,22387015528936
0,246411148787466
0,215646954912692
0,237319163110874
0,211056131517897
0,233611929548156
0,208901290857005
0,244151290855134
0,217449716378543
0,250291826294747
0,235550945255273
0,230547671659388
0,235112976004733
0,215559902480721
0,231479066818077
0,22149571250618
0,2218798558658
0,22173564163329
0,216626620735289
0,237477922371616
0,227518610007578
0,227062200739497
0,217349840591544
0,219438369245362
0,218411527599249
0,220115387870731
0,224241316722195
0,220479391393669
0,218083958542041
0,223178389387359
0,212718304942022
0,251875379880108
0,219698111802057
0,230784007040987
0,219938251324504
0,221989027799221
0,226653496755011
0,216520827241152
0,229694630730802
0,225711548390627
0,221436481918412
0,223954420588555
0,21648887003944
0,225461771960546
0,210531512881233
0,234151012109369
0,212700060699213
0,234377071010285
0,209756615170167
0,226642027540453
0,251188705893079
0,216792734227276
0,239558735827098
0,21428151392234
0,233111042995581
0,212098819175536
0,223366543707214
0,214900433899138
0,227078190479658
0,218108097451012
0,222326477726178
0,220130069422517
0,22085881589957
0,221730606022548
0,213867743194108
0,226231623656173
0,217705807558782
0,221057693113878
0,222012459254514
0,224122162656376
0,213993306069026
0,225589565992736
0,222755060740786
0,223313140578061
0,228562431707791
0,213513933767834
0,231862413198266
0,226496080590526
0,220177033306445
0,22318925068163
0,219379359678111
0,218206461173039
0,220303584281437
0,21436463939634
0,233759145947364
0,217245858919349
0,228308178754074
0,212017744105925
0,222528429948007
0,21584135820005
0,220468384853789
0,212644366940249
0,224732828730093
0,21554375132075
0,225776099066951
0,218769815423174
0,2210381952525
0,218091676167988
0,222250645724926
0,233308858948754
0,226245599939593
0,220906581894708
0,222159507619542
0,214393278357251
0,227466490350404
0,218753420519191
0,220705422898194
0,214583233299062
0,224350477576799
0,208050948147801
0,236643530915527
0,216969525573464
0,226464624421255
0,220604655329527
0,214738980054308
0,21812884715967
0,213170826319279
0,216120750230758
0,214440693458661
0,218071960616038
0,214832043205186
0,217341058044333
0,21645319688662
0,212509778097215
0,215084691341997
0,215906936404481
0,214729391394724
0,211928911276987
0,21794826029149
0,215469193731715
0,216158154753501
0,20990476941825
0,214406091976389
0,21062469008603
0,218224265101142
0,220836349452025
0,220765149458775
0,22297993073009
0,216731139418228
0,223647892156096
0,211427365342706
0,215988859416335
0,211756563468149
0,216350934774629
0,209803094673962
0,214276645834633
0,20874114180725
0,210938429566671
0,214005511346016
0,211912133433351
0,211070027376805
0,214434854083359
0,212255091331744
0,215778796316301
0,210890593391699
0,214606900505089
0,212728675324053
0,21294995079936
0,214750383405944
0,212561690052352
0,219265868161663
0,212150119525137
0,216062910068095
0,21079471409049
0,216602621816727
0,216775836542068
0,211918673331717
0,21182883567624
0,210775898788601
0,214728182567072
0,212320827164052
0,211358801600715
0,211952014892119
0,21144110507308
0,213005129438476
0,212178288426207
0,211003595089336
0,209892486551649
0,211123405253729
0,209799012728622
0,209696605652138
0,211137902294779
0,212349457667661
0,208748231913496
0,211169438255788
0,211395104034572
0,209187935066531
0,206961962440671
0,211323135547276
0,210875645595501
0,213347823104509
0,209504320630665
0,212351682455559
0,209041960075867
0,207552901761688
0,206546043751646
0,210395466980092
0,209772399326123
0,208479039821584
0,2093579718827
0,209533466024715
0,208690527245544
0,211238085202573
0,206143469348241
0,212083534062258
0,209417263358855
0,211956108034287
0,207139412437887
0,212030379310455
0,209264791928642
0,211442053878456
0,208936863430925
0,211679813724188
0,207974193516818
0,211038900510623
0,210107461484862
0,212374680765451
0,209862856813149
0,209201725889179
0,20998979416518
0,210189432972925
0,210913186797859
0,212484243603954
0,210774181767035
0,212982784269005
0,210988660188401
0,211270630311815
0,209271564662147
0,213939282014168
0,212471304447688
0,210525223339848
0,208594398412856
0,210255877261023
0,212064299662245
0,210130775265156
0,210523806544403
0,20866610794126
0,207860645356736
0,210778330360684
0,210424251011148
0,209385846715459
0,209224891443007
0,208681975999129
0,20990738789432
0,208445069737227
0,208698351784422
0,209082687424265
0,208493104120927
0,209437469366459
0,207358352512527
0,208768839394036
0,207951804073279
0,208528235054154
0,207715407169473
0,209167414764309
0,206407860084368
0,210184022913639
0,208680421254054
0,207933764177487
0,207252209938726
0,209360047439002
0,20923697148339
0,208087231742871
0,20732804154318
0,207313410924981
0,206660492178852
0,206252234345783
0,206969400109135
0,207871928109195
0,205483195355441
0,205677033796627
0,207481293054221
0,205879516018318
0,206118671078107
0,205910114494015
0,203128033010752
0,204487359116923
0,205699259026875
0,204909063868488
0,205233312874702
0,206182769475435
0,207052569358874
0,202911921200203
0,204872239674097
0,203641959185969
0,204589658467983
0,203151519662527
0,204474525632621
0,205190820013545
0,203817233571613
0,205367993023654
0,205276429575223
0,20400845890132
0,200737919827903
0,204279397367022
0,204432254790446
0,203161492211781
0,202905102400978
0,203182643609248
0,203439794544112
0,202402991561551
0,201078018800053
0,203717838345352
0,202573868513868
0,202483034935455
0,20289207242182
0,204079215152584
0,202773645106543
0,204854387614597
0,202332003465035
0,205657515855377
0,2053767810404
0,204778470927734
0,207586701820179
0,208159119732394
0,206805254826375
0,207201118551221
0,208580792429443
0,209790657113802
0,208273806382326
0,211419669256452
0,212348149638273
0,213269754600044
0,213127629768149
0,215294053322403
0,215856045685206
0,217114982496139
0,219664866663174
0,219720791277771
0,220084232800153
0,22125174943931
0,221353430979172
0,221177282790911
0,221901511086415
0,221285817359885
0,220724531516503
0,222616182121523
0,220015963971992
0,221747402313017
0,219925164544495
0,218288237772949
0,219996302332197
0,219321840472636
0,216214675202742
0,21788006064129
0,218606158991557
0,217954880540059
0,217203834850806
0,21894078136212
0,21732030632636
0,216832244629043
0,217704444605031
0,217709784645774
0,217173571423114
0,218778093536865
0,217031603769561
0,219608922549666
0,220574418317205
0,221801317283123
0,221983074945564
0,222513584249504
0,220682592608689
0,223407424837356
0,222678383260707
0,222766956978837
0,223634926694914
0,226191161508658
0,22905395869074
0,229290993367192
0,231364335164154
0,229864613512362
0,230270365203544
0,231789355505251
0,230707544624524
0,227975332047055
0,230689357234608
0,232643429670806
0,231437174239874
0,228316790241989
0,227837279893282
0,230267955359796
0,227788149984762
0,228144954537224
0,228109032362343
0,226937354608173
0,226059413668917
0,22764523511834
0,228505831307077
0,228355073493708
0,228910143402797
0,233024381669116
0,233057495759241
0,236229866775846
0,236062703798901
0,237757445504303
0,236688350078994
0,236152093007284
0,236824161067986
0,241180946876887
0,240468726017676
0,239498153409376
0,242281060519555
0,243166148760128
0,24260812493812
0,244938558406399
0,24329413680347
0,24635363536367
0,248347001907466
0,2485297351077
0,251868066849913
0,252290910428772
0,255064760116466
0,257067672274878
0,257316531929679
0,259739516428429
0,26176966434091
0,263656397571556
0,263434653963567
0,26600498583227
0,26453508850205
0,265322148851808
0,265747041645777
0,266322481913321
0,266200752908547
0,266254237043874
0,263966536234199
0,262445909325291
0,262112776610233
0,259093725165503
0,2564664736774
0,255904364588603
0,254053149946976
0,255458239782291
0,253002396923749
0,254415106837131
0,250566356729594
0,253325221328903
0,254597795073145
0,254333797540812
0,25296438953475
0,253666931601212
0,253735364175057
0,256500754662608
0,258102868834139
0,257682997926446
0,258601902456051
0,255479500012567
0,260741912398382
0,261559939146656
0,262256619179313
0,258954209451466
0,260584237121538
0,260646635250859
0,263008054002829
0,263023274035131
0,264755773202248
0,261654921143271
0,267258328973335
0,268041284588011
0,266587222076114
0,264008830238993
0,262797095037294
0,265081623282955
0,265037798663383
0,262737620081648
0,264114448948432
0,264375774988725
0,264495063646834
0,262705642696958
0,261931945617371
0,26341695870043
0,260933161200304
0,262644039918719
0,261067845408183
0,258912155280169
0,257743264827399
0,257493366083993
0,257441351054194
0,254010429938933
0,253199489570954
0,2571081809236
0,251636629086891
0,251871693525437
0,252416914654163
0,251734138753074
0,246011451962386
0,242465927834176
0,243448872573999
0,242675107950957
0,244243557637837
0,243150525094765
0,24170796775684
0,244567693318912
0,244616986767524
0,239979746355581
0,239087571382475
0,241934500120767
0,240849824906198
0,244625316781667
0,246435754827175
0,24592591226232
0,248871545211735
0,250092678828836
0,249307106194066
0,247585059040186
0,248279711329229
0,249554458782633
0,251959008265986
0,246990209480498
0,250476033549408
0,252859537508762
0,251827950557318
0,250431051915375
0,251060352456958
0,251990397596511
0,251208146548118
0,249145277515877
0,251694180343189
0,251656229100379
0,251347163796693
0,24940762503384
0,251854609998896
0,252323689170929
0,251678883445818
0,253417706275847
0,25367622632372
0,256836580842893
0,255933730706123
0,252091933737228
0,251932967093022
0,25432220589861
0,25477451909293
0,258239039891315
0,257896018082025
0,259267413351471
0,257226661821479
0,259843284191709
0,261831252009019
0,262987397358784
0,263842336719929
0,261950065328888
0,263360178157954
0,265368462342795
0,265673289530769
0,267188097724108
0,269169718054407
0,268117939392953
0,270920059430155
0,271490640213409
0,271427240432261
0,273045058547488
0,274136920024115
0,270413282087996
0,276835905081289
0,281786473592864
0,282111942277022
0,279448197994893
0,284649853524434
0,282592273954818
0,284655311001609
0,282725779614392
0,286939250864668
0,289617464261593
0,291053548546796
0,293615343114875
0,29433519233224
0,294414237986248
0,295920002416995
0,302700659205029
0,299446542759412
0,304956769220249
0,304271437627635
0,30238263218127
0,30419483587964
0,306958588908565
0,308068673830163
0,309611504329087
0,310198794082964
0,320022288768768
0,318712248436398
0,316580963175332
0,31888862797058
0,320483323083961
0,321062828959715
0,327514387355516
0,329357524040697
0,331015119087249
0,326870693255304
0,333577681183827
0,338865563807597
0,33242948310765
0,344819481588029
0,34133411835714
0,342346918768991
0,34914069992138
0,349447526685609
0,348871892524483
0,356977303802972
0,361313550334149
0,359712802160084
0,361444069134466
0,362003937436813
0,364430244859635
0,371191847762652
0,361766928561881
0,369663828058942
0,375728337366605
0,379646775214409
0,382362764998363
0,389221925097329
0,381087846906117
0,388722204788765
0,39638309120887
0,391518731287156
0,391495880399545
0,399222873118678
0,397262367749069
0,404201099556499
0,409017322464019
0,414711340850476
0,41323743944679
0,416710010889819
0,41608785866107
0,418715070123401
0,423614193712773
0,434047452150317
0,427405624348992
0,434414762047924
0,439257978856128
0,439848182095335
0,441032138204053
0,446012993019731
0,452810606332673
0,457161352127499
0,454850997766869
0,458480957978428
0,462279142533678
0,461174771369002
0,460709246787762
0,463387871055161
0,4677359344981
0,477122314893849
0,474424606742745
0,473206176374648
0,487408570593334
0,488353829991614
0,493519077170849
0,500071248250725
0,496735392315193
0,503684582683125
0,499627614397012
0,513780770505083
0,491897081430357
0,515872988163697
0,536603473237935
0,52450896579198
0,531513916007597
0,535344175424897
0,529385443359415
0,543478224812846
0,535249333817186
0,53907828279753
0,5438383270518
0,559719189800699
0,557747138358778
0,568398307996138
0,560995357439375
0,574389901561069
0,573277988697341
0,579018329598782
0,580396876202133
0,579136657327252
0,585027497333028
0,583838738797522
0,587152063468465
0,605018139638305
0,617464308136432
0,607208025408178
0,611723168128248
0,623551639967171
0,608935843826963
0,614097976466686
0,608329557437803
0,633819081570772
0,627894144366365
0,634951577425375
0,632277120966315
0,62417641860601
0,663105240470633
0,646006908791005
0,635069445374874
0,651777137707976
0,648914649770138
0,654395196565808
0,655299588140253
0,672199643245256
0,675537759580542
0,703829173831582
0,70692165174526
0,716295624656646
0,685753346558399
0,697786882907643
0,701387996722672
0,716200769150274
0,704910942934133
0,723153593109412
0,724330862795524
0,698956277798827
0,71535788837139
0,747339705816719
0,724261418276088
0,72054995005366
0,708443975086783
0,73503981554854
0,709505115635238
0,758655471035496
0,723545456979036
0,735715420229124
0,778908236690986
0,771503349413527
0,761595679392908
0,779422460013331
0,824770996680616
0,798745176676046
0,795581245626997
0,817928869688778
0,795566546199191
0,822926653861247
0,782983601063438
0,813882011540259
0,806099885444091
0,849770853917793
0,809171724843404
0,817742868653714
0,814703116352292
0,823649901707826
0,807274531490416
0,860125087125933
0,854622920334152
0,819531762713188
0,861880759623674
0,883534176060504
0,818196610141778
0,886870349711174
0,871458466171637
0,898170253329663
0,85828885736534
0,883453431650683
0,889000045227386
0,891753150027076
0,860903588926358
0,891209569263565
0,918917323752724
0,961839206207168
0,875722783547002
0,906276735771047
0,97684091885712
0,922344756599288
0,87207017296565
0,924676414306973
0,93023504668083
0,973137502050197
0,965006419393602
0,965311845099515
0,939877247436486
0,915293268696462
0,961919014621132
1,03301707779497
0,94236126053284
0,896929669679136
0,964883751992531
0,986210991832143
1,00718932093718
0,977254259572272
0,946071600373368
1,03483210411541
0,970262857994154
1,06741888146078
0,946650402457497
1,03671352679587
1,01183964751115
0,98391673976941
1,01196024529182
1,15204962400477
0,94452246281739
1,03610514884491
1,04660616526501
1,02069685264811
0,970344979610783
1,09526386863954
1,11102384542498
1,23387895685279
1,01220459102106
1,03419228951344
1,25818279135458
1,16847995463433
0,971169914229252
0,952245575873754
1,09654501384302
1,26057430200035
1,11401630369351
1,1885004487669
1,00830622682453
1,06623995702014
1,55975471187694
1,13259297050678
0,95528630836804
1,02357705994624
0,990408161219552
1,35908925971525
1,15661848778491
1,2329507373124
1,17774670433129
0,996798595073406
1,12096665399896
1,25459968721505
1,10349610578881
1,22030054308192
1,21516871419225
1,43954385834422
1,20467476189425
1,17954455575979
1,02343049171288
1,39769021105893
1,42288253697065
1,32976716988433
1,07102284084753
1,25016998903537
1,41445311259304
1,2853318264255
1,24674519475298
1,80317476908397
1,23294244842734
1,12522614632167
1,05469727644976
1,08827720048176
1,03972954741068
1,19512919942885
1,23258097487078
1,44724436088761
1,05980598350574
1,29068641406876
1,51774777397811
1,32719109923971
1,66863186219552
5
1,07156465036686
1,12176929970698
1,8254215548892
5
1,0082505404371
1,12700882426984
1,53767398747993
0,934768627553866
0,837705536294474
0,796895719193576
2,27073205338117
5
1,35293124499644
1,32276743910094
0,920651736925715
1,31616119743689
1,49108715574744
0,923848523759547
0,900629310984362
1,09303718984291
1,03167968828035
1,58947693668615
5
1,05109975081524
0,91822278078108
5
0,958980196549546
1,02427244860701
5
5
3,36931488107143
