3596
4000,36533379555
650,420452594757
1
2
2
0,019006023711916
0,0147053340771967
0,0113550126077004
0,0185648339665248
0,0100685292056204
0,0119603547962432
0,0128878247004498
0,014901607859671
0,011758774699508
0,00952366788994417
0,0178006542841253
0,0126493279374785
0,00637396230918386
0,00952680824752231
0,0112331306104675
0,0147202310336081
0,0140434448219935
0,013548397980812
0,0107934429492273
0,00928575595818156
0,0076089109479865
0,0119753365977011
0,0154002757914693
0,0139440758851047
0,0121395041511489
0,0162715876008276
0,0132382946459291
0,00820999751220259
0,015593592131573
0,0106793696453958
0,0155211505131178
0,0168837212813828
0,00569003872548504
0,0102332890244859
0,0171284556243608
0,0180127090510018
0,0113688286293716
0,00267241958342494
0,00804810935934125
0,0170517188125757
0,02093639357135
0,018617664461534
0,0158930464088371
0,00946499256268147
0,0113127082401388
0,0116671878376978
0,00994132367537985
0,015273088653879
0,0176140688464972
0,010251729899449
0,00825514597853841
0,0134941167032003
0,0156363898407175
0,00775114723008955
0,00918543273538233
0,01511115573597
0,0132355784395956
0,0142121638124672
0,0138711067610731
0,0181961106005126
0,00773873929469178
0,0115414260207643
0,018799123887726
0,0130556763853325
0,0110984270114982
0,0126318777240585
0,0103050968387117
0,0139533096814958
0,014884241830486
0,0150811486944623
0,0120934768360776
0,0155142952014453
0,0170334923987637
0,012006109246431
0,0250995691768501
0,0136348172434596
0,0108675490933169
0,0160071863403283
0,0116868187095437
0,00870455992921018
0,0104550600575089
0,011066152243798
0,0145558895078033
0,0153035458208049
0,0119881502667711
0,00871158121639039
0,016078014879087
0,0195670298428034
0,00743646714340203
0,00910592352628145
0,0156501108860626
0,0134406848418573
0,0174989996828079
0,0177388083531726
0,0208325964047958
0,00709406295516722
0,00688501380448192
0,0102672826358512
0,0127623664674014
0,00674353358863399
0,0134264589357226
0,0277240619314354
0,00976930217625663
0,0059572123128019
0,00950170874777304
0,0158100237323571
0,0129925383341437
0,00821498684151305
0,0113406576447966
0,0123627942009858
0,0119972982852865
0,0156081069968495
0,0143120137021234
0,0136691555776002
0,0229303572328968
0,0180250642636038
0,0137327539668059
0,0121209655333046
0,00767217043064227
0,0166552073413347
0,0277246266218379
0,0146099035639671
0,00591812466713505
0,0104398448558806
0,00998879620401896
0,0100439286085846
0,016791887440205
0,015125119528391
0,0106215156519302
0,0131623522842012
0,0105444014055983
0,00767261921145196
0,0196224909593414
0,0139283962359866
0,011315357746839
0,0187871304998787
0,00629563091127448
0,0128401927212245
0,0229025562675502
0,0175995182099257
0,0170906201409379
0,0102401137790613
0,00998634939754077
0,0139511941385265
0,014438292077891
0,0232888879919433
0,0134244213353482
0,00816908090996656
0,00722299170836301
0,0116297208838509
0,0145168996266945
0,0164382627711701
0,0070326014463294
0,0033709647726743
0,00867341090126535
-0,00019644529999345
-0,000884406423617022
0,0193131316641321
0,0207797555988579
0,0144076781875995
0,00766772974377145
0,0145843022887788
0,0174515177790154
0,0202802167371656
0,00891740463347324
0,0148503727362898
0,020614420576778
0,0155152534638657
0,0194300455978402
0,0201792010937228
0,0134589366917293
0,0152429894644557
0,0172531506261589
0,00821204526720094
0,0109322829969803
0,0161101276694413
0,0219286211727676
0,0149853174118048
0,0191048929654319
0,0145923001882699
0,00354030272917262
0,00976057800090746
0,0126473257023984
0,0188773117789002
0,0179083744585859
0,0218149929893503
0,0130022765035623
0,0151496606282475
0,0218253490036423
0,0185045649065824
0,0236847917412698
0,0045038501621076
0,010246172267637
0,0138017688842463
0,0142308409150966
0,0155693163762648
0,0162040342218023
0,0160704950159178
0,0143618809208814
0,0195046902302372
0,0157707559483039
0,0173815897851205
0,0136977134220113
0,0103835584059924
0,0159670997171691
0,017727589253116
0,010782789040467
0,0216386340197926
0,0132684286437241
0,0158589038045531
0,0229979947661654
0,0196862043340426
0,0225180673442695
0,0253954059282029
0,0123374631035505
0,0227371213135338
0,021034104453839
0,0141888662523699
0,0164858124403524
0,0124964024449738
0,0100982006368767
0,018868575268387
0,019103386296045
0,0226193394818418
0,0162415299628854
0,0211395415376778
0,0233051034695899
0,0289026109375676
0,0231094645975688
0,0204032771759546
0,019324508625554
0,0189866953829584
0,0230469140103872
0,017614540213452
0,0194554280634041
0,0215458278168976
0,0224811308981482
0,0209423975177589
0,0204463953061554
0,0256566004109131
0,0209923094165813
0,0301028147396669
0,0254472079943373
0,0272925150890684
0,023851989803167
0,0193061980810193
0,0172219084070486
0,0172992203980137
0,0210172184342217
0,0239880821367502
0,0220595322357186
0,0315663178864371
0,0231636093950546
0,0221237798513221
0,0304558245234
0,020589080434436
0,0254198306109024
0,0225952527838881
0,0223077209228526
0,0260781720848963
0,028641050600413
0,0250812036770112
0,0253891649779452
0,0195465388468077
0,0367452527115732
0,0189185681983511
0,0230789879357853
0,0346361928171983
0,0298318492158368
0,0247632831120879
0,0225086660181373
0,0323156614226875
0,027895685169699
0,0260925603978268
0,0175480444687274
0,0224441390743915
0,0266073681563218
0,0271384464977913
0,0317760837447042
0,0317718950663458
0,0346752667406094
0,0289745560152006
0,030845307035091
0,0399416714716329
0,0315594776378174
0,0327335156309131
0,0254090498948951
0,0367814492990787
0,0325564998364103
0,0381964283322275
0,0366125151233082
0,0380991751872175
0,035318105099987
0,0332094765428335
0,0338334869908362
0,0342147891488821
0,0445033599252402
0,0425278891325888
0,0384958801961741
0,0403420531424586
0,0395978784366474
0,0415704875458342
0,0437737986220118
0,0431157213623077
0,0417848691299073
0,0475725439243003
0,04699225599168
0,0563177289535162
0,0525704530292619
0,0446293926585085
0,0486920349797279
0,053700658524349
0,0423515784983596
0,0530381870550657
0,0570952609693335
0,051354092580869
0,0549913553310164
0,0553474552787222
0,0620409007917092
0,0697067728945905
0,0598929396072523
0,0653953425820225
0,0627665780893602
0,0719649097821428
0,0687046531302395
0,0724896715297355
0,0778456628672814
0,0764036540229034
0,0709228868645641
0,0808137624612447
0,079573543568076
0,086279510564348
0,089743575069514
0,0797031407375489
0,0834427138301928
0,09550034006812
0,0883762086040138
0,0936276254748953
0,0941933931598187
0,101302849409183
0,102568904933393
0,109901258513658
0,115282759666568
0,118169601729422
0,112896513239469
0,128250915273024
0,134385963793604
0,15064006666925
0,129242054771271
0,132015894219196
0,134347192994398
0,148396152622122
0,152048304654821
0,153978025261093
0,151506283148628
0,159935469013059
0,158703424521793
0,162880372274043
0,171820808767338
0,180158415894748
0,175463721925634
0,186279704934324
0,193197604404792
0,193047353143415
0,190236713041699
0,202343829113248
0,202948341278382
0,219135583503801
0,20605198947195
0,209894687724127
0,211604060255193
0,226886826023336
0,232472788099504
0,25553184431365
0,236448728481347
0,247442100728235
0,236629863373409
0,261658317378259
0,244804321574304
0,252404098139057
0,250375672435839
0,263220002710822
0,269615951939352
0,277510048903297
0,277095723728528
0,29516293811554
0,297962339164532
0,292463891897244
0,300848945230071
0,301964702447851
0,291580978627215
0,311870540608317
0,30230109756015
0,31516701438881
0,316442778985009
0,319734422189085
0,316582550018525
0,357195473448769
0,320285589194404
0,324991463098355
0,322075352257189
0,345897070614531
0,342245218284251
0,354658889734245
0,354810108273476
0,370075696602382
0,373502228939406
0,386310109868339
0,372265552955486
0,368495549746728
0,362673413803237
0,380439221003258
0,378537525289749
0,398508558748215
0,384114895514814
0,404352183368406
0,376493723722809
0,413150077250841
0,409509051709038
0,405062619223373
0,401869783497118
0,402757069735943
0,401671405219171
0,416466334875251
0,411936833784299
0,424715079338092
0,415072562583303
0,443841598864332
0,4227170449262
0,438967813078484
0,440203088599797
0,448624736832596
0,441580803093679
0,483555467815277
0,457493205314802
0,484307191605147
0,45644482187399
0,474106587705167
0,459765308625096
0,473922103985476
0,461098411114565
0,49643308514202
0,473768899142499
0,481517799530031
0,479149737124675
0,48894368617632
0,482278777843513
0,523972746371694
0,498597897004724
0,545111762831662
0,512784555214179
0,534322482017002
0,499216023033151
0,51553573814798
0,522808640361465
0,549794846848153
0,531610436664264
0,530328626150883
0,547155769518602
0,557684292618418
0,515315314693812
0,571532752147168
0,567120493448485
0,611883263957019
0,536162913346826
0,602079536301111
0,562692526954805
0,598371366216059
0,550889976192966
0,601748693925236
0,570315610279356
0,609977609861608
0,596063394540991
0,619585008752168
0,593570542669128
0,601530174602437
0,579286347593081
0,657890191426378
0,596822699324734
0,676312736444943
0,621487965378342
0,669665333553317
0,608612904203766
0,647684363544137
0,670047696661601
0,692537785235237
0,655810631675946
0,647043454581302
0,638832057936847
0,663515589694737
0,66462694279686
0,74283128338073
0,657293733172345
0,712949856001376
0,692006492641853
0,722493625635647
0,688290976626295
0,694967756876171
0,664139729297283
0,729382206420975
0,68882001282039
0,74256749418525
0,697553718875028
0,728797643568328
0,718522748986528
0,771621908914277
0,707237650744849
0,760220416752864
0,716955867838599
0,749032858220775
0,726128102947321
0,793950927895695
0,748311868264337
0,750153803701168
0,755085299002582
0,75950557657357
0,778391750749527
0,808978261729263
0,777290071562482
0,793093965007591
0,752818480831564
0,877604494156202
0,805894301010579
0,844483415205124
0,799963977848069
0,81287175925365
0,815170219505202
0,926839827369067
0,776088685128804
0,843974917249403
0,811464422770923
0,882051785935478
0,811733680414258
0,935787553426336
0,796918354363178
0,935055296030625
0,809784843857943
0,904309328160379
0,798138778432269
0,930222056237936
0,877523386586438
0,932419253553157
0,836652410888261
0,995131381225642
0,893471085174527
1,0142224023939
0,86128223285815
0,94271314130791
0,902105129443578
0,93175914829943
0,944819675668244
1,03058316665263
0,896656852888292
1,05476298983228
0,88572759695636
0,944188831994368
0,886965299496329
0,979798606993557
0,899352360979816
1,10229724529086
0,93613650973419
1,01461070753547
0,913882841348493
1,00840852934406
0,990901798128153
1,06365025398991
0,959079564591935
1,08127284732963
0,929517477399466
0,979847362680636
1,00133598927372
1,06336828120788
0,990875456398341
1,14296518599257
1,0290568922005
1,10609228988142
1,00440931949709
1,06889514695078
0,964103882527673
1,10967926594209
1,01753769251916
1,11415709943098
1,0296983145445
1,14584843721415
1,01585852433755
1,21825515519885
1,06836646743036
1,05211674766781
1,02163898515538
1,2688179993261
1,07335441081289
1,19516493084036
1,01986547712633
1,2258146834087
1,03551986835373
1,25895190881373
1,07830144366408
1,28258721342093
1,04813751304747
1,38639828672368
1,02720826896045
1,18167464048767
1,04642626224872
1,25595387553826
1,14674720982901
1,19607425632198
1,12892045291125
1,28501291618974
1,14156617997658
1,19607464228487
1,14558618401106
1,15801304335338
1,14737185092657
1,37748829621353
1,13771755194092
1,2784515323048
1,11245067577926
1,25246101977031
1,26583773147682
1,42013658899036
1,15983711676962
1,65454948077903
1,20862101191954
1,39083304817149
1,17791609870874
1,24220800356575
1,10530122981239
1,4127170526567
1,15483677325989
1,27399541208813
1,23172188644417
1,47074263893115
1,20369902781021
1,35288507594541
1,2827134602575
1,30425014503534
1,2070050435701
1,44765325668565
1,3094743721422
1,46611017251967
1,17604328849259
1,35329145796089
1,26543984900591
1,4811676583345
1,21249954539785
1,40760986293329
1,38999025823901
1,41919629260223
1,31364333929867
1,43918778591608
1,22066757169044
1,6177649624767
1,23053017645914
1,56094884522163
1,32035789946267
1,60406998101087
1,34182203133727
1,8951720696263
1,30375494631709
1,56010677836428
1,32769924927339
1,56323345173642
1,2575911788717
1,45048407654721
1,29512085147641
1,57203163577088
1,3999513054339
1,53224109422921
1,42715037854688
1,49368661112497
1,31723376366297
1,45740188992684
1,35106563323609
1,59717945027258
1,3513666691916
1,40751466411881
1,41414085450642
1,55493729428691
1,35032817429672
1,87252502136796
1,46068023805636
1,71334535983212
1,51137612863031
1,53562837126998
1,321179617253
1,5040919355485
1,40262558889874
1,51873844014874
1,35768719202546
1,51434436243095
1,31953252161116
1,4255221319989
1,34847742333728
1,60220051540262
1,29616765823846
1,47091584697679
1,36828631601657
1,47550815233443
1,54038656158175
1,7264463472265
1,42586932681824
1,64326179254653
1,4788689087352
1,7140897622758
1,34023249994711
1,88943289148629
1,50820685352813
1,55239428393186
1,43146718631131
1,47312284143983
1,30967808504585
1,45644852692016
1,37057874353513
1,47942974270182
1,38634671677038
1,4304675540508
1,49730187707512
1,53198369080799
1,38337215068172
1,51796629904808
1,42341075996417
1,46837417186446
1,39216194463792
1,45377609104601
1,4247229458244
1,63561205274226
1,49920398133479
1,61766771234206
1,40809344265164
1,65539475582975
1,36206543476299
1,50863666250245
1,31673011466142
1,64241104194836
1,3691282318558
1,50710861389169
1,52076682765696
1,57429038438074
1,37270649104606
1,65128031657352
1,28025777487794
1,48329226544156
1,33800826697633
1,57540255104399
1,36251617035724
1,35113716416731
1,43262804292212
1,4229728409242
1,45816065909412
1,51856253612907
1,44272127833391
1,51006975401061
1,32146793159375
1,46264510728304
1,30138993029725
1,39834377525895
1,28872841978169
1,52683122146213
1,37333441319364
1,60621467146995
1,389574266874
1,52760010427725
1,37387059295796
1,4540969876797
1,40901105604672
1,48303543787758
1,3781475608018
1,62147926576367
1,3178961474526
1,53191932928264
1,4199140651755
1,52989626580046
1,32473798714629
1,49320268334184
1,36570828468899
1,53145789575772
1,60681419657281
1,47918948314715
1,34149605483021
1,57994177151322
1,32644089495784
1,53500847453204
1,40517037565891
1,51141266363876
1,42678701718677
1,48365430220938
1,43102492803314
1,57517430813613
1,35424950094499
1,65577961228383
1,46796992944251
1,35754602981765
1,37691940138932
1,41167445836311
1,46038800121226
1,57188900853885
1,36938640538967
1,42371654267091
1,37599645912825
1,53213230609351
1,34274319037164
1,49597858688049
1,36336670259847
1,44346144846045
1,34072229725993
1,52247427970079
1,38861251656381
1,43156273840029
1,32010296504791
1,43265418650704
1,33972521772309
1,41517088621634
1,42246972960624
1,48143538177602
1,35862436066009
1,61409051191602
1,34588774602118
1,37386789667049
1,37483767250335
1,4751297119894
1,43619003341526
1,45774921867586
1,34016384199599
1,43208910408843
1,36025668763057
1,37488959203268
1,32392692609316
1,464049862132
1,4153677125557
1,53842471453976
1,32783652868361
1,31528982579519
1,40700647107155
1,47188312683146
1,24737257585424
1,39568296977812
1,32899119280466
1,38427327078355
1,29414493579836
1,44154873434561
1,27197260027447
1,38065185700978
1,39181744319009
1,41676247792469
1,30657037972463
1,33995478965067
1,30518541016161
1,38367577762704
1,34114938127069
1,31755775090343
1,25499004693222
1,43084001725074
1,39321450974156
1,30178733493923
1,33756852142855
1,33251897795562
1,30217404562595
1,37117602230377
1,27452219902508
1,35129027921975
1,21420920422738
1,35978479249182
1,21421982787721
1,25196826836624
1,19888264252026
1,27378798292535
1,21513012283363
1,28620080235682
1,25516605794885
1,21613622895281
1,21278030270467
1,28700471419377
1,16717042935197
1,27304812908692
1,17962164798432
1,19381299493232
1,2222153019249
1,18186721971483
1,12439132719087
1,2573629263512
1,14004146511768
1,18334322570587
1,10470903228334
1,16475070936467
1,11781423560783
1,17871482455675
1,17706913961181
1,13142814916211
1,10217447063699
1,13021987738165
1,13434089831939
1,11632867584151
1,09336222807169
1,1409380033886
1,1291626612879
1,09559363137629
1,03939859708496
1,0856970747867
1,0690474871111
1,11778892437524
1,0520330887973
1,07379159382576
1,08591173497758
1,07257654197749
0,997919182725211
1,08261306460031
1,03136015928988
1,06435979095927
1,01156424418926
1,04015397181197
1,00127579498221
0,995413311331916
0,971660215017891
0,990637580834748
0,993211997735828
1,03227384879979
0,936312095708599
0,978768716312956
0,942249908530861
0,977860164026756
0,945043649828414
0,921710973094965
0,895356828763837
0,925879659462868
0,898812636440097
0,895791021931642
0,92132410027512
0,903787764320234
0,89625248236505
0,911495412462717
0,878578489386207
0,885270658798209
0,856406759692845
0,855534209523263
0,849971604518351
0,872943114064879
0,840086808429786
0,856779646590254
0,86226439555199
0,84941949746928
0,833365300916904
0,843610270534886
0,807008862038076
0,808560258258539
0,804532221143728
0,801330892619277
0,777214046355677
0,80952327899649
0,800143744024362
0,790575983661566
0,766570991837904
0,783035269798044
0,759542351652977
0,75082756017748
0,75393835417365
0,754013640880906
0,75037035539368
0,741355649906994
0,734551373328438
0,728426073226017
0,721167178869467
0,721531992405734
0,716153155138841
0,729311715907118
0,706737876571267
0,717024793641216
0,693815819191988
0,678838180968219
0,684819601121234
0,682524446188778
0,680843502920245
0,670676637082348
0,659837745992587
0,671245833521776
0,664105968957816
0,649482512496929
0,642847503865792
0,6421697894007
0,640645594452911
0,644627794760492
0,637618589100627
0,629088183682515
0,63278873749916
0,625306501067286
0,61804689611103
0,622465054728842
0,604000617777078
0,603016213296042
0,577231532785552
0,59389030995226
0,596547925862772
0,605281301352134
0,584498608786922
0,566769854486108
0,559191783688505
0,571104887461138
0,565139504567928
0,564393446446324
0,546321492093933
0,549917443655504
0,553458141323839
0,554909109979519
0,545223882147938
0,54302007881638
0,526413227303895
0,523904978363116
0,535028948530378
0,530865035923161
0,519002595268031
0,51415057747734
0,497391226892635
0,509286293468191
0,500980766718289
0,499922380821158
0,505733864780684
0,494387358087234
0,486238140929792
0,484261229323518
0,474092079299704
0,480922299426445
0,474871092159175
0,463622041869798
0,466503290419984
0,465974467896146
0,459489587099657
0,456896450000195
0,449223884133757
0,45344761461216
0,44451466171544
0,446308511846759
0,443748960593447
0,444857091367252
0,431972977766653
0,425185409088829
0,426603106851759
0,424605559725243
0,420925102049714
0,412523144041088
0,416358792713371
0,415396848942867
0,404438646461138
0,409036816472183
0,405441864820154
0,398334991225006
0,398598299216408
0,398567816741972
0,390979255277463
0,392780396609675
0,385055631354506
0,384681641903088
0,384168454847086
0,378441557992198
0,377928659475351
0,376370008539839
0,368402988995127
0,36706374577655
0,361381693698182
0,361953699285358
0,35688229762503
0,353482690591653
0,35179613636241
0,361994975497264
0,353414477994793
0,343102849516697
0,343326370017199
0,341663145376062
0,334415772990866
0,334388917996865
0,331163090094746
0,330844654750044
0,325324633501862
0,325641216363874
0,317847911610471
0,317120352296063
0,317117425018401
0,315770886671239
0,3106495261502
0,314048208068214
0,313948173865088
0,310218221152893
0,304851656539034
0,303468030716856
0,295507945172472
0,301779099297806
0,298415052689549
0,294621250069352
0,296003236298308
0,293028687218884
0,285077301707919
0,289362995905951
0,284527095761268
0,279520960123735
0,278260827234439
0,276161808476401
0,278662867787961
0,276340882019211
0,277398884004862
0,272724936071446
0,273105476671211
0,272333907247716
0,263951641254045
0,260110200970053
0,263253601719753
0,265392618397133
0,257758590432326
0,257801686804047
0,259141176546346
0,246834730602816
0,247268502077091
0,251237293360434
0,240526214925253
0,243080043911819
0,240693752790088
0,241815497241504
0,243036995955511
0,234684599916051
0,230889137763632
0,234589292707667
0,237231391616852
0,23640846452347
0,236830668465786
0,231981247454553
0,227422461439786
0,224663752519488
0,226461564983608
0,228825374399668
0,226499925110891
0,223983410422509
0,223406614408925
0,220427388964433
0,213331542364613
0,214868765436419
0,211654893757558
0,209530124842348
0,206271188040639
0,211527234308712
0,213707033999499
0,209747192632861
0,202105738965308
0,203030487436278
0,202964307996688
0,198754553662989
0,202428955701037
0,200916710126034
0,193020838146129
0,196125458327887
0,199613458383769
0,19308057735002
0,189378509980012
0,191851518707935
0,189335671473669
0,193274448791934
0,185228556055698
0,185194894376288
0,187343078617116
0,180558388260676
0,183883851292711
0,186224778993283
0,179310834032056
0,178831795443646
0,177589364857219
0,177829145558112
0,177470288510083
0,176404904488556
0,174157424136071
0,169522573923052
0,171280179156457
0,166623944497526
0,17012881386542
0,1725546325679
0,168755883984224
0,169521600460029
0,165572011308951
0,168575785785032
0,167072942637407
0,162426008095898
0,162798494634744
0,160570507036312
0,157321779682935
0,158385167827556
0,159342783648268
0,155989565462333
0,15700030776926
0,159468708440029
0,156823114983282
0,153562047077198
0,151562239326986
0,149087963957592
0,151133499466582
0,151780937146567
0,144245300904005
0,145466591806081
0,146911099417816
0,147997486828045
0,149531201251793
0,143412081037228
0,140789463816846
0,141980499089223
0,142103163420889
0,13876542172271
0,144427532249803
0,144633479671148
0,140037860671806
0,135655149139393
0,135136486509335
0,134711404988611
0,129869550351877
0,132610129039603
0,135204559070966
0,133992622307045
0,13350125732005
0,1321473098329
0,130161608664438
0,130682545053354
0,128617472869359
0,126943387510722
0,126626895240825
0,124299866897936
0,1259506269099
0,122445345091105
0,120068331926516
0,122677736891173
0,120666848708265
0,122137812059535
0,124170976618698
0,119691243605346
0,117267893111975
0,117926677599272
0,115258428858882
0,115303217279111
0,116191149994327
0,112976707903617
0,113219522615722
0,116159137018126
0,11397697706507
0,113673692507282
0,113640425845829
0,112638172859931
0,109618319556695
0,106106805350891
0,112296028721382
0,110544089709745
0,106485866489848
0,109425031469094
0,106689780994754
0,107698868555169
0,109273274293055
0,106145058320782
0,103833843811585
0,102425200223411
0,101965376452331
0,104798683329327
0,104498380774057
0,0999897518629225
0,100494625170624
0,101474692097649
0,101481622159673
0,0986370382092212
0,0963987339256748
0,10079947832141
0,0998205278908433
0,095936711413407
0,0939848489008115
0,0962865730577856
0,10027395822453
0,100018285825265
0,0972465801594102
0,0953306689581982
0,0955259677534037
0,0902445874801832
0,0924498580536893
0,0932435535115439
0,093277119822678
0,0975653103124546
0,0964331557331549
0,0893373445115396
0,0899680229008322
0,0916597315247288
0,0907880749452511
0,0898404783481053
0,0881671920352955
0,0909373397056533
0,0897236950643098
0,0858750640861953
0,0888207294187893
0,0892154582432921
0,0864991151281573
0,0865716764581637
0,0866775407410291
0,0861388744166152
0,0866209842548567
0,0844694245317996
0,0839716577958473
0,0845070099102805
0,0817596436162454
0,0838691791798908
0,0852736460552667
0,080543340526982
0,0829783500149013
0,079346008179682
0,0804780715716676
0,0832428424013493
0,0800926112688596
0,082978655619758
0,0810595016362426
0,081762403682453
0,0829504476556935
0,0797281767641288
0,0765512871679608
0,0822421087168799
0,0791186331576482
0,0766321052143558
0,077369466428263
0,0752330335856712
0,0764254040732362
0,0730509541233068
0,0751204982574362
0,0754867749672102
0,0790588220308544
0,0802365927821277
0,0767105908828076
0,0716092806845458
0,0713277961530008
0,0751163903153779
0,0736229067869785
0,0738926101437402
0,07360133458231
0,0715549710186997
0,0716556433720708
0,0732556974004966
0,0738745407649122
0,0742385803610424
0,0780661675090519
0,0748120132845101
0,0739274604084111
0,07413655703613
0,0736897915757439
0,0702882512433615
0,0715470561966915
0,0728477503868353
0,0670894577742099
0,070172154373679
0,0697812280172097
0,0702068391811295
0,0689405161927023
0,0675462321070622
0,0697488789508889
0,0726297715879427
0,0687823282198876
0,0680340785205603
0,0677662583773538
0,0671808411819952
0,0663399349147279
0,0703757117006468
0,0703548698204113
0,0665307741246146
0,0651448497021025
0,0633668912175533
0,0668417855632759
0,0669290689949611
0,0684247096027137
0,0643806142015266
0,068866369315999
0,0692147676604712
0,06461783721404
0,0640164677797803
0,0661484641563892
0,0651722965397304
0,0658960544682641
0,0656984948447801
0,0642453772732218
0,0637777125762444
0,0648738029571714
0,0665291545129255
0,0666229831424589
0,0628578209103757
0,0623083640149704
0,0633829630830057
0,0675797022516907
0,0641293573426654
0,0618449235979476
0,0645708527756141
0,0680056603746543
0,0632430529625264
0,0630541561757106
0,0620124539146402
0,0602421663383857
0,0627111626439532
0,0570432782043327
0,0625530577420653
0,0648083975860086
0,0642114364563245
0,0623317570914628
0,064173075204677
0,0618917678588303
0,0621824664609351
0,0614737556800621
0,0568942096553753
0,0606885012510698
0,0609019568096051
0,0571306009301392
0,05822950808206
0,0584955404057466
0,0597475309540305
0,0602428608514685
0,0616573145086271
0,0607628123596269
0,0637337609310052
0,062918541405593
0,0585042098720564
0,0613411685637631
0,0596780877815686
0,0559196170460272
0,0580245016400121
0,0597398690871917
0,057892195225003
0,0596685584380308
0,0592396772714231
0,0565299585850366
0,0578385182818123
0,0589250792936674
0,0572754497962525
0,0583968926731679
0,05818953140326
0,0602126203261721
0,0560838484812218
0,057947029558217
0,0584442908272403
0,06204604372661
0,059797174045255
0,0580553878429239
0,0559510649602655
0,0576047429918578
0,0560310523945157
0,0565425742697194
0,0576088470661576
0,0565917264971747
0,0583526871567041
0,0562681005768745
0,0540950730305441
0,0571977264094913
0,0544204563628179
0,0545975895088541
0,0559808421989158
0,0602414367279138
0,0565954518085143
0,0540094761457736
0,0562471488408487
0,0583519348231278
0,0583592027034865
0,0576532737265124
0,0531252713010699
0,0538766805330775
0,0536430464603794
0,0563615376424945
0,0561435090205869
0,0555245742472673
0,0531107317109479
0,0540949398575159
0,0541381706014297
0,0561626069465008
0,0532350416720915
0,0575287763972583
0,0556408684654273
0,0540553038150322
0,0550859409421519
0,0534030929917567
0,0537535976215377
0,0529551215886351
0,0540580913003413
0,0560528435997162
0,0545379888499168
0,055937242602306
0,0514893047530943
0,0509741109795958
0,0546070449362104
0,0541554151613356
0,0563178819398287
0,054259652536881
0,0530807464022722
0,0553271237128655
0,0550878232166722
0,054688038485425
0,0541394837229953
0,0546360968994936
0,0562328719604349
0,0548450732108078
0,054048247161929
0,0567018433768031
0,0568772575919504
0,0540294576456403
0,0533508560147078
0,0550329500342012
0,0525227608320013
0,0544150188138745
0,0540726274071339
0,0570630289055783
0,0536826196946749
0,0512236837102041
0,0515448150636358
0,0541489680947879
0,0541535559267157
0,0546860259229708
0,0570671330771585
0,0561616289324885
0,0561929491181287
0,0548423469231546
0,0532878025531346
0,0560622401573887
0,0546209965758557
0,0542033158384899
0,0547367599611293
0,0567064451666145
0,0547495807486134
0,0514418477603031
0,0522817282779925
0,052776725095946
0,0547564039676779
0,055413878237832
0,0514443318510651
0,0534246856174359
0,0544183999766403
0,0548999749649542
0,0543099052223788
0,0532081289005239
0,0543280165843174
0,0552904766529457
0,0547046541199532
0,0547618997415635
0,0546349952167978
0,0524824295794521
0,0551525481861614
0,0565810916016732
0,0526490749472696
0,0552100350221322
0,0549681636720097
0,0536532498997427
0,0540391534975303
0,053048537501315
0,0565444612822808
0,0541607521616489
0,0540290124347156
0,0557418422337283
0,0559479431423076
0,0567616360119448
0,053961281482786
0,0542514415573943
0,0527034965506175
0,0562893498766376
0,0568676622128229
0,0539350741659777
0,0558616570642814
0,0570352273590864
0,0569968870722246
0,0535359569330028
0,0551145314571553
0,0572306492164201
0,0531498622555046
0,057822302368772
0,0528312563413615
0,0519855605426737
0,05635161053255
0,0553512336305495
0,0593021894578073
0,0567511694675232
0,0550465344371318
0,0575567569592439
0,054263823795251
0,0544860837922552
0,0558562927130545
0,0560696454994131
0,057724214835251
0,0586788272273813
0,0557825423021549
0,0585576999934246
0,0553681512880344
0,0575857849202132
0,0576466916001136
0,0567931550903648
0,0558001047536329
0,0572525595374337
0,0566605182267253
0,0576325130399628
0,0579400462021446
0,0568868612248975
0,0593769376569467
0,0576462808545731
0,0558357952412213
0,0557464286086927
0,0579054675077381
0,0553443256451176
0,0560705361763386
0,0593258103786518
0,0563594983980896
0,0561224984673023
0,0559718735761271
0,056166179754149
0,0568163585488667
0,0590484965567066
0,0554087746946191
0,0594607013873864
0,0595240926587722
0,0590983797276075
0,0587522360281959
0,0570492598535252
0,0556702679153084
0,0574314148910326
0,0594752851547372
0,05741147830563
0,0590196956049558
0,0585827833481984
0,059186661875816
0,0594030697774165
0,0555249290319988
0,0572957195970049
0,0603638971256513
0,0610536148855748
0,059088217606368
0,0599532876894983
0,059139760943762
0,0591796112603325
0,0581484085585415
0,0595099955280175
0,0575901728370168
0,0625360065548529
0,0570429375868931
0,0576634409074526
0,0582893736238341
0,0576903509074987
0,0604656711477437
0,0595016153104083
0,0601485037237363
0,0589758339573739
0,0613750731555282
0,0606875615818088
0,0609625405515411
0,0598066151771259
0,0600019261789947
0,0626563726815971
0,0611642195117323
0,0624496957249222
0,061916362013924
0,0586174383022534
0,0608485080753733
0,061262468029717
0,0605963326307819
0,0608162812186148
0,0588774100316654
0,0628504601363227
0,061248740217524
0,0608600320791693
0,0612989832673023
0,0605343341635094
0,0623948750353204
0,0641670230521051
0,0640801061579925
0,0619397905396455
0,0638631340767521
0,0648301679616145
0,0614141118787981
0,0606873849436717
0,0633238447151304
0,0617089591629159
0,0619624373373414
0,0649430005810814
0,0642148019441736
0,0627498332039856
0,0643095586438724
0,0619740174093982
0,0628644177788566
0,0646659471966251
0,0642350649591825
0,0655207955048836
0,0637132410154393
0,064003040500608
0,0636220699183569
0,0640392204889424
0,0627568984306981
0,0638619897269277
0,0639300373381144
0,0651186214091758
0,0628894793644411
0,0628126299151835
0,0641138484724601
0,0668264392562839
0,0660622255412475
0,0673084947453938
0,0646402200365806
0,0645099680842371
0,0632851220731556
0,0645049249881976
0,0636181055720648
0,0683826761475385
0,0655183594738394
0,0666883414533088
0,0657202399231731
0,0663068232401462
0,0648440802648994
0,0657941923314282
0,0649179555626036
0,0655021521096752
0,0658664078430329
0,0673599915136638
0,0656070953377746
0,0645815354599403
0,0674011860391042
0,0683066528831782
0,0659474116234881
0,0644516360940957
0,0674698970491235
0,0654178871016399
0,0668061450223307
0,0711562291502755
0,0671321853241165
0,0697997068296394
0,0653221779446707
0,0677592652022781
0,068546108903907
0,0707198795164429
0,0695187305258177
0,0685538197488122
0,0714297918481005
0,0689695933162767
0,0696624425648409
0,0709329937139678
0,0693888306620473
0,0696779335024715
0,0705892842851185
0,0683967136331208
0,0705318475010866
0,0695658641702403
0,0705405215614508
0,0687442489802558
0,0710032440697188
0,0686496508182217
0,0729071132793192
0,0678491497327364
0,0697510634740671
0,0699004199890298
0,072406552904912
0,0702710467608554
0,0694958764044586
0,0720966315015292
0,0704491533276919
0,0745253997353786
0,0714919342407837
0,0737667904447466
0,0754420262182315
0,0731113554898457
0,0693399182917602
0,0741740460768464
0,0730249898113554
0,0716394637762459
0,0740628432349248
0,0721840857616785
0,0742737923033322
0,0750773239959708
0,0688896047043917
0,0716925196202969
0,0721413984889465
0,0748459668881746
0,0730095413377844
0,0755249825910032
0,0702667423092246
0,0731889231156178
0,0670656291395815
0,0760778177695313
0,0723687236298246
0,0720133443802895
0,070690152849596
0,0742502220756273
0,0721327838378022
0,0772067803511122
0,073772375507777
0,0799749516884685
0,0756819513029279
0,0802044965836126
0,0763933162034444
0,0762538576907353
0,077911291372501
0,0757937897621136
0,0751301225082972
0,0798587890356262
0,0778618268678009
0,0774392996215816
0,0791732012445911
0,0739415080741194
0,074710134278249
0,0785857304600776
0,0715176707453501
0,0769700064854803
0,07737031282235
0,0789167280462143
0,0784803932522564
0,0799072485192545
0,0738410058463528
0,0785847896674347
0,0782653882554677
0,0752789105223622
0,0784195637348884
0,0780654776175044
0,0799575790206409
0,0783270004834771
0,082037215150941
0,0806312620066556
0,0852260693588795
0,0804725865083997
0,0859451208394712
0,0790065680182282
0,0839364597966658
0,0797707469909625
0,0789720499428706
0,082578683744301
0,0815149403724376
0,0835610130579289
0,0792006694306634
0,0867134914443974
0,0795924493821858
0,082706977004602
0,0808602769386529
0,0827380603593459
0,0854305394850136
0,0828302945646581
0,0840207104034496
0,0856266464471012
0,0868607365343372
0,0876098604099735
0,0840488904867108
0,0852869721463993
0,0851649506141426
0,0877790373558335
0,0869413049323431
0,0874027753705475
0,0885036886142042
0,086820468044908
0,0855960832283768
0,0887799136569869
0,0871383886206139
0,087823034527799
0,0910141690357787
0,0883621491980556
0,0883128845428956
0,0877481766244981
0,0897538795333302
0,0884544228171284
0,0865587351809417
0,0861083564611002
0,0890852523407476
0,0906697809332301
0,0928700354540023
0,0902634025991095
0,0915603060768275
0,0905506751534631
0,092543415430632
0,0900118806903698
0,0910148562023562
0,093044370816353
0,0917615688051129
0,0927288865035765
0,0927333866473313
0,091312418254802
0,094993968032563
0,0939400670441994
0,0945876754420036
0,0916311157317561
0,0946554572862623
0,0940101078282658
0,0946275686926741
0,0937806416314271
0,0942024375208261
0,0968506692954811
0,0965781884218151
0,0964533954468184
0,0946106523526114
0,0974511635418534
0,0966852489658106
0,0978895592785964
0,0966670297960788
0,0956368649004268
0,0950446878084702
0,0994426368925851
0,0980540844052235
0,102164874703916
0,10157027799137
0,0995455630398761
0,096383045982975
0,0987481291205608
0,0994959202636022
0,0993496012240459
0,10035844236569
0,0994999971188078
0,0985399924126183
0,0994911309201068
0,100953215423248
0,101345578039021
0,10207849002249
0,0995992702300686
0,0995443180786857
0,099298933334964
0,101016626683276
0,102835074557188
0,104717730603995
0,102683102585237
0,104260301662408
0,10463649737249
0,103774782552886
0,104219148975401
0,102848858812108
0,104024091322224
0,104022019730326
0,104304310902305
0,106315289263525
0,105163300161085
0,105609615714691
0,105263318565962
0,105068387880608
0,106662418280295
0,10709901459398
0,107896634538666
0,107001218584985
0,106827315932105
0,106923860904383
0,107545604426485
0,108437791056248
0,109584616849515
0,108878043797034
0,111513780099839
0,111339152673367
0,108668879925906
0,111581204709984
0,110659839360674
0,107191031957161
0,111850149303309
0,111139054759274
0,111264006574802
0,111465720747041
0,113311466930741
0,112491086652475
0,111330607239114
0,1132240133531
0,112500074621725
0,111786008764609
0,111951820437502
0,111465634260704
0,112055345630184
0,110794236563119
0,11316355319831
0,113657510299117
0,114994885657893
0,113774804971747
0,11365149148369
0,117559156081384
0,113990717127705
0,114124352102281
0,115378346486381
0,117422580151862
0,116526037436122
0,115700068912613
0,115707231642581
0,114370776172207
0,11632152009409
0,114352992991325
0,117224455711161
0,116791751635281
0,121946041582317
0,11868225305294
0,117183263956281
0,115905356068083
0,120498392250461
0,118442144634647
0,117621847661568
0,11951866222016
0,120294138492512
0,119723499850065
0,11841747735628
0,118472476872185
0,121852642502412
0,11787208908493
0,118118622856334
0,121057524323348
0,120038309210564
0,119346436317296
0,121670596524112
0,122294527721175
0,121543028868925
0,119696146388165
0,122675496517974
0,119351739813961
0,123287646963101
0,122274757107298
0,121644007272037
0,121882631209725
0,122927968094617
0,12017505711058
0,122463667214167
0,123623149124441
0,123346164683802
0,123548242197867
0,121957446708914
0,123428816366748
0,125441835211106
0,122702745889249
0,124255058333424
0,123561882167703
0,123953073390446
0,121126659962559
0,119934072335801
0,123165274258443
0,124370710013882
0,124795745833447
0,125102583508377
0,121133202674118
0,124004955013965
0,123099526633084
0,124373218391953
0,124862637779801
0,125778608446034
0,12367364725145
0,124515850330176
0,127114529944991
0,122377019701192
0,124186737732267
0,125213429303984
0,12207172864
0,124540364302292
0,122407872582985
0,124168507357249
0,123540654822993
0,123737594645419
0,124334046459892
0,12256085478386
0,119670423624334
0,124631039523408
0,125235077523803
0,124660762439609
0,123014793194975
0,125027899789632
0,125434879500738
0,122463681833313
0,123745738297161
0,125306103630804
0,123978875573302
0,124284755686443
0,123781074941599
0,122601653692836
0,124100796151172
0,123617014229028
0,121610366440945
0,123049462565125
0,122702873164261
0,123500575268866
0,123685898119254
0,119902119322537
0,123412171713248
0,122601295097189
0,121917947741378
0,119993106780252
0,120998545149827
0,120272544747846
0,123343842616329
0,120928398653138
0,121186774154315
0,12352905202918
0,120724890057343
0,12458196364544
0,12147606267523
0,122175827838848
0,118777787806158
0,121799553728983
0,119163997518181
0,121724674266303
0,122318832030009
0,118390650620883
0,118283888242475
0,118586246732778
0,119615767086134
0,121581607796129
0,117137647340634
0,117907657342361
0,120866128004301
0,117901156392594
0,117233383935727
0,114563797596847
0,117790664013706
0,118854429001422
0,117022089899256
0,116280723486296
0,116654277873556
0,117167354450109
0,115834720587283
0,116310273904823
0,115807678714634
0,115500108359401
0,116468556859436
0,115807550550742
0,115030063550641
0,115580726759807
0,116878087576108
0,115606376898525
0,112611579980767
0,112849844812291
0,113352086336696
0,115294726320707
0,112829628216478
0,112347539569991
0,112802732944789
0,112539598506956
0,113052205938234
0,11220493106358
0,110002972109866
0,112932573644397
0,111764237251065
0,109183979731082
0,111625670402853
0,111746176659466
0,110034523225345
0,111936594341743
0,110557824272522
0,109271419960674
0,110839826193629
0,110154509900813
0,108234162660134
0,110733184403091
0,108313026240143
0,107036975398192
0,108155940423354
0,107812653962301
0,105325938003397
0,106986097215196
0,107001102264229
0,107607484563009
0,105189874086367
0,107072249746662
0,104969050446501
0,105547572959646
0,104629389242104
0,103358339404955
0,104632334907889
0,104422105722366
0,104466346483212
0,103448994023081
0,103763214214219
0,104828551016146
0,101984149760201
0,100210795687227
0,100215150039043
0,0997938200128913
0,100623888248102
0,103799142142641
0,100404329207141
0,0995942001659587
0,10162401547608
0,101360611273878
0,0981407228521249
0,102085149909816
0,0989814803892445
0,097226511882559
0,100091542176882
0,09943781794915
0,0969781793865262
0,0960194949555467
0,0966125067431984
0,0974556149733269
0,0982217108050122
0,0965055967201502
0,096899438256634
0,0968132875739328
0,0957216076136582
0,0952949102578667
0,0951253664513323
0,0952724519072944
0,0957628847876014
0,0939642665773014
0,0938915001684004
0,0930851873106838
0,0939933565456243
0,0942754666685017
0,0930802854558953
0,0931845670063304
0,0927074849088567
0,0956183028053791
0,0930211873943972
0,0908592726450417
0,0896518839836262
0,0906667360152103
0,0891688155632739
0,0923814597325297
0,0922251681794937
0,0905668392665584
0,0911958620059753
0,0880495290578246
0,0904015635572879
0,0896974267967985
0,087986793623128
0,0894917206205919
0,088440864813337
0,0882823698292288
0,0885563557071
0,0864099269267379
0,0866137248150573
0,0889928315768482
0,0874718417353921
0,0876794289822461
0,0874016319365051
0,088031515925775
0,086947641872492
0,0849085180017025
0,0870342454334813
0,0881451585946145
0,0845875959010547
0,08419747268023
0,0873701975211788
0,0890714369526713
0,0849922811841003
0,0855951041185417
0,0855060662419271
0,0855380640563129
0,0837369545608024
0,082861654594775
0,084091375192432
0,0844529399648687
0,083140491380823
0,0823375792452798
0,085550420836019
0,0823650574514676
0,0808803638001709
0,0821090872922349
0,082219302788535
0,084853896133085
0,0846288106407338
0,0843232932160665
0,0806871480705894
0,082247088715901
0,0825370019499863
0,0815772050561792
0,0810804782412894
0,0824883822965602
0,0829788372075836
0,08143312375243
0,0835655519276066
0,0823412883409501
0,0789219766679274
0,080926296105139
0,0796091544255869
0,0808743682002198
0,0811575966688361
0,0800876301042591
0,0792310978358307
0,0823442725351967
0,0800898051069776
0,0791515808278631
0,0794818685580683
0,0789680114631295
0,0789383590930017
0,079781793892613
0,0781851530867307
0,0808550155399958
0,0801791288185759
0,077581686883644
0,0768715886136296
0,0789934178013562
0,0776045212012374
0,0788487196823149
0,0782606337459203
0,0803130512332661
0,0794875753690832
0,0771370500570049
0,0789331847961503
0,0781974072859643
0,0773256634147006
0,0793780963698783
0,0788287657860379
0,0787260278978597
0,0787423170949391
0,0791846229157647
0,0783100492981717
0,0787010904245422
0,0773697551498955
0,0776467682933736
0,0785969351055403
0,0770084247679918
0,0790727655737665
0,0775954201818379
0,0741760831323077
0,0792121570550201
0,0800265513588245
0,077284321291113
0,0800591060311347
0,0779089173966761
0,0775571602703623
0,0774223817504283
0,0783391122027177
0,0789970507393747
0,0774307252527913
0,077363261360143
0,0751066115068595
0,0775738561037031
0,0786447546805605
0,0784984253711778
0,0758868520431606
0,0773461031839563
0,0781676237168159
0,0776503512719459
0,0768582680710505
0,0764860110943685
0,0770685096394801
0,077719654811164
0,0778936102341566
0,0788745999376043
0,0801598073732614
0,0809801464987589
0,0776684393500068
0,0804699742624227
0,0863397262160591
0,0776030362970305
0,077795772105742
0,0791289342372322
0,0783000328706876
0,078347093609718
0,0797580472539137
0,0783382120798057
0,0795138558473444
0,0801951182733763
0,0778859034890908
0,0779941917108802
0,0784255685576019
0,0792676076768497
0,0798392775166848
0,081299552926499
0,0803627452804502
0,08235229833497
0,0822611431241074
0,0822365961912723
0,0840986083798068
0,0833892847839546
0,0819665501129816
0,0825235343573246
0,0816609769880093
0,0805660806914569
0,0819510039463755
0,0819400976380156
0,0807026234709308
0,0824824105129465
0,0838581343711943
0,0831510641293221
0,0824925063488433
0,0822605507615599
0,0832526528197029
0,0845096501158505
0,0846223040445293
0,0861806724652269
0,0848667592318416
0,0853210074299795
0,0858012520555406
0,0855406239481503
0,0872366328825058
0,0875319453449893
0,0867644810797423
0,0878243615601858
0,0878853662261176
0,0879018838904059
0,0865555704474996
0,0855079747915947
0,0863898464947133
0,0894507065003919
0,0906487654066329
0,0874936441687025
0,0900942168709276
0,0940424800644769
0,0923451884369597
0,0893094043282312
0,0916758266287351
0,094594345648506
0,0939333919121217
0,0938024111600111
0,0934596088809065
0,095072547467815
0,0939228465713227
0,0932927388704809
0,0948878906697504
0,0946276241957573
0,0963291830813164
0,094111089040595
0,0944182430825903
0,0986475707590485
0,0986726809037492
0,101359037853149
0,099371988697878
0,0975339210301018
0,102655015503578
0,102525095336054
0,103227389185811
0,104212453417895
0,10325327787211
0,106536752206079
0,105552567034627
0,104959776008663
0,107347206741546
0,106649868746388
0,110360727085108
0,109785971166576
0,108885355429133
0,112006587378446
0,110046256181283
0,114228379569254
0,113565219660461
0,112795550789325
0,119060604833313
0,116351043402441
0,117245532455576
0,120904748710696
0,11943211859351
0,122388347846892
0,1243762396556
0,124062320824334
0,124839640043579
0,126400443132094
0,129416658987796
0,131227844872277
0,128737116549807
0,132728691486123
0,137245144576944
0,136923416573513
0,138039559250008
0,138177565412717
0,142251464322615
0,140146379405274
0,140879065191784
0,145164174191119
0,145733094433019
0,148906141480011
0,154941500327696
0,16130349933761
0,155682046840011
0,154522527865601
0,159864806977107
0,163135543099576
0,162039569135928
0,166326612590803
0,170003749251881
0,171379036244901
0,173740793259067
0,175644060285176
0,178815914789444
0,181047455096429
0,183112150079978
0,184399160361304
0,191003915461505
0,195515825757632
0,200737206313572
0,204893234079553
0,204692413968102
0,208280447049989
0,213825823802028
0,216712057810218
0,217165665467679
0,219904843948799
0,22797048347557
0,228493708830849
0,230429207059036
0,239160263898289
0,243675832383579
0,248118203697534
0,254522162744563
0,258757987926717
0,26034700111864
0,26445022879844
0,272403638501343
0,291897132602527
0,281355632154798
0,286625349820591
0,291571452484493
0,29827494996238
0,31578548704384
0,312986485502714
0,314434922918227
0,316647118076685
0,324737291737221
0,329172541432676
0,340233418303193
0,344099848308061
0,354288800518865
0,367547532580938
0,362545529541223
0,372658197673251
0,402085337903176
0,382280950190167
0,395854854462252
0,398051429003703
0,401121420108344
0,412699879600701
0,419501477835195
0,42340402224465
0,430753046904098
0,440388070058108
0,458096499927661
0,456674588460974
0,466920562128024
0,470856124148292
0,481558820091233
0,483879689580925
0,504001851865471
0,504756639600642
0,502203873152646
0,513171124534309
0,517410803499512
0,530484470496767
0,53351637038931
0,548843388068984
0,560913758808523
0,560776293058377
0,573060877649579
0,567554434957725
0,581455174073289
0,598109362267589
0,597903270730972
0,605908002687833
0,621536751562697
0,625746665374664
0,681501746629304
0,632934083589081
0,62910447269466
0,627919286202288
0,636363386838174
0,662436946296109
0,676343074363594
0,678011153797784
0,666512698044981
0,662963592715013
0,676463028293256
0,675855407610129
0,690352311004544
0,685242225423781
0,692302773272096
0,684970564636747
0,69899785360245
0,696886481607192
0,718751142761813
0,714070765488187
0,701057044440353
0,692075430061957
0,69705368204859
0,683788419678593
0,680985299027988
0,672377794825869
0,682137407594673
0,681190027050868
0,66933155892231
0,661079145659042
0,655803738134558
0,661239191620491
0,661262091662874
0,645327645913272
0,641419422835858
0,62587981502538
0,627140322059958
0,60241258852085
0,632143728043264
0,633348029925415
0,596853617183769
0,583514010492616
0,566345096952174
0,564674914693448
0,565977517438869
0,555909164613133
0,542409917537722
0,522315818942556
0,533563220381859
0,524108686578274
0,512197306343399
0,502791128261883
0,501773445131705
0,495019252345538
0,487036469434095
0,47506546709195
0,468644265263287
0,461041771048189
0,457011368461216
0,448113281981628
0,44264603513054
0,437942290883144
0,427788685309709
0,426285215062252
0,418688572451352
0,406334772924074
0,408396677999777
0,406535428186088
0,397705404774862
0,394882960741039
0,390988221420856
0,378925969464263
0,38047586584048
0,377355146081074
0,371495727542996
0,369842847839915
0,363722826903419
0,35862194755254
0,357835170572649
0,350290023471394
0,351531787482537
0,348064020875306
0,366227811074199
0,350203263248168
0,337278889276159
0,330916983945693
0,326995624856993
0,32552235491767
0,326584829381059
0,328830458441648
0,327988574537064
0,318101929319074
0,317255828493996
0,315775115457022
0,311230933977895
0,309203727041722
0,309838593454972
0,307016172594664
0,304325681339491
0,311706170956761
0,31413456566559
0,317199656966028
0,307757046434124
0,294679303342961
0,289551038129595
0,286843114059076
0,292187024031115
0,282099750416595
0,281568571925474
0,284595080986534
0,286248495657846
0,283300912372615
0,277679285980237
0,277093578776249
0,277556727409738
0,276582853018981
0,274862558999649
0,268152117337662
0,27081361476175
0,269911598194099
0,269185357960806
0,269486643540362
0,274953029311082
0,260485269581165
0,260444372558103
0,260026415128499
0,258897560841987
0,264225505577345
0,260441091872076
0,258819738895919
0,253498389631025
0,250428785338761
0,256463572562605
0,252847190788333
0,256928969150042
0,246756622998559
0,250557312762006
0,251072331919112
0,245485690023466
0,254040642422746
0,253629429874042
0,25037638380395
0,244503184207122
0,239462100547691
0,241196370886516
0,249561199390691
0,24324823044975
0,241554297300161
0,241424209581162
0,233283642054192
0,240223535594507
0,240725698252479
0,232137554058201
0,234352163580692
0,237536091521269
0,237249881273506
0,249683842095237
0,238558195726524
0,231439711016619
0,228058150153273
0,230099661738053
0,231540551242225
0,235424351742061
0,230062293499446
0,228756742185844
0,231389383583494
0,225644880056292
0,229000810369394
0,232165405244501
0,224899150844533
0,226446752367892
0,223075597702019
0,226699058558969
0,225303004905342
0,22860059343231
0,223625775979296
0,224971153307512
0,23000464712989
0,224870769348954
0,224511792600013
0,222942398476998
0,223338256410467
0,224343097546388
0,224117461421609
0,224890669407786
0,22184609827002
0,221278687258538
0,223321454983302
0,22025939438868
0,220358442320725
0,225529024538904
0,224359592100704
0,222412818764609
0,226539014324803
0,229970069233526
0,222372291184652
0,217710754922672
0,226324271040244
0,226287641431709
0,222194127640299
0,222338723553208
0,223466631556136
0,226025227653727
0,224147398871685
0,222380022917222
0,222060437249337
0,222894439198567
0,219094239471004
0,227008933946033
0,223183049379744
0,228448199097826
0,219803839355135
0,223097440324803
0,22584941076266
0,223920670435742
0,221611298354827
0,224467675178992
0,220527595424781
0,224209911463836
0,224575243500304
0,227013236740365
0,221712514478068
0,223317492872556
0,22050836191073
0,220745764245389
0,221356771210034
0,222727166520458
0,221635638688635
0,21995526835967
0,222299721023925
0,222807572895797
0,226740873461556
0,226901427011227
0,219331025916275
0,220839801911786
0,219878797821389
0,222496706720921
0,22087759088887
0,220181347622674
0,223417344257619
0,219553642608259
0,218725871779548
0,224845900343292
0,221534072877895
0,223181700055183
0,223889178160398
0,223466818666904
0,218046022743611
0,221578412891533
0,22164445139965
0,231241797091929
0,230098405297448
0,220687539072213
0,219110105886176
0,225176164261578
0,221382667266419
0,223421426473601
0,219448062286447
0,221379836855926
0,220726461917526
0,221768188464427
0,21808028835498
0,223860645581232
0,226083087017115
0,218223165365339
0,217967793310084
0,221971025623212
0,220125779564459
0,220070164614824
0,217408957991365
0,221519110771973
0,221132456856346
0,222162411996101
0,215899418765097
0,221284927446656
0,216836938538872
0,220550041646289
0,222376657664851
0,219316010472802
0,217854031702202
0,220097648459535
0,224178629116022
0,215654220591632
0,217212510143667
0,223404042747275
0,219739662614537
0,220889964435645
0,219710910255216
0,220173331291018
0,218536083818026
0,218536392297234
0,217544241227568
0,222467460279386
0,220411471236624
0,21812300925017
0,219063585859843
0,223098316911532
0,222514420187391
0,225571891686362
0,220774726982552
0,221082819672447
0,219394772642442
0,217058895969067
0,220029329389895
0,215612815086489
0,215004040122721
0,218959623526796
0,217855191133543
0,221045552897526
0,216262165925088
0,218951389376085
0,219131826123239
0,215889413233979
0,218606162759735
0,215089606183818
0,215966369463641
0,218235370804462
0,216686864732209
0,216481612263338
0,218844713499335
0,214609715564728
0,216553553265696
0,21583895379744
0,217152659753869
0,213609462700959
0,21398352824408
0,216647534323418
0,218176492401135
0,211553366638275
0,212282391729417
0,21360872793505
0,214057550361512
0,214452475242289
0,214362081526939
0,216071442171914
0,214426391938659
0,216115206571632
0,216853411318074
0,212583213417831
0,21331334564358
0,215177495857497
0,215946388756075
0,21622823767856
0,214878227174264
0,214463635674527
0,210262864322525
0,215754377974662
0,215315124269746
0,215089886743637
0,212278576732065
0,213628256485855
0,213218677781131
0,214542934927465
0,209594741317313
0,213534037733017
0,214157108573535
0,212551568805304
0,212446467813636
0,212138059014189
0,213739648149005
0,213914807082779
0,212475674176064
0,211994001544275
0,217471478290061
0,212057792529159
0,209775952020638
0,211248998402409
0,21618191021583
0,212234988367012
0,211517587581153
0,213688448970337
0,211293683301345
0,212687702962386
0,212753101654429
0,210287247644601
0,212237130495104
0,211186391042151
0,209555157364288
0,20927613973612
0,209481240622095
0,212079411268034
0,209989418029349
0,207826325217653
0,210665306692165
0,211786378557355
0,211814055189417
0,212569951128417
0,21082267640883
0,210925774780781
0,210973761245262
0,208804814788388
0,209332312813169
0,21007420910842
0,209783474076796
0,21181690161233
0,209382163560109
0,209404844477499
0,207782640001358
0,209102215574284
0,209385119197565
0,208204308921338
0,209669946550326
0,210181582018944
0,208348838077525
0,20890103866893
0,204930646825623
0,209647902584395
0,21093595764624
0,208878237459045
0,211364713921606
0,21159554128658
0,21071209042554
0,210477151077005
0,208936636279289
0,211126803409339
0,208428784953656
0,211926730774394
0,212066225110159
0,210317451198785
0,208197158804551
0,211649667656481
0,211607173497887
0,206569384640576
0,209002603733666
0,207583696944506
0,209237864423681
0,210081372860006
0,209727196760254
0,211560931217871
0,210817565638154
0,209522332648246
0,211604403327598
0,208137097107729
0,208828146616787
0,208818399221083
0,208964259488869
0,209960473945699
0,207077584153072
0,209744181853427
0,208115268495553
0,209930016105205
0,207382283993331
0,209608924757176
0,208160405506987
0,207918110239462
0,208367039001641
0,206923639323951
0,20729170749746
0,208794888028202
0,209363744964
0,206128594220576
0,206565572774888
0,211192885099307
0,208966323611885
0,205710280016423
0,207416379218826
0,205050676450618
0,207307820323903
0,20712608856456
0,206357708160379
0,20593166366627
0,207676796397752
0,20627903908134
0,205926422699109
0,206699902065123
0,205162593935861
0,207087470040983
0,204667935062929
0,204278741099892
0,20533654397291
0,203242547074416
0,203419479919955
0,205881241665839
0,205043637904284
0,203767802668035
0,203101526199494
0,205754271758317
0,20409131164335
0,202906157129451
0,204980127007565
0,204294783938809
0,205462089682515
0,204358142160261
0,203669054251812
0,202982441339035
0,202611889433706
0,205749075904763
0,204624113811235
0,20126615970413
0,19992557644891
0,203476078081386
0,201687331623331
0,200286935987996
0,202670756187635
0,200800247725592
0,203898869708838
0,202875952651221
0,202237332452133
0,201863884403197
0,203681167808633
0,202034216526764
0,202119284606915
0,20299199211477
0,19978925182125
0,20176348821795
0,202274405701902
0,202801194317654
0,202345362841561
0,20403033922682
0,201086393802999
0,20524073540403
0,20413334377669
0,205752193037068
0,206164570808422
0,205696935345939
0,205824475983012
0,208176657895602
0,209491301264117
0,210382462836707
0,2101731360687
0,213483032398705
0,212983744988697
0,214544235643724
0,21568535525437
0,218239736900799
0,218429258522047
0,217503815116233
0,220567841761609
0,22040264560094
0,223508800558155
0,221303628215349
0,221533377909936
0,222697952065586
0,223038125558133
0,222135864034181
0,220517439004203
0,223753354803149
0,223340182616922
0,223251090374301
0,22266288848376
0,219428692290953
0,221749640004895
0,221160759282498
0,220504748927879
0,222174435732889
0,220238634093412
0,222477409737176
0,219857095783438
0,219598777574039
0,220699494432142
0,21836443941055
0,220912366709777
0,220734536242979
0,221687837460564
0,219537134924892
0,221999278633779
0,220683567679228
0,220131674684521
0,224260442092476
0,222789882152206
0,22261942762023
0,225594572789508
0,226355546550887
0,225284699254979
0,227524195945976
0,229274194741298
0,22884330286292
0,230045353307726
0,231962697446412
0,232843782648379
0,234479215607736
0,234035543442159
0,235059748349532
0,236410986237556
0,23609324368339
0,23520023064394
0,235188381272875
0,235641822395027
0,23496457257506
0,235424712167472
0,233767853227715
0,232913888233128
0,231193560607559
0,230525868196929
0,230582149478119
0,232537864545001
0,23430141667882
0,232175950525907
0,233816195718497
0,233995528056336
0,233811390003076
0,235092675459948
0,238240521598441
0,239678217697984
0,239815717001551
0,242468918391833
0,242720329013396
0,245865664344965
0,247956612228399
0,247353463714354
0,248906946915609
0,248561366808441
0,250848693839187
0,250856141783945
0,250766210964713
0,254085608169155
0,256245425140609
0,25498093623105
0,257592651096766
0,260260860667963
0,26022883807543
0,260810954551913
0,265671289248698
0,266968715447416
0,268476346466857
0,271653436598165
0,271193414198104
0,271964856533113
0,270621509281317
0,274505260170879
0,274464227466206
0,274317485438312
0,275857075486704
0,274598935417819
0,273767218764882
0,270536330429246
0,272453756174203
0,269210319950204
0,265583537868927
0,264529162189217
0,263468822378863
0,264474658012316
0,264073470738483
0,263616555187302
0,262941335132321
0,260556427528764
0,259339661528826
0,261881797406739
0,261254296656633
0,26336848447728
0,260402821875671
0,26247816790727
0,263857635218817
0,265580495095977
0,265734117097669
0,26630457839954
0,268523189089421
0,267680372018424
0,26783145903702
0,270405139421413
0,269042664022288
0,271460582601838
0,27355075488914
0,271796026235967
0,272500027109579
0,271830941167358
0,272728389237742
0,275217146698641
0,275494506955476
0,274174766430791
0,271919777651671
0,273151068425968
0,272854262194378
0,271889405206959
0,271966759078588
0,272906578971605
0,269967638430972
0,270281823528271
0,26897570507488
0,267160398719796
0,27071820524866
0,270219954418644
0,269032763532902
0,270918968014479
0,269362151750445
0,2694753940772
0,267849723388356
0,26550691273544
0,264332011620735
0,264590080586519
0,262684665375021
0,262027425443688
0,256518010164605
0,253855508048279
0,256687628117484
0,254240480547304
0,249720088463268
0,249204136967632
0,247907189830588
0,247876687063806
0,243942193020442
0,246873131022201
0,246014531889855
0,244661088023127
0,245731610034294
0,244231193645304
0,2436681506884
0,245204833006362
0,246517852205492
0,247864687570413
0,250287260650141
0,251099407276883
0,251358790801199
0,250739977576618
0,250277818030347
0,248974402131357
0,250991086623396
0,250289886375772
0,252156224911615
0,249471149555532
0,251656983471447
0,253499112783616
0,24960273227087
0,254483457553908
0,251272883396968
0,249415202257764
0,253715045813551
0,250866397348482
0,250772399389307
0,250194882674452
0,253889164391476
0,250287255547391
0,252050427846183
0,251616864168671
0,251362138826205
0,252529148918778
0,252713679619915
0,253265988107407
0,254854158853469
0,253358778823402
0,252336056651018
0,254689058987505
0,253708589437078
0,25953026350549
0,259075987255085
0,256139017756666
0,253687120594871
0,259691585000147
0,258993602712486
0,259431886433826
0,259575152176829
0,258059051111264
0,260416330801607
0,258806034840721
0,263042857862824
0,26543542246215
0,269247091410626
0,268358126840934
0,267342035606986
0,267930578877471
0,270308124076074
0,269693142458473
0,27245760390016
0,27562357140604
0,275970467877955
0,275650310533804
0,279905425085468
0,285731208000957
0,282009367889438
0,281954407960069
0,28346946945262
0,282427094298499
0,285423780900722
0,288764310863166
0,289470986707318
0,290963033917116
0,293805238132077
0,297491377590678
0,291819559273336
0,297570499598702
0,29362221085361
0,300977019034507
0,304255981018422
0,299708571909019
0,306692107768001
0,307648041666622
0,309146260494625
0,307631479139885
0,308961338985444
0,311185568371958
0,312157976904993
0,318956231890624
0,315437013579554
0,320225418671165
0,324588684216014
0,325215193368928
0,323336279272085
0,323870689394857
0,330418057525339
0,331132876585614
0,330380244413012
0,333540182350373
0,340274018471348
0,33615924219533
0,33951359056921
0,345327533675672
0,347844342272036
0,352285476079176
0,351052297472255
0,352050523281102
0,359610404301336
0,366184710082527
0,361129374474895
0,366047125761358
0,368204917210844
0,371817526452884
0,368174884353511
0,375052917459332
0,376055896680867
0,377100602190261
0,379536394398099
0,388462389747171
0,388554157704291
0,391058949271752
0,397997900665407
0,401727987004441
0,392767163599953
0,4026655989643
0,407632525250604
0,409948119625102
0,407892982281144
0,416550697774198
0,408447744969298
0,414958693229308
0,419257416285823
0,428893259489859
0,426343678531593
0,432611660383216
0,431452357580789
0,438553224010363
0,432819862893443
0,444725666900352
0,440042440956853
0,455222926504673
0,455475773380637
0,460940398165468
0,451076531839257
0,459709052038135
0,457950996055125
0,464029937354592
0,469473546581914
0,477324322665612
0,47349889513922
0,473963405605413
0,492500165979209
0,482237926693492
0,477775220771825
0,48451222168089
0,496854415402653
0,506556813871747
0,509127745596611
0,508671248646997
0,508211629440787
0,516972606522399
0,512799688580454
0,514601506636494
0,517474363838079
0,526088362704079
0,52340553056868
0,539510052717262
0,53193584370051
0,533259955943218
0,540554112140831
0,543359068608506
0,542539623887149
0,555146238053856
0,559468652225807
0,569077803853302
0,550957299574223
0,566115843432014
0,574296505699225
0,5962305598837
0,576363045697505
0,579957986405405
0,575596130678514
0,590450960300905
0,594871764588681
0,600264130101294
0,597214226616697
0,600804508720436
0,601922346506139
0,605643652340088
0,608702895645736
0,639225259999107
0,647778322084793
0,640167124988405
0,617396526766021
0,637332582156585
0,645775666986592
0,656399550192435
0,635986690095725
0,653167792228865
0,657282180583063
0,658362152455679
0,68653771327376
0,657445407223058
0,658341919477395
0,690013425421275
0,676859913760715
0,666260167068194
0,659671377132908
0,709532217928888
0,714981678454034
0,691651969422002
0,681038468073559
0,709616913992844
0,694611271413137
0,69790735467246
0,699569729914909
0,735580942999218
0,706010001246039
0,757433550291037
0,755719679651178
0,733166862567049
0,716407980732163
0,737380121667124
0,741711603395885
0,734181469830083
0,774359090675829
0,768447714509382
0,756164762556512
0,804809126100449
0,780981883221493
0,781018735495704
0,772553035236161
0,819133734843279
0,757540896084943
0,810580725671347
0,805271824460846
0,817630582471827
0,813364397854884
0,855049720509737
0,832987391768183
0,827519953010565
0,805617731115359
0,873482382242817
0,83199857185651
0,80957357416638
0,818156274547409
0,846544696541899
0,884843928106157
0,857927862421066
0,848932658442658
0,903880346559108
0,870635450998187
0,845642404167904
0,843867264458514
0,829564182480047
0,852933287584029
0,869477407857304
0,835379940621529
0,914095439064162
0,90928142745133
0,974368607773138
0,861279302478715
0,955434432488071
0,895840665271338
0,920073443471837
0,902997183632931
0,898993243746243
0,975849781145748
0,898320229328185
0,899559740724934
0,93823255334339
0,958277150783083
0,996609760342542
0,97260608569951
1,0211486959932
0,985042146617483
0,967826169250797
1,00360154986965
0,991674866447844
0,952745438114817
1,00367511643874
1,00520890495664
0,971711681185251
0,99639423184569
1,10974873768638
0,949088994271966
1,02130990680102
0,980470310119077
1,08527273528311
1,07515843544447
1,12531238225428
1,10185461326696
1,13898015300592
1,11486640641772
1,16559819672698
1,03469215138728
1,05112871544189
0,971930777917818
1,08819401232299
1,22040028276189
0,973264784847101
1,0091427356683
1,19996412541972
1,06166280200931
1,16928857193868
0,983099765760735
1,05032012217374
1,16721549664046
1,37997178114143
1,11975783974212
1,20412420488052
1,08883223382434
1,05051865937014
1,14490047598245
1,24571054631324
1,15068228875739
1,22593022519896
1,32628327569788
1,28955348756181
1,33933784156651
1,16044832158741
1,21876929776054
1,15663401398272
1,24754402895289
1,58767054632924
1,06185040795345
1,21240269336566
1,19966928094769
1,17712642632014
1,03238523153503
1,22215628544269
1,2710347765127
1,37612577646509
1,07579179963843
1,01225059992493
1,0278431861662
1,34208593446117
1,47232310241819
1,49144436533905
1,34934183353122
2,04954885899463
1,20644080586973
1,15118674290393
1,14151045656173
1,26673978377401
1,17180154510151
1,23500950779371
1,70486343795495
5
1,1324653834112
1,28747593123426
1,57687006360732
1,62503885474276
1,42790478125995
5
1,87062579118346
1,06982797804229
1,12199748947366
1,37957572083475
1,5444877440009
2,05567043925263
1,28659774697771
5
2,04000302186326
5
1,71109166170909
1,17558130772204
5
1,65906331431998
1,30456891049548
2,5794628964229
5
1,90393643861677
1,28977955994972
5
5
1,37942041660813
1,05658291305277
1,35705003810702
5
5
5
5
1,18791349326194
