3596
4000,36533379555
650,420452594757
1
2
2
0,0174305504453698
0,00980070126530611
0,00608265812796017
0,0107094942071196
0,0138619059664708
0,00677854097391496
5,71297471299908E-05
0,00845942251125021
0,00951809150148242
0,00554813543507575
0,0136329088671176
0,0109013892828829
0,01164800154844
0,00697888053335249
0,00629237206192982
0,00953462389224916
0,0109996885723085
0,00615216323656387
0,00964931102155773
0,0127457886101335
0,00548772036251531
0,00459586167731184
0,0176654862727583
0,017148103283491
0,00574625709899319
0,00680056541403127
0,00965901984591207
0,0100575538218495
0,00715702736812964
0,00430408925086507
0,0178611900031576
0,0164581958928453
0,0055788097615288
0,0147400943942616
0,0169660962324948
0,0101691074698255
0,00967678039427513
0,00298564794664258
0,0133556152730474
0,0121078497218905
0,0114602132331384
0,0126354889125366
0,0101821114134598
0,00969891349341309
0,0124238201922854
0,00769137733048125
0,0097278160143991
0,0149133248228939
0,0176958314081584
0,0130967497034313
0,00747683624632761
0,0134207416947792
0,0191688202931952
0,00927085196351449
0,0127352914448111
0,0115761245157816
0,00612026980409152
0,00660662965354259
0,00952247965376568
0,022187786276975
0,00894510423737892
0,00426649407552156
0,0146724267762607
0,0089289185882285
0,00783062704835222
0,0124231979436001
0,0131554020809212
0,0120398085980608
0,0137919038099639
0,0144668892850978
0,0163106315336715
0,00734939008362892
0,00992999313065661
0,00919918661346354
0,0139396165361284
0,00848952091575269
0,0128651506225431
0,0179686543250762
0,0112396109337429
0,0111061996616924
0,0173754036339479
0,0172686058667868
0,0103353823875455
0,0136945889094177
0,0141413413289291
0,0119163550272321
0,0215509064082456
0,0188811596283602
0,00512384184957796
0,0025479039700724
0,011820089473535
0,0100190087385185
0,0155094755297749
0,0142158418375893
0,0171744144743577
0,0103408043765762
0,0133127597749264
0,00864369214572848
0,012335171739785
0,0103591997406688
0,00630983136900849
0,0127324449996001
0,011000346430848
0,0118544493848408
0,00580106325215487
0,0184291871613226
0,0158342756325923
0,00672007695186533
0,0125875388385194
0,0132592555229019
0,00647243864112254
0,00833306210426593
0,0152936930939086
0,00960944480419264
0,0222306837924032
0,0132887472238387
0,0145805561174479
0,0130916952734146
0,0072623442773921
0,00944236080541869
0,0176203948023715
0,00585216173829981
0,0147247463041297
0,0114666515355966
0,00439290755069841
0,00447940401409283
0,0108317037414401
0,00614425383416155
0,0125526122521574
0,00353280015534572
0,0141187391980542
0,00541319560722952
0,0111282366776708
0,0141452850022013
0,0117698866232683
0,0125240571618787
0,0107535443220879
0,0135719952697363
0,0118797190523378
0,0168205640406789
0,0161506010032991
0,0117429035043573
0,0162489981285154
0,0162889721237943
0,0169284535005842
0,0155312731669474
0,0151089238378119
0,00479841231384308
0,00653218925245273
0,0155253304442377
0,0120500269931044
0,0115328398220289
0,0102555604559829
0,00755808527828706
0,0151247486657143
-0,0161043865351746
0,00118028874559278
0,00823975083792617
0,0167500397283132
0,0128986536904319
0,0095893751561172
0,012907601408581
0,0159223587235393
0,0152957454919001
0,00787109597360029
0,0151737259736454
0,0116017056194467
0,0138964039351585
0,0170713705553708
0,0133007545391463
0,0109269055071403
0,0202563938203807
0,0130500256451316
0,0123101553110109
0,010825840825029
0,00376351759045359
0,0164641390267546
0,0200028879607294
0,00939029987108773
0,00940143665507536
0,00928261365603175
0,00858648220524313
0,0138052281962039
0,0137523883122689
0,0164370640822824
0,0114309030396026
0,0131360759719829
0,0150349490409009
0,020881968438688
0,0207192783381748
0,0194182842594842
0,00502045502552301
0,0140809153087357
0,0170495140748621
0,0175225348934731
0,0130294084836532
0,0155242046247052
0,0164201472186803
0,00944896981253482
0,0175372971479195
0,0101982110198722
0,0111032338025828
0,0134605712571065
0,0124495570490853
0,0228050508833518
0,0260214179198421
0,00796038405835023
0,0174045032701793
0,0134311330155326
0,018117550011359
0,0213106260578955
0,0119813900437212
0,0210712536667034
0,0249063664230245
0,0118955119287703
0,014701677058364
0,0162227572745802
0,0111897432778389
0,0177853141609181
0,0155922211551053
0,0107403854627319
0,0151313581027226
0,0188626163821084
0,0152983415937867
0,0159740279134404
0,0205577722950538
0,0192359434134772
0,0183500826300041
0,0211381538902923
0,0197757094681339
0,0130439798948788
0,018890551591237
0,0218647197770077
0,0172391138481927
0,019850404261302
0,0191149828279101
0,0153632276875684
0,0230153925032771
0,0171211326420394
0,0140311562335429
0,0188600809433032
0,027062579570846
0,0230579915768943
0,0245073480640308
0,0264592554328992
0,0188492595368326
0,0152289163664604
0,0171592038298993
0,0165036494103436
0,0146866417229673
0,0183972940759768
0,0258020751050754
0,019690736004834
0,0230786279321052
0,0221671530076707
0,0193255082504711
0,0223037189427622
0,0236910561982683
0,0220183973287587
0,0238357826018826
0,0246515405804109
0,0225980241277848
0,0224891088334417
0,0266943352408183
0,0362752193071596
0,00933222347563979
0,0230694591269442
0,0330445036951318
0,0265960269776856
0,0331234038558202
0,0175164602937595
0,0256801880350819
0,0201930934100962
0,0264934247359105
0,0131015361058836
0,020270318198075
0,021182361055722
0,0254227193376133
0,0349277863656486
0,0205768609194199
0,0230077089936329
0,0193989433017257
0,0316935106643363
0,0423409205567365
0,0216010530829625
0,0292053447702705
0,0258515870242332
0,0307966247587025
0,0279478620269595
0,0316570518126222
0,0332134240880966
0,0373117744147399
0,0307033143892725
0,0364106248960377
0,0321305532303225
0,0317147624492182
0,0349280081878725
0,0368450766327708
0,0330188575344527
0,0358812805386578
0,0388283582583528
0,0390107144649152
0,0381506827615778
0,0381804687006766
0,0355816581148602
0,0396182518084027
0,0388146645636633
0,0541630693039929
0,0398472345036689
0,0398088888479968
0,050870228391496
0,0434072889627599
0,0418327388777995
0,0416293228755728
0,048017982676123
0,0514020373374815
0,046758818636662
0,052038944571501
0,0587618423832257
0,055623629892881
0,0498406102729639
0,0531281519567063
0,0543889472221876
0,0573081873033008
0,0565415608944417
0,0643573352154526
0,0685154694143758
0,0614792814269789
0,0660413903440779
0,0782997234020209
0,0703835873805643
0,0730462382162865
0,0803964697290435
0,0853711172285384
0,0693162554058723
0,0778850397186951
0,0780486094802985
0,0848913504760793
0,0868024563383862
0,0886026795746599
0,0942320023845193
0,0946704677451711
0,0982648951335856
0,10179644560008
0,0940905957360577
0,109200517243898
0,123275405771921
0,133750892655787
0,104282370776414
0,11117334941463
0,113317732128199
0,134137051851055
0,129686257508495
0,140313448265002
0,14329883529713
0,130191739650025
0,132135823614633
0,136165366850638
0,150620331637839
0,15329645388047
0,151829262566399
0,155617340268824
0,163724072573645
0,169137790167091
0,177954086105337
0,176497556715539
0,17674278156295
0,20047602666534
0,183268068687399
0,177502342540715
0,187390637358933
0,200157689488787
0,205154216279892
0,22061506574573
0,216810505319212
0,218265684281532
0,216682249217141
0,214328564777744
0,197560230845697
0,20864533108499
0,212921860469325
0,22917910939209
0,228470461507048
0,239065531334243
0,243821491310302
0,23861970293736
0,248432349341026
0,252635649843654
0,249110617013237
0,265776674903115
0,25487962401175
0,275272919991767
0,272310373697956
0,27114514425816
0,263109968086864
0,284979536736872
0,287800913355336
0,308218266717942
0,274267878085163
0,28313235140386
0,278123749171435
0,287794968064511
0,313823735028683
0,300965597505569
0,298938202464561
0,315751945274343
0,313031344950006
0,322452368920675
0,320205714434379
0,313733769175334
0,31298971991268
0,347881721588619
0,326331072198993
0,349186754316222
0,336027039273277
0,345116427909037
0,329696726735286
0,35578392682989
0,337322946283575
0,357212511125217
0,352858917262993
0,341495679259459
0,348773695183875
0,373529893137102
0,369856460961436
0,35968422072616
0,36832534236337
0,379575157751971
0,37511522784983
0,37638066035907
0,380898275158506
0,380692806202708
0,392383228861725
0,386288216509456
0,387988352277291
0,408446970191321
0,394517491006853
0,390838672004748
0,379446748482982
0,423806172414844
0,40983027409097
0,42010529011495
0,399661169028818
0,410405832318256
0,395901068192372
0,423587472502047
0,423967561601917
0,435533384349887
0,422979452420916
0,454271318042372
0,457010161724469
0,456322372781521
0,43427364797142
0,451038885984054
0,444893027068398
0,467457097714171
0,4453989280745
0,465454055182455
0,465882029396495
0,479758758755017
0,469692052101827
0,5005505248441
0,487312683216835
0,468689992193167
0,504178838391108
0,491282826190455
0,465731572657712
0,457578853528735
0,474758716101261
0,507589808789168
0,494596681499858
0,499883745063215
0,508716377540262
0,525211264543586
0,521410075504735
0,553193517089403
0,508013030666207
0,53221988392174
0,507015950347876
0,547664474767859
0,527561047845068
0,548800140388237
0,528808303677357
0,532417259892949
0,546924492956281
0,598071646542193
0,532485170535169
0,584671423433973
0,549353076994527
0,570243556940273
0,553099961669318
0,596989639625533
0,584425454380031
0,573448619331785
0,549965075323942
0,636594418045677
0,559880738332747
0,620046464923987
0,587069147284135
0,651940604983075
0,570166261623568
0,611419255405196
0,596253097278146
0,624199435940254
0,600250261030453
0,631228445867077
0,60687399220375
0,692024655891504
0,621575072971396
0,645901199126894
0,627008115222445
0,659984543253269
0,610154922331899
0,665864720474275
0,621769407135227
0,703873488294175
0,652669621424383
0,686914003676468
0,64337516195575
0,668443777055879
0,64469013685698
0,711568174138099
0,628286541772455
0,723991845361689
0,649511715783681
0,726103547202951
0,662901520646089
0,7006239430817
0,651382187840629
0,703242440712026
0,686899696911214
0,72329604183431
0,705093650835935
0,717657444748858
0,721673041176021
0,74127765064469
0,712869174057966
0,735396027405789
0,703356185411859
0,820203584740434
0,712761158685366
0,753762476270832
0,726044744662889
0,769701302945791
0,752613660154571
0,811449411561303
0,760575502662376
0,805990997280028
0,765389579316702
0,803581776660635
0,76003711517737
0,810418050742644
0,71792131548094
0,89211523672635
0,78778648254641
0,807810786423688
0,760451619927267
0,811845018217633
0,762532231932263
0,882319716241725
0,790129489677897
0,870587443634835
0,824697612669668
0,855794194171811
0,776006208295128
0,872719889106131
0,772358215720972
0,870040969785128
0,773689388039518
0,890025527629534
0,816639176223279
0,851422980987531
0,791389785339155
0,947638723376486
0,846011557428175
0,98261553330879
0,887012148453845
0,89839775392313
0,868213946262561
0,968024969270983
0,819704796729638
0,900428220194959
0,881049850454266
0,946113857969188
0,853152718356457
0,936162887841451
0,905034153796182
0,934019260864459
0,899713209089128
1,05139761135367
0,96100232220494
0,994268561861592
0,884329803215331
1,02022134789231
0,883803089889798
0,93813171640344
0,939901713754083
1,01887746996281
0,896710183545458
1,17019608803352
0,920138926266178
0,946851376640821
0,926536815431834
1,01716017390918
0,916477264727906
1,01312151181802
0,929958496032302
1,11148431818798
0,874048533512937
1,02715065874962
0,966275749082527
1,03397677447488
0,998228336147077
1,04446245022477
0,971930582850083
1,00668103001231
1,03859267398554
1,05862064374654
0,969485917385832
1,09214842728246
0,987910688466788
1,05342775628413
1,00094231376778
1,07909403858144
1,02169178737446
1,11360643380501
0,980758627107486
1,12588052908028
0,969062929499345
1,17846817345992
1,08682981838149
1,12521984824753
1,00454396674161
1,17890768107106
1,15103985425266
1,15444681549585
1,03843299573762
1,16755738307788
1,04575823949557
1,18558230225732
1,01562809178707
1,14706728350282
1,11032513159494
1,16851671977335
1,04184187922346
1,18659896927164
1,05349932396125
1,17764170453558
1,09065062962857
1,10469471387133
1,09518402337568
1,18958574011874
1,01226555820397
1,32046461034634
1,17771062511185
1,11404772716859
1,0889249614971
1,21223811627612
1,16857313829598
1,2035656580884
1,20407049458833
1,19449060192149
1,13650478319831
1,24718235347968
1,11881299997241
1,29918219581502
1,22382281644065
1,25056955484936
1,12786392800477
1,13436292947526
1,07803137235169
1,17941808135823
1,21052197344651
1,22068759034627
1,15818980257609
1,15077263550757
1,14042189607143
1,20265595523546
1,15599642424665
1,33676046448619
1,24388048098929
1,28560265014246
1,12225015962125
1,21113446361064
1,14154083494794
1,16334215682392
1,18706172750428
1,2834036833324
1,14665303324038
1,27488008259408
1,16519891356573
1,26174490144201
1,11772065559509
1,29297034315686
1,13265238624938
1,2081748754055
1,21920276804604
1,23279036854345
1,24416408526964
1,2533986857263
1,13426171140154
1,16135550430636
1,14848115275459
1,21950130909981
1,19556340558303
1,24441802191563
1,23620190981877
1,33205483260462
1,22818715924756
1,25014066485861
1,13283913285616
1,21539180613476
1,15734317732318
1,28771006251601
1,17840474666542
1,31344260477147
1,25769516472001
1,17333061480946
1,18038517682601
1,22968298931715
1,12867365971832
1,28785691434868
1,13956964320661
1,21975825240368
1,14891947957935
1,23095509477554
1,13589084164244
1,28071139318261
1,11583269920038
1,17323574021536
1,14490752982988
1,26096356726673
1,11919235641981
1,23547006133267
1,12353938482654
1,21662052837273
1,21144856658158
1,22394992628277
1,14055128528731
1,19514919097265
1,15136043163766
1,33288187801518
1,21821408183455
1,28883974971809
1,10976481737835
1,23239235839933
1,21062774840461
1,24396088777994
1,13982533209038
1,17176826369738
1,16189968360158
1,28124224933539
1,19397681626731
1,24747743726933
1,19425455973176
1,2035051454039
1,17028342734043
1,17662862235214
1,13206956644935
1,29029087974672
1,14711639747876
1,20869910940549
1,1684460519458
1,25032362218778
1,17787947763582
1,18399309790386
1,17844541623407
1,23307536816353
1,21989232474805
1,26793954392561
1,17436930148131
1,23269620327418
1,10530937016692
1,28886823892323
1,22783248945209
1,21030455259211
1,21087926979889
1,17294686445132
1,14525817728786
1,22156598490706
1,1770036130922
1,24197385749732
1,16060773902215
1,18462954883561
1,17250922114143
1,26474747557654
1,15052953570865
1,15811486147695
1,17761845520425
1,20547591354849
1,12020348399122
1,15014399650264
1,19177254394987
1,25676373862651
1,16971583934184
1,18780869283487
1,19112599667239
1,30298372349
1,13486659968974
1,23627929599953
1,11792320525093
1,22559655608388
1,17006322752023
1,18540091830616
1,11399944483886
1,26094429930426
1,16458987450873
1,17848907986753
1,18104155986715
1,20824022094508
1,15601969901593
1,26398463678963
1,18854467533575
1,27246645076093
1,12503170520327
1,16411697788622
1,10956720866647
1,22458850897979
1,13811554998084
1,17491809432742
1,18835714791787
1,21687266352951
1,16156545488518
1,24149464123455
1,10939971860619
1,14091239421815
1,12853372230031
1,17322475679784
1,11211102172555
1,13806612901534
1,1176814870046
1,20935634054077
1,15642989567385
1,26257747095667
1,07245850560489
1,12584608095783
1,0942311669537
1,17766545130658
1,11833151221038
1,15964750461134
1,08576858076582
1,09677476275831
1,09985230988119
1,11881517354915
1,09944500222783
1,15414425144787
1,13059874957514
1,16397607267248
1,11569930200294
1,14718867361058
1,07625927035073
1,09926874722032
1,13400918258625
1,09345404502721
1,02275374037272
1,1337852382203
1,04265331887095
1,08527903782809
1,06174697467353
1,06895160403109
1,03656124250406
1,10386180078896
1,03515837755485
1,07559103347402
1,03209949424377
1,05109066027907
1,00242792096641
1,07983214703659
1,03918625571112
1,06047339146399
1,02657696032597
1,03420719957941
1,02620091852373
1,07120510804418
0,970479317954274
1,01377530989076
1,01313746276921
1,01551143569664
0,980255548338176
1,01642888320275
0,939537053848896
1,00926921115663
0,956935542432197
0,987105094552657
0,974282988888595
0,990256019442526
0,948537374243965
0,957064931346493
0,963403356455252
0,958976976768735
0,921255946140138
0,941521077778314
0,947826523045389
0,937208082061368
0,901194032697387
0,953636617166376
0,893636612101517
0,918172948254416
0,877209717514313
0,886041761524765
0,904523221164751
0,894169013214012
0,877209592613788
0,923466013392982
0,882528037166061
0,878579771568016
0,832016693874697
0,872365116201644
0,839777960601039
0,876891270274685
0,834464651664134
0,865252493696058
0,83528794372895
0,836261684064312
0,819262415976162
0,841205860502606
0,809444915037894
0,836354925786383
0,803828020713275
0,822413486079892
0,792737172011831
0,800818042014592
0,787942554355004
0,793381573872536
0,762790615040617
0,761270467087147
0,765584334379206
0,78433153112344
0,765701477035069
0,752767094329718
0,739089699198017
0,762420158876008
0,731377794693836
0,760982666802448
0,728080580833404
0,733676143520404
0,72824845867311
0,729505838307237
0,716693690944269
0,725462716473507
0,688844478247426
0,702322458565976
0,690935358471281
0,674693549225033
0,693031410445484
0,686848507482285
0,666720928799438
0,66237338458716
0,671961226161893
0,683690210403491
0,651986975295097
0,652052892354828
0,645576005951196
0,653565607100298
0,644092952298739
0,638290441336563
0,628283911771082
0,64655025572914
0,628775258548026
0,620530566839295
0,628941329874156
0,623784669899565
0,613802471274997
0,625442356133978
0,606318913781965
0,603823684978228
0,592753309532844
0,588159024756832
0,586434941684643
0,588211847325014
0,575411764328219
0,588381446736418
0,561066265427358
0,561422471861286
0,561752676953388
0,574450938993741
0,555423511582565
0,555627101664964
0,544077004188355
0,555641439754712
0,544986521715996
0,543250865030261
0,538567009251529
0,53895580007723
0,529603942961342
0,530041475134883
0,508616806957965
0,522769061485298
0,504970464916121
0,507493945026325
0,512900567896022
0,508135234470679
0,497965386847925
0,495879041473205
0,487479001995475
0,494241425999771
0,484620043131691
0,482536798871105
0,482777563287365
0,478266141710774
0,472433347359326
0,474427444248323
0,45512977566253
0,461418194523312
0,466859571599755
0,465477658144786
0,4426461350239
0,452268104582459
0,444067651095963
0,445325829266537
0,435423092985553
0,434608364507642
0,440087763226151
0,436223723557822
0,427827003906933
0,431682218129291
0,415684529561331
0,416941569331261
0,412499008130626
0,414168083839042
0,404899518544736
0,403840002947579
0,403935743438189
0,393777487931639
0,394819267957357
0,398928596359949
0,38404111621452
0,39146171345906
0,389225938475723
0,382086110939213
0,372621360611642
0,383549008187997
0,378089750697399
0,37143468077146
0,368822788313739
0,372661562316598
0,362355867514813
0,363977112565722
0,362612381698429
0,35775922304806
0,358265857484312
0,35799835418112
0,348837415946433
0,349711901558538
0,345532339003863
0,348034615005121
0,338867801355274
0,335182495193867
0,337447417975547
0,334029829099854
0,331887834484572
0,327687626516482
0,324101650131734
0,327780383968741
0,32451726867971
0,321030751836915
0,315958045048799
0,309718761528602
0,304580133730374
0,312381942187735
0,311081773143668
0,309815627507137
0,306595064776141
0,301969949427554
0,295849150655664
0,297331435020259
0,292130371292006
0,291216810769544
0,289706227935874
0,293865416058771
0,293477318598325
0,290073113716015
0,280759237811726
0,28433922863968
0,277469342776701
0,274994828869093
0,275095819114679
0,271356038251148
0,265129915469565
0,269169264390636
0,263280878493237
0,267439329433323
0,262542379568141
0,264823399961453
0,265324651270294
0,256546051460364
0,255221880230479
0,257353107849252
0,2458188063154
0,251425343471474
0,250551836532784
0,250017924638124
0,246713800465524
0,243495919663609
0,245706635943934
0,24294918183027
0,238715307611454
0,238155821146151
0,243669903232279
0,236000600194948
0,229027067415605
0,233265965286451
0,225899734783189
0,229081814234204
0,233846487692371
0,226884675020327
0,225332002360909
0,223277523816159
0,213743420506031
0,218393184445149
0,213748054384916
0,21546443688968
0,211132852887152
0,210585702008362
0,20974009053609
0,208320590803618
0,20833335484164
0,209552373998158
0,205678020010056
0,203843952486989
0,203873052086267
0,199922142441718
0,202044999390255
0,200728245990254
0,196627787157772
0,203283795002282
0,199765866094026
0,189694047363236
0,193400505240114
0,197181926983498
0,190578810140609
0,194376106256517
0,188155604808112
0,186154952169195
0,181778539104537
0,18476458504421
0,18623861392096
0,184208955799002
0,179447720189448
0,184843224696031
0,181580340280596
0,173401867509594
0,180285747488497
0,172531857195248
0,171286100960997
0,178663191307968
0,169064496246056
0,167191848430248
0,171474272702914
0,171729926559437
0,169299567085748
0,171430540223613
0,164103389199144
0,164238602315559
0,163589198336487
0,160226048608334
0,162855274862797
0,162194490916129
0,160592756472388
0,159938660859598
0,154047921363978
0,152997080595245
0,157175646791516
0,155424281720771
0,153584382978804
0,152543011347354
0,149611299310461
0,148777983310621
0,152224000239092
0,152250371305908
0,145114008364257
0,14937746506413
0,147965523360723
0,144646107180502
0,144563605980485
0,145599389739088
0,14514378740421
0,141545016930897
0,137936648885019
0,137928431246105
0,140552915403444
0,140196079455887
0,138144747772668
0,139140119157661
0,140336394001578
0,139581378251743
0,13404747116793
0,134967831490103
0,13497988974511
0,134585835492721
0,131806723218354
0,129525250639336
0,127216837145456
0,127408891526122
0,130723497629294
0,127788354770624
0,125719514462458
0,126645418265614
0,125611080421709
0,12511881453607
0,128051217420814
0,125815012535794
0,122372791293273
0,120810026179344
0,119427248553794
0,119306001379004
0,116377566115311
0,120561080153334
0,120416029500963
0,118863143614502
0,122125940410585
0,118417765045793
0,114515354162298
0,114337407889364
0,112455750936379
0,11834489127324
0,115273485098296
0,114867679411171
0,115551879501688
0,109945470286753
0,109490628022795
0,106739765512732
0,106471364136473
0,10776531427449
0,107322286690937
0,108017709347654
0,105710256196851
0,106032316737585
0,106029107202636
0,104915933330055
0,10398857655598
0,100967835554502
0,102638372875054
0,107338099996212
0,10311180227706
0,0998683901926636
0,0982888278572269
0,0994218131628123
0,101532413532616
0,0987291335845565
0,0990050172680742
0,101193654600558
0,0980977154944743
0,0974427737221919
0,0959509225534795
0,0985538042727223
0,0973573483312313
0,0943513997277811
0,0968810487648863
0,0930291328824616
0,0901526070692094
0,0936234645350024
0,0930866139357974
0,0919245108567114
0,094163042303088
0,0945088214910055
0,092141381963985
0,0945942838627765
0,0912212040689123
0,0884724760542977
0,0868426448485404
0,0875188646970662
0,0873713460463362
0,088454394470832
0,0905210708394691
0,0889199509940867
0,088564112745312
0,088294850888405
0,0876387402297785
0,0843490081722009
0,0845110990746484
0,0859783581439613
0,0826851524813345
0,0849550614775436
0,0857610041581022
0,0815836411446916
0,0823767155694304
0,0808745460145176
0,0825164645126633
0,0828039539495651
0,080448833265264
0,0803909518590038
0,0816307903928824
0,0804704276293499
0,0796539626627448
0,0816714110016867
0,0791908545048266
0,0782728158069962
0,0801381807392861
0,0813623408083539
0,0781586730977798
0,0752551751147582
0,0769954083556459
0,0753423517231386
0,0737956769440543
0,0751238685492061
0,0756264503773546
0,0757442370832413
0,0729514457889496
0,0740530845668839
0,0761840436175011
0,0752410387490477
0,074253777832543
0,0768000235897965
0,0753370081010142
0,0746729873091897
0,0753033375679401
0,0736032798076456
0,0746049713054677
0,0758197368270156
0,0745896473592561
0,071594625404423
0,0689670194700359
0,0722841274690075
0,0700159163082837
0,0670105878037494
0,0688373011640588
0,0712441983931271
0,0738100576850368
0,0682755019463786
0,0675770736424472
0,0667599628126665
0,0652730341367395
0,0682200696628367
0,0681606430124148
0,0668813508324262
0,0661844824062257
0,0671449472939141
0,0678501036436042
0,0657533016684203
0,0674495683543885
0,0688959113222534
0,0687722989963609
0,0678188674519218
0,0693506859937306
0,0667464329401821
0,0639509166302242
0,0647654388504604
0,0649638501176381
0,0644918457777471
0,0649603855734773
0,0645932387652415
0,0643914870697925
0,064565971266503
0,0618131632295749
0,062601490618425
0,0640156344451994
0,0651462228163395
0,06013298850318
0,0604960866267011
0,0631147089080032
0,0625372952961596
0,0620670345722536
0,0628053505463155
0,0597125928029818
0,063258617294636
0,0644917287181628
0,0578799209658628
0,0596305193539126
0,0652473864260678
0,064405670657304
0,0600206148605502
0,0627413888366676
0,0646993042521363
0,0592177526722062
0,0603984642418166
0,0619830139721131
0,0619267206391711
0,0622142442744367
0,0593739505638376
0,056235932222961
0,0584363346335152
0,058074616030064
0,0586904845102239
0,0595250908057094
0,0582071770917245
0,0582113701257098
0,0587095072623719
0,0620304917165661
0,0592102438147287
0,0547631163353948
0,059939998884329
0,0607391864639614
0,0546545201912706
0,0585535875871758
0,059872312500985
0,0548725499254378
0,0576570322441431
0,0571941005350973
0,0554335259845399
0,0605131309886449
0,0590687541187071
0,0577582058836286
0,0574370836694456
0,0578896919217114
0,0562727077252171
0,0566872104476086
0,0535215211648972
0,0565067920579025
0,0564550055755766
0,0557231541700543
0,0550776789757687
0,0541763104670106
0,0547687224589611
0,0552844327978484
0,0551662743975327
0,0567702796166406
0,0585638933140889
0,0568028798065491
0,05393209602605
0,0562032130423095
0,0550800975754769
0,0517071898383667
0,0543702138583637
0,0547607950792381
0,0549939911967683
0,0552283956379747
0,0515933902173617
0,0519011477794763
0,0537471505591889
0,054688185517301
0,0581978744046148
0,0544554271888182
0,0553499290884601
0,0550347965435542
0,0522864956311972
0,051539583200269
0,0541096028137957
0,0559059038687894
0,0547805342486444
0,053647652427252
0,0544014657918397
0,053496189176889
0,0515613367573705
0,0515949150544055
0,0527361390768948
0,0550623716566257
0,0537821355464223
0,0520085725014124
0,0521522398707544
0,0507427409048132
0,0503199501652597
0,0518236913244388
0,0524793842064805
0,0536883863567113
0,0510423406598955
0,0511151391526836
0,0524594530282354
0,0528051887582827
0,0540906008079961
0,0528331694075519
0,0515163354359745
0,0503098137008762
0,0507942334291542
0,0522715741997722
0,0490567294061948
0,0533054278288415
0,0493397610171831
0,0508361522466636
0,0519756138203344
0,0517885712418224
0,0501201801872273
0,0517880583285145
0,0479494072026963
0,0502583973754312
0,0532077093885961
0,0511684401260994
0,0501983240230586
0,0518191288587744
0,0497103748844925
0,050423102361271
0,0507845569271789
0,052177186232729
0,0512616344184823
0,0479869011221208
0,0494804853962049
0,0485344510604012
0,0514549347062932
0,0518803437067637
0,0482462929423973
0,0532596696560517
0,050730102634171
0,049609562785214
0,0507765882822846
0,0480379461808957
0,0544383697093461
0,0523486940218064
0,0505458144879107
0,0524987579549022
0,0513442396832401
0,0493087465781166
0,0516611128695109
0,0519052231637801
0,0494328041175028
0,0500269274318541
0,0459764019472159
0,0497474947734213
0,0509469715913889
0,049810732386384
0,0501338524214432
0,0518836671038654
0,0474924827292248
0,0479755979119076
0,050400631803736
0,0531143635514354
0,0517563210747805
0,0490348868450139
0,0476992694729774
0,0528643686408687
0,0516265408483128
0,0507431376475551
0,0504650175237423
0,0512698924984602
0,0514793152230426
0,0491046171199873
0,0493578463488372
0,0494188115624091
0,0508964460391619
0,0488937206377678
0,0496571904471299
0,0502016586177884
0,0503606042138677
0,0501593158630037
0,0508917710836667
0,0492780707215726
0,0503319440072769
0,0530979433097673
0,0501475938312444
0,0506239400843051
0,0512743900632203
0,0472570143118166
0,0520651263748285
0,0490444805207883
0,0520858360503473
0,0484368835877647
0,0522959773657552
0,0499829933352335
0,0520147030170905
0,0501769192411381
0,0518023343336209
0,0468389775843994
0,0501338122402043
0,0522766235710421
0,0507827946481294
0,053883429848181
0,0505874293550837
0,0518049830150617
0,047194121503223
0,0504210809088018
0,0508295637624978
0,0500886975493936
0,0514700078713997
0,0522654446340946
0,0542445691421143
0,0508896617287521
0,0495515846637008
0,0513805732512558
0,0488654867700376
0,0521038275619111
0,0514585850613264
0,0479177908503788
0,0505866497638256
0,0482245613621155
0,0511669800904015
0,0529842766960159
0,0511031657952361
0,0513281621348961
0,05046560143008
0,0526178871707481
0,0513370413163998
0,0522131909285106
0,0542354042552632
0,0527928209931824
0,0499194149812356
0,0525267807966313
0,0521363995328435
0,0508108557108085
0,0527255509610431
0,0542106513498891
0,0521292359290255
0,0556063095674998
0,0528838963790808
0,0529845717693976
0,0541973133613319
0,0532990901441923
0,0546250550586461
0,0518505629484081
0,0532619894179401
0,0533293962336847
0,0531284167178926
0,0519470070846748
0,0505647488203272
0,0555774093025091
0,0523622292680289
0,05074789020897
0,0509376434195078
0,0506499367903428
0,0510033933531226
0,049749951095483
0,0522542436795094
0,0542205812860249
0,0546079072061557
0,0538474769191845
0,0556926514773027
0,0550672713393564
0,0526357434525246
0,0528468285631926
0,0521626842282513
0,0536531239106276
0,0545212560359713
0,0535571376209043
0,0530256131453067
0,052949738258794
0,0531850161560367
0,0531821141880677
0,054552426511767
0,0574499832455666
0,0578903037243362
0,0553533748492444
0,0574852609483681
0,0543233083474744
0,0555550178894811
0,0524461507573172
0,0525907881937292
0,0576990698770143
0,0534129190721886
0,0538794901031634
0,0570376757305785
0,0527090194701196
0,0547532358749235
0,0560660999328354
0,0549667422305539
0,0557351562778022
0,0556672364767192
0,0559200133123368
0,0538327265968803
0,0563114805579339
0,0567842920018613
0,0533632456461589
0,0533605519111659
0,0548406363853662
0,0575060782303842
0,0549797746368821
0,0562725627701214
0,0546424015547621
0,0545839245646871
0,0548277055832399
0,05154238088783
0,05706875687893
0,0574923134325874
0,0566331043048307
0,0550494143535231
0,0558021233206547
0,0553114344054718
0,0582359908789229
0,0579615404202603
0,0609947598667399
0,0588769227382772
0,0600357657596523
0,0581581774059401
0,0557304815482077
0,0586931451271915
0,0571936422012644
0,0564985596306174
0,0591520583454399
0,0576169403418312
0,0577769389166219
0,0586491173377604
0,0587945119205635
0,0566482311651742
0,058858012248669
0,058939134633543
0,0599439588048813
0,0596279609028287
0,0592605572212434
0,0572901993295506
0,059458570530883
0,0594545882357706
0,0586210558232862
0,0578048519169947
0,0615604016396137
0,05578742086872
0,0591447181176549
0,0591648064166513
0,0605838785462981
0,0584970806289242
0,0590528802921776
0,0597247101570269
0,0618990053597088
0,059322203333802
0,0576616107791051
0,0588997320026108
0,0601320632198198
0,0587387406033673
0,0604789541907154
0,059489315471916
0,0603682993284905
0,0594749231983737
0,0606293449039295
0,0610306538095839
0,0635987362526315
0,0573986034043995
0,0617947938787286
0,0622250147544345
0,057185247362039
0,0582415652425936
0,0627878682916483
0,057957351295325
0,0612216175140817
0,061242812658689
0,0622453570076486
0,0595930100549324
0,0637262324619237
0,0611544384796281
0,0635860665185546
0,0606309303645501
0,0627512702317687
0,0593283191028077
0,0649346419845697
0,0635433737208737
0,0632691419052121
0,0632780903710236
0,0613246799504296
0,0634698219289592
0,0628536479541518
0,0615331596622807
0,0634952855128917
0,061469751542071
0,0616943234444363
0,0601629491741237
0,0650624534569758
0,0640054727246994
0,0643022952984362
0,0623592717944234
0,0622326875005306
0,0660543413765933
0,0651439046861454
0,0637860627681313
0,0610910089773774
0,0667049297470053
0,0635205546831793
0,0636801886332079
0,0642100453661279
0,0626578684556214
0,0657557344856642
0,0689969583039833
0,067120900055531
0,0675541906810323
0,0655334933174836
0,0671809805340535
0,0711772859458754
0,0642112809119266
0,0623706461329402
0,0637934584383081
0,0649199266764579
0,0613751416702736
0,0706069213822254
0,0621736231994337
0,0668991863429568
0,0661233656498475
0,069976090357723
0,0623408580772039
0,0770003500565965
0,057910203890965
0,0653966210116734
0,0633041279904586
0,0689049940520954
0,0674261126752305
0,0655245279256007
0,0654256337542119
0,0678793225309264
0,0656535826142837
0,0725679425371244
0,0645501204944281
0,0736596655147908
0,0694531677630423
0,0724221627564403
0,0666455182718743
0,0669646771989947
0,0708336066984558
0,0691084942533313
0,0664412896330273
0,070536798126571
0,0675732335077427
0,0731730118653661
0,0688938868952166
0,0707716472132305
0,0709121453898666
0,0732036997359362
0,064767175066125
0,0700970230919217
0,0677978489310199
0,0720623081732114
0,0729469177705453
0,0742798019225146
0,0647088752059983
0,0714602818026593
0,0740705734063929
0,0718454714311178
0,074438066829701
0,0662490197725496
0,0719831799852974
0,0672728337105976
0,0759118730149349
0,0695345850630559
0,0771801158866842
0,0698291218650552
0,0784532624845069
0,0672719720423293
0,0764521044230626
0,073969157059588
0,0748924925092258
0,0734940430787795
0,0739957362563219
0,0740136528883804
0,0762084427221656
0,0761786344150395
0,0732948136045539
0,07704292848338
0,0754239512746849
0,0757287219107825
0,0749652301512026
0,0751992164778824
0,0744454906061483
0,0781044849889889
0,0776513108269795
0,0770769845487295
0,0753799000634412
0,0757868774102044
0,0756287021305865
0,0805301617209192
0,0750507776466183
0,0780778621633579
0,0794355151060906
0,0784125063228869
0,0762238526336158
0,0792267696962235
0,077430710630891
0,0783057598074719
0,0827048718355844
0,0794677629826293
0,0776838809630218
0,0778030306593061
0,0786888111951232
0,0798025139011699
0,0797346200578863
0,0773485530694785
0,0806307450842854
0,0814192789815116
0,0828374320199906
0,0799982001248861
0,0819101295785472
0,0809592494551199
0,0818635543230651
0,0824719293061691
0,0789371466502319
0,0828296399122086
0,0824726803887026
0,0816440374574368
0,0822243961492145
0,0819271164664104
0,0837852853220369
0,0835097015950354
0,0830360553480876
0,0838052869285075
0,0819552819898083
0,0829264353417378
0,0855899463390303
0,0838418468454142
0,0856951805994381
0,085059572243404
0,0854400317191839
0,0869281674232428
0,0862610675417991
0,0872446503543134
0,0865747892352989
0,0868851296171806
0,0851005474365432
0,084135652558279
0,0852245522731139
0,0857673045934289
0,0861394720846896
0,0883735150578098
0,087692654696847
0,0862425300829716
0,0851420532303888
0,0878862067950714
0,0883763579451781
0,0886699845262468
0,0895922230274833
0,0928578190617743
0,0861320596502575
0,0895469793432717
0,0893507085580926
0,0877979905477914
0,090414792056974
0,0907521922276206
0,0897196611538124
0,0896397050813767
0,091300864488249
0,0918440101972147
0,0895681569941449
0,090478241851812
0,0927510919086084
0,0935349329086998
0,0919864318334493
0,0935747171027694
0,0924365578243983
0,0930309779846274
0,0923057670713402
0,092551699868207
0,0926629588539671
0,0950176642777808
0,0939815853731293
0,0933067750397849
0,094830135075115
0,0967957513377323
0,0948792024641602
0,0971856553478374
0,0948446825332564
0,0941217986352392
0,094294980223895
0,0947922494006209
0,0970597535381605
0,0964995692081027
0,0976453096707674
0,0984415454929019
0,0976557873667497
0,095142636930806
0,098691895141686
0,0954100840236041
0,0963185507942808
0,099349376447169
0,0989883591294308
0,0965511338055489
0,0980628166994835
0,0992385559704042
0,100027980460161
0,0993875999360839
0,100645820708912
0,0989337449132615
0,0996752523218571
0,101142762967113
0,0983603828052311
0,0995846757127946
0,0991347852176264
0,101853074123452
0,100534317555866
0,101423094783178
0,0987675974820621
0,0993746627819086
0,102585281881851
0,099461749195159
0,105007033401889
0,102649837780456
0,10349557504422
0,0997846747968505
0,10232297923511
0,102631826877485
0,10296704289661
0,102958621507365
0,10118952814713
0,104081857707306
0,102925947868693
0,106696267495009
0,103107859883055
0,104319593681855
0,107992423234282
0,10804638980547
0,103629043620201
0,105173225471501
0,104386688501102
0,104075315725406
0,106994787177363
0,106487988881613
0,103110332400794
0,10597187073006
0,104909748755408
0,106257351080101
0,106567975504147
0,10480816108513
0,106216964439623
0,106135004760785
0,10708650571413
0,108392055973008
0,106829661817204
0,109924538392585
0,107778756160457
0,107210457284145
0,105904423759047
0,107434669262874
0,106931964696864
0,108348194718258
0,107254744950924
0,109230453423998
0,108192971544805
0,108983609644371
0,107618479116068
0,110832147436091
0,108514338372324
0,110576865867955
0,108222174266444
0,109332388752177
0,107298763696408
0,108965930248064
0,109742371334919
0,107200205775782
0,108420292962374
0,109765770542556
0,109560632025472
0,110823223652864
0,108341173451563
0,110002563254261
0,107672130327647
0,109791984784478
0,108939767573316
0,111009504206068
0,109885643202703
0,108259814321322
0,110788227438372
0,109199680297674
0,109809834131967
0,110774743789886
0,108658294022348
0,108403362173222
0,10824622291853
0,108594809626989
0,107979277327943
0,109558104899692
0,108705058502083
0,11109226111986
0,106570283524576
0,108530983264008
0,111842694194832
0,110201779395748
0,108263874342243
0,108167998112293
0,109715966791569
0,109340799306362
0,108769812486754
0,111678141772568
0,109212223218337
0,109769189524798
0,109034054281468
0,109450799063203
0,109036782219031
0,105635539915243
0,107482374069625
0,108661945892529
0,109930038105346
0,110204913618678
0,107432884366
0,10800790555807
0,110675050332242
0,105022935805034
0,107356172492442
0,104031929972615
0,10654000809063
0,106999101759408
0,108879575706174
0,106807605693703
0,107499190297031
0,106604728226688
0,105875410098254
0,10906405059312
0,107750009118291
0,108272019141897
0,105811495647417
0,106977160647184
0,105184255068819
0,10598364662935
0,106752440803674
0,104881704697199
0,105507635212694
0,103448059317407
0,105106706102045
0,106930813662193
0,101387966995811
0,104849136749021
0,105259599724541
0,104742685863872
0,103647278968356
0,104009959250221
0,101317237320764
0,105158215370912
0,104088919092969
0,100829705362781
0,102445221021142
0,1036170268549
0,10623692375524
0,10315326408672
0,102301421368812
0,101329023051081
0,100891366845629
0,103865428964462
0,104356512413875
0,102562726809634
0,100829395453277
0,102285240496367
0,100210845422644
0,102868114741831
0,10075115174293
0,101775408039772
0,100670045000696
0,0997059879577919
0,097666303754994
0,0974300042158252
0,0982354243030812
0,10046914956458
0,0986775270680058
0,0998759059539977
0,0973152176605769
0,0970568872206099
0,0973516344906559
0,0996677995168748
0,0975042993650067
0,0979516589228846
0,0979917366174241
0,0982685432455712
0,0986890362917914
0,0974379627858718
0,0944069783721312
0,0971781984119799
0,0967770247400054
0,0940080089092729
0,0940374298060809
0,0935678515204483
0,093782783416209
0,0967816078598001
0,0938668962524433
0,0944660637649483
0,0940272110931203
0,0947622336303902
0,0936415141085613
0,0908475052526385
0,0937688837513624
0,0933516769647481
0,0922617564195789
0,091790060174145
0,0908288450983325
0,0901437454540567
0,0911414321360247
0,0907974695025673
0,0908219012951488
0,0898460255700896
0,0905234012822654
0,0894265732003375
0,0898064709805959
0,0921917999272296
0,0883907515718175
0,0892284989161615
0,0893846786764188
0,0885161475182239
0,087638237581508
0,0891663829918514
0,0873812177034991
0,0862232205816538
0,0876419968699136
0,0884873251436309
0,0862982000670313
0,08646520396281
0,085505105341903
0,0853859429763134
0,0863263210695328
0,0838459437234977
0,0882914948407923
0,0873367551789799
0,0857550546692198
0,0850592385664521
0,0845537906357307
0,0837231834542835
0,0850161697630958
0,0842643546923996
0,0827058317006964
0,0837002163662427
0,0842173838109491
0,0806449166919931
0,0832129557264077
0,0833653729395732
0,0839815182328797
0,0833938443192475
0,0828351313039852
0,0821698369093454
0,0795545745961603
0,0800585337923414
0,0788617452618599
0,0822264081717866
0,0807027779877402
0,0802210345883232
0,0814366747976121
0,0809714989507167
0,0800718021286136
0,0776704753098696
0,0790791341700486
0,0791687487676891
0,0786423812337466
0,0793186574646384
0,0790303452584359
0,0793997621952282
0,0802408588102512
0,0789780451391121
0,0783687283032308
0,078783520037377
0,0770703845485432
0,0789269355345844
0,0750756658075682
0,0750893935705643
0,0763556931125362
0,0771246064078831
0,0735096985781501
0,0759871862564604
0,077581861926351
0,0799779476714264
0,074713001567152
0,0757106488578509
0,0745879303557063
0,0766603394384611
0,0754162369186474
0,0745200102904593
0,0750326997079706
0,0760608849772685
0,0734047156634616
0,0749242958890954
0,0749442779691712
0,0750092703630181
0,0731418377639285
0,0746775484923274
0,072307351276585
0,0768752576761997
0,0741508380311884
0,0746804472521017
0,0739678797434575
0,0751588821720231
0,0753216277620007
0,0742433046247337
0,0698939724655724
0,0733277114601305
0,0734269641864687
0,0730722687377017
0,0722098421696555
0,0711285518986073
0,0709035776393506
0,070047786081844
0,0711306292090972
0,0715938482882651
0,0727609560079986
0,0710171627540986
0,0703735167086425
0,0713768554546641
0,0706165430593923
0,0709463141490848
0,0712592189842023
0,0703250767045488
0,0686514006172063
0,0696686910035348
0,0699460146824001
0,0697516128563463
0,0696455328990416
0,0700266270280885
0,0683695175106168
0,0712651298004121
0,0709746892225906
0,0695604113177113
0,0689763292717978
0,0708347111227779
0,0713516853261532
0,066086671466098
0,0701574815904768
0,0697002168721765
0,0681513143156571
0,0717993718971266
0,0678360793263897
0,0698963559737704
0,0711935836379257
0,069448437004447
0,069091481651531
0,069471742463924
0,0686790412565872
0,0688187870601312
0,0684841240586527
0,0674780248904932
0,0693828583306643
0,0686188187681231
0,0668209265922441
0,0696067464045222
0,0690908481453728
0,0698892061704356
0,0709995078189909
0,0653929005261864
0,0677233121332203
0,070456316756608
0,0707415483273237
0,0693715142109496
0,0680217953986688
0,0667488962250584
0,068326046164795
0,0675747231859128
0,0682255752336435
0,0702532018165342
0,0679013135754687
0,0699543455812635
0,0676404093702816
0,0692830582168703
0,0699653342520171
0,0673340210636669
0,0680856488219207
0,0695185705492407
0,0708312658530027
0,0677807312402048
0,0695810626521861
0,0699226576186935
0,0689838147172355
0,0707614334170571
0,0746418043580277
0,0679721192794847
0,0691895484785848
0,0712091523572931
0,0684575974615887
0,0714970829219107
0,0715240685212989
0,069043888373584
0,071636426384813
0,0704750604103314
0,0683584573636538
0,0699886964828406
0,070425451975984
0,0715774574050343
0,0708905531419993
0,0724087866717133
0,0713854272312447
0,0719112793506932
0,0717958843037568
0,0706853806970226
0,0719502494257025
0,0752592232910838
0,0709946770076577
0,072124329431825
0,0728952809613717
0,0709394971542352
0,0721557926671987
0,072973475984759
0,0726873886618641
0,0729984679899219
0,0736903601165141
0,0725673619610996
0,0739318702465109
0,0750928751318005
0,0744463614897933
0,075143042668858
0,0754167506916479
0,0736434850657408
0,0743590702878584
0,076447769933097
0,0754079965054956
0,0784420598916723
0,07768714282883
0,0752916467212952
0,0757302820191238
0,075867140705371
0,0759748421715094
0,0759456556914041
0,0778364746986773
0,0751662952899581
0,0748059591754535
0,0808252102023761
0,0800451215764408
0,0774158913180988
0,0807194455816944
0,0812940277788802
0,0824154403685097
0,0783866204990743
0,0806342835584085
0,0822375598581925
0,0817481920959232
0,0807601180739154
0,0817856156459059
0,0824397957094627
0,0846539646626299
0,08265129450166
0,0840448735479829
0,0849022292477654
0,0833215879621916
0,0824345986744618
0,0828561187607205
0,0842913230291374
0,0841662787532422
0,0870012336761061
0,0866280648026399
0,0886994008684836
0,0909934050253674
0,0888439471294083
0,0890035196167817
0,0909471594220463
0,0897663876825618
0,0919850159386195
0,0919904291340833
0,0909110027279099
0,0930284063908402
0,0917854247113671
0,0955544638532466
0,0973993882152852
0,0983924898573526
0,0988487449561578
0,0971651623478724
0,0992073789895973
0,0974530219922004
0,099469279220078
0,10471594219408
0,103851839361094
0,102486270234714
0,103175702531533
0,104004552234077
0,105656824668578
0,110100438665816
0,107530176893449
0,107101448297351
0,112125551178387
0,112536267104029
0,116279808858458
0,111773110230189
0,116217794062143
0,118589069090141
0,115511275369992
0,117819169395513
0,119309530594074
0,119763576155117
0,125771528866438
0,123791357162581
0,125251630411872
0,126002246309271
0,132742744705238
0,137470739418747
0,135267176796292
0,132230661267007
0,134594293250163
0,138078026057645
0,140652014094074
0,140849351388076
0,143873810900276
0,147122037942479
0,147519039574618
0,149609883288467
0,155415361306018
0,155382705421355
0,15636809881149
0,158045956457256
0,16022952050822
0,16501149387161
0,168134773020807
0,167688398778343
0,175772135393638
0,175952079198785
0,178202169714019
0,182419409868329
0,186463087223135
0,189549208346635
0,190740903131215
0,192231951689087
0,195939589400609
0,201915519261308
0,206445429225583
0,208677859605284
0,212612416659569
0,214360749508073
0,22238513856413
0,222110476469471
0,227452249379541
0,237221535935619
0,248644574942023
0,239188531585865
0,243870054492751
0,253429499901309
0,256219591986354
0,264921031281448
0,262882540783921
0,269451679255819
0,277397058380763
0,280130389732557
0,280841783960291
0,291285568994003
0,296451593081659
0,297604652196131
0,304414639035794
0,308632883627308
0,319899168822828
0,335095168556631
0,323352361149787
0,332942734150319
0,335458489972048
0,346828978907781
0,35649887163361
0,355704964856114
0,362676017431722
0,369502396218684
0,376933517723032
0,398741486632573
0,383780671823624
0,393822558198147
0,3986590283165
0,403824495727356
0,410068223893966
0,420722321313905
0,431327441519729
0,433056060433285
0,434350608089185
0,438857167302807
0,450807164684076
0,456278869206698
0,462439713167328
0,465238090313292
0,470516455802561
0,481633368332388
0,481509812570282
0,491272147810163
0,503092056835109
0,508073920058815
0,508385238541107
0,51829949587175
0,532056487507151
0,537037730608406
0,527957429810102
0,536637114675558
0,535706862817937
0,536699123455018
0,564358515919495
0,547133421959386
0,5564921150057
0,576879484903915
0,558778764509153
0,566943861077028
0,577423046476348
0,578064241691932
0,581437673577979
0,58551502468784
0,577294711764213
0,591153580119301
0,583046634109107
0,594241303344554
0,607191589623389
0,582309020828282
0,590513864827276
0,584886744122193
0,576745600576851
0,582462842134593
0,574023689223461
0,570525422394136
0,57115855518568
0,568777152078735
0,561208263753584
0,55801236070937
0,561947334483762
0,560456027424613
0,546524130350106
0,538529768307541
0,527864217779708
0,522428241337517
0,511269822770826
0,514329153521296
0,522807953997352
0,506037337606628
0,49177658486685
0,484511305102612
0,480200669951786
0,473378021637176
0,464958076306435
0,461951392227321
0,451529198421091
0,450761696001354
0,442334703764736
0,431169990649633
0,429388355350037
0,42522318948479
0,414767833323368
0,406292735467433
0,40235059590527
0,400127333772574
0,386524293461865
0,379499346406947
0,378140819687227
0,38187218111476
0,375923111533588
0,365785601153797
0,361697092294847
0,354603599618007
0,352853692797966
0,353357970023528
0,340847305911758
0,33835339969954
0,333342051376924
0,334998848147397
0,332880018100255
0,32309029630566
0,319334556881494
0,315744196857518
0,313639306781551
0,309384390536681
0,305449338682595
0,30526007395278
0,301261103645528
0,299207768010718
0,300211393490202
0,300806998223874
0,289701730546541
0,290610612493705
0,288440277528038
0,282389649910587
0,279364258207776
0,278359829388103
0,284729404545972
0,275006894575444
0,271429024286633
0,271499545220545
0,266359287705925
0,267939782323468
0,263791603533201
0,25959479310942
0,257115277337499
0,267599702667193
0,273338756580219
0,26328161427882
0,263135613899874
0,269550658406767
0,24788817338538
0,247021354431068
0,248095121454221
0,248595429358197
0,244586164587209
0,238473369146635
0,246370127141557
0,246894641077386
0,238442607573514
0,237136656850417
0,236447177607979
0,234802171783919
0,238431202115789
0,239332153923358
0,230015805108049
0,228506910956217
0,233858292174255
0,228292131017311
0,234161615016664
0,225409540279979
0,226467718304871
0,226441531005605
0,223035649735878
0,223671047216357
0,224686713529949
0,226206293325981
0,221820503032958
0,219641318998839
0,222895998660924
0,216422098270436
0,213345377369511
0,218422267838088
0,213218751094986
0,220376450237067
0,2152532875081
0,213358308629756
0,215892378299652
0,211584798603999
0,209173316539773
0,213261369820404
0,208455793289507
0,212166633130835
0,211520701271732
0,211255191255509
0,208922131643685
0,20923192253178
0,205055242165919
0,20558705340822
0,204991246857024
0,200644891701805
0,202624254356295
0,207689344509665
0,203190367142585
0,20681795382783
0,200276415738066
0,198589524518539
0,196110556607677
0,200894437622058
0,199695425365118
0,19878930678476
0,195604307426728
0,197647103454313
0,198641842131829
0,195636226008406
0,198385169938945
0,197435609645803
0,192597968949394
0,192053736893133
0,19127228833375
0,195557356162214
0,194372828687001
0,199738212854184
0,193763195756639
0,193950500230411
0,194726083880173
0,191937327506967
0,19266046141876
0,191441505942093
0,194335105629875
0,192546164207097
0,194090332031233
0,19450796372988
0,191063962574554
0,192689130113248
0,194498941602132
0,193895764182175
0,192191579005573
0,18928408919238
0,194013269210955
0,193584646245143
0,195780374955367
0,195202193274724
0,189360319346955
0,190527675103565
0,19125962668029
0,193102280058411
0,190563229583423
0,19086829644881
0,193835661975467
0,195366891472221
0,190148647397132
0,193061382789712
0,193052697525098
0,191978094323257
0,191734835682307
0,195488339321409
0,199177907915081
0,194935559915524
0,189753836034828
0,192224439681039
0,193874602383772
0,193355149370453
0,189028712179964
0,19098067396845
0,191542386229442
0,192281165821632
0,196028948029154
0,189507108367354
0,19068072957814
0,191776072953465
0,190300414026826
0,191605568185913
0,190185262425817
0,191347686675943
0,18918355506471
0,188377553465271
0,191252549868766
0,189974706275008
0,195367349843071
0,1967325308728
0,185062630640256
0,191997253591001
0,193373845425853
0,190562824444261
0,191590630485565
0,191817206846965
0,192516573834305
0,190942429400071
0,186639440614546
0,190375978297191
0,188915811319911
0,188867779647384
0,193834521243243
0,186740104441666
0,192044745832324
0,188765015350232
0,190805168298827
0,197278374159155
0,192408192596022
0,19170591242316
0,189712842939184
0,191387695002744
0,187526956665642
0,191662270448168
0,189456451496031
0,189721897186017
0,188811049825026
0,190800736880631
0,190089237856282
0,190436400534068
0,193319921168707
0,190426876767983
0,190107087054036
0,19526762446749
0,188217996342474
0,191728698848243
0,189599059759747
0,191281701946365
0,194886430977727
0,190585209209659
0,185917762115148
0,185139418362177
0,190829795815585
0,190847395207759
0,191820167605563
0,189290344047818
0,185882341218309
0,188844383886093
0,190835320529136
0,190258367522443
0,189461080623208
0,188241595309278
0,188837269522656
0,18830029303709
0,187321603260164
0,187126832836554
0,188587008072495
0,190100947787288
0,185250325544716
0,191716827749609
0,192153850416683
0,18818392520777
0,190086368090652
0,190459847636531
0,190669987370675
0,190919918622391
0,190240234748202
0,189831570116496
0,187157168011816
0,186715844555999
0,189930332138884
0,187016148336505
0,187614764516723
0,18845794788862
0,186869135911285
0,188678684712027
0,189812675412299
0,191307670862628
0,186036339902895
0,189073833213533
0,187193728129576
0,18490831728413
0,184733665138083
0,18614344379198
0,186224112409112
0,185845608748068
0,186162660096159
0,1850450987645
0,186286828070082
0,185243633864746
0,185961069031918
0,186502408435912
0,18391941763202
0,187573154896545
0,18692820413993
0,186721771486715
0,184240410838612
0,184775655270653
0,185202171926486
0,184368074248344
0,183881649102145
0,187190057209591
0,1853434619138
0,185122875431766
0,186440231810739
0,184872029663274
0,186996344919376
0,184326841911548
0,182405968181426
0,186728753724675
0,186006910114016
0,182364534869936
0,183309752298564
0,187069899716001
0,184463301564661
0,185377007871228
0,181609872820912
0,182368127356488
0,183396320701455
0,184075972023101
0,181121671335493
0,182342501014334
0,183782161358471
0,1810376193846
0,185386536619389
0,184353911432947
0,182927609831679
0,184976516420788
0,183374925480732
0,180840217631806
0,185878192716917
0,184934516485601
0,180891470369832
0,186085619908091
0,185124604516836
0,181587607361718
0,181216830079915
0,180064305671116
0,180445692378989
0,1826025851829
0,182850992726512
0,181368868882478
0,17881950922851
0,183293963181878
0,178910879477869
0,181080274633535
0,180752985772377
0,181919005573574
0,180142825198738
0,181408154171243
0,17971628270407
0,181321756693185
0,181591638858801
0,182183990176346
0,183224528019729
0,182312041358953
0,183599722808275
0,182052701285359
0,182488021246434
0,181071833753305
0,181849305514513
0,179988164455534
0,179972474334658
0,180603449462225
0,181201811752682
0,180518052003406
0,179497830465858
0,178402164218402
0,181257962824473
0,181408835470651
0,179778342466488
0,181984773435786
0,179776471183611
0,179918333385485
0,180476264482507
0,181727371055601
0,178265534663349
0,18075886313219
0,180341952856985
0,181749222121073
0,181430817041155
0,181675046624158
0,181414494545987
0,183200273282719
0,181879146220339
0,180306006404307
0,179545049727457
0,181813037678954
0,180212381792133
0,18024921932536
0,181092759916846
0,178871036770302
0,181377987841546
0,181063438307207
0,180339194657464
0,181488921357372
0,179591743563211
0,179216772252758
0,180159559877523
0,178767131100688
0,17952954578554
0,181791898482786
0,180533733104216
0,180274074365019
0,18176295288483
0,179381618483894
0,179668483506767
0,181715229928117
0,178735459297973
0,18027880154369
0,179794948062098
0,179683366492722
0,178525469781803
0,179352186212492
0,177363339999388
0,176727045107553
0,180169751502124
0,177499643343132
0,178916487211278
0,180928188742666
0,177854161517897
0,177306310114153
0,177083936644824
0,17621879696885
0,178310233554467
0,178948850957374
0,176898257285887
0,17851610545513
0,179468954432835
0,178880497152246
0,178018295852917
0,177440015768659
0,178948069409608
0,177407905655523
0,179375227418865
0,174550941626875
0,175281060278444
0,177047757557801
0,177415846311892
0,175828511524105
0,175213752605235
0,176056292232407
0,17522735733225
0,176707171318884
0,177308080243178
0,175678120264944
0,174869775768271
0,176254259505508
0,175811686103803
0,175163895195062
0,176166299275911
0,173906476703236
0,174243253205793
0,174794538487354
0,176199411483259
0,175098577401162
0,172138795478614
0,175687355402081
0,173719439765284
0,174097146569545
0,175775771551621
0,174221947452887
0,174379234909208
0,173343614834491
0,174908780118629
0,172580888194977
0,173448022040032
0,174406832691429
0,173001563969322
0,17432249731726
0,174410701503462
0,173780433628679
0,175581958946607
0,175554024915161
0,173902453070842
0,175067390373759
0,174186958665059
0,176135649593992
0,176543167101865
0,178185198849821
0,176718567290604
0,177895955764292
0,176984071162423
0,178924883859911
0,180197066294568
0,179574018587934
0,181223565418555
0,182863290693311
0,184640562223952
0,182130505267025
0,184782927888968
0,187045059002101
0,18737574048954
0,186907228172774
0,187860791156262
0,189041807588523
0,189955126218785
0,191263873237356
0,19051026517896
0,190157447644023
0,192010762245031
0,190396931821834
0,191174565134774
0,189395466123521
0,19044024429057
0,190857530042807
0,19059720148717
0,190695325777835
0,191816393028781
0,188952605326314
0,188826760637145
0,19001015887398
0,18917348065981
0,190448495650801
0,189597806252628
0,191194693173353
0,189761100745554
0,188175165238738
0,189935434746374
0,188020693737385
0,186990579599691
0,187900187697404
0,191243033216365
0,18848968917096
0,190252234367496
0,192220731848811
0,189400924497855
0,192011032533307
0,191977287944923
0,19224062655767
0,193480949253812
0,194280896583474
0,194740558598931
0,196875820724855
0,197344374221881
0,197623725629153
0,199159669291258
0,202261182327609
0,200813672677988
0,202580226817641
0,199530079301296
0,199156870246421
0,201880026625285
0,2001742631113
0,200167510413872
0,201341290437889
0,198221019854287
0,198040757100321
0,19856827850783
0,197721777247347
0,197984128790044
0,196791683245491
0,198868591328864
0,198547808102366
0,199308600311753
0,199940920763901
0,199966379477135
0,20023163206103
0,202583907174919
0,205849157353885
0,205146410983223
0,207903017795617
0,206097230381839
0,207921339256437
0,207824384612023
0,209097702848983
0,211293675356529
0,21381171481374
0,213317607496537
0,213157764624628
0,214000595044136
0,215106060175164
0,216304619231841
0,217718214263256
0,218778673554679
0,220026088038624
0,222106191518145
0,222560168222337
0,22514109656895
0,228804443005355
0,225838841204669
0,22867642243333
0,229589503177786
0,232752598767611
0,231414469081899
0,231382150941749
0,234794948121132
0,236409573177299
0,232450598264322
0,23513679836536
0,233452061570778
0,232715365632829
0,230657968177189
0,231584260540671
0,228278821926233
0,228043315573106
0,229204259814308
0,223236870438253
0,224437313505663
0,223302362596518
0,224396627649605
0,222242461108763
0,224783023969367
0,223716065832865
0,222596414058411
0,222915494869594
0,223172032431707
0,224472352449706
0,223875184434013
0,222312139796038
0,227644508059621
0,225881535542357
0,226562367836673
0,230210843500493
0,227420884525292
0,228454739564089
0,229281961940077
0,229581545297869
0,232153739218233
0,230822185605604
0,230922930821891
0,232322661972059
0,232821264719821
0,232519099196797
0,23251060747186
0,233984547449568
0,232446479662443
0,233453040168262
0,232165215407643
0,235381254670657
0,231639623400973
0,232101196498887
0,231760369618325
0,229446956043463
0,231703443223454
0,231068335783579
0,229421344762807
0,230441266763987
0,231631848442927
0,228195625764015
0,228110922106967
0,229665222545593
0,22833934153202
0,226508423565952
0,227211321590403
0,22601667660751
0,224260162667146
0,225859669556892
0,220193018258303
0,221334541518168
0,218034345659817
0,21804536708092
0,217893299152165
0,214059946254879
0,21426553220894
0,212496998551215
0,211774949035918
0,209983134663315
0,210093086450163
0,210718829441454
0,210319812743356
0,208929514226637
0,207395734153611
0,20729807515729
0,209278962228368
0,210517306219789
0,211355365904971
0,209655008377056
0,213619643688082
0,21346662497416
0,214463193512322
0,214276276209807
0,216390151139498
0,215395485675084
0,212323451539101
0,21858725443327
0,214805689411437
0,214507747410497
0,214772171975927
0,214697376289183
0,218698892159934
0,215499579611858
0,214190067120088
0,214499469397282
0,215845752171576
0,213665708945637
0,214539337285486
0,215426727565248
0,212936263171358
0,214582838962182
0,214931721984605
0,218846432752801
0,213381527285901
0,217413522905163
0,220161998925688
0,215801390053311
0,217556297218114
0,218449006687621
0,215905456022658
0,217055197223686
0,220740347177701
0,217397830106849
0,220375459670423
0,21789531663769
0,218931424539159
0,222492198313746
0,222890674898071
0,221728598458286
0,22346076308656
0,221654195381052
0,224097078366358
0,224608362326949
0,230434080319028
0,229267986761533
0,229753938802576
0,230657473973214
0,232755350519745
0,233451173951488
0,228926694976748
0,228475008068462
0,2392910234309
0,233089377494524
0,235867212466731
0,235607804651525
0,243138809494237
0,240403038592803
0,241469464407019
0,241833335062533
0,245034933466677
0,242209987932586
0,24372640555863
0,247594921366679
0,248013292078303
0,250691662532249
0,252642352609925
0,255104481530056
0,252499251519948
0,25400444600736
0,255938964159435
0,257732180171074
0,25507130950184
0,259249963926841
0,259747265165109
0,263148395595244
0,264469890109343
0,267601207248811
0,271423243965449
0,273612790597716
0,270946393569046
0,274553202973028
0,275543508838334
0,271809503806802
0,275053237896992
0,275049564944554
0,278921673212139
0,27893977469729
0,281788062236456
0,287472699355483
0,288390400600808
0,292203666915431
0,29067325326192
0,291380174500959
0,298717118196509
0,298906795782357
0,300728594507116
0,29838227119911
0,299503444730276
0,302419591570344
0,308978106060577
0,306074429737648
0,30664878917142
0,31030749155615
0,312850006762297
0,316217315903007
0,322771710791867
0,317923439780312
0,323675030321617
0,32334019386823
0,328703124051643
0,334099448804188
0,332059757958594
0,330869119799752
0,337054969186086
0,335463569822988
0,342090995226877
0,339711385773526
0,350093398424691
0,349131283336643
0,351547026289579
0,355840816779177
0,358386334060265
0,35571952634062
0,360940424428897
0,369869201458648
0,37102135864407
0,368999869183001
0,375890101321259
0,378289700085871
0,370768609896837
0,375815174290958
0,388269424095154
0,384861756176896
0,383773906454466
0,390923292301695
0,392269307711459
0,385194988027483
0,393911924103971
0,390996273187133
0,398246405820389
0,403802412808119
0,410350869603206
0,408669246893395
0,401738615632782
0,407087185371684
0,42018294235881
0,415998498166657
0,412857082330828
0,433298920799938
0,440771087857865
0,428544168598941
0,433088559938829
0,44267104793052
0,437867486134397
0,435418222813742
0,446675224344763
0,452683250313238
0,451043282970731
0,448337579809136
0,453200277306912
0,453756119244817
0,457395712784397
0,466753785833704
0,465238544335291
0,461381693830623
0,478459816691693
0,479073327044448
0,47954879250963
0,481003832260528
0,481331994943035
0,497639814816015
0,490074766590792
0,491835112628403
0,50395516226355
0,502631749780853
0,520548794423934
0,498767832270502
0,50416599068026
0,511665664638998
0,526467743578642
0,518974909683556
0,521453993119862
0,528399914516265
0,538718246103968
0,535939867486997
0,547612000277796
0,548835927795839
0,56238046298972
0,543968760019363
0,564245934361313
0,544435891001364
0,53449564054918
0,556922538398761
0,5549280468439
0,551326335207203
0,557228204768597
0,571675076556995
0,567532944563615
0,573038210947649
0,584393176587576
0,558473227098561
0,592603027913839
0,592684998543113
0,590748757889554
0,617744944419293
0,606237000366717
0,598758327430972
0,59775963197163
0,617579957903462
0,611601236297291
0,637728420502023
0,62958665183012
0,618529914875483
0,62379118435805
0,605376100470316
0,624724222834025
0,634824476145423
0,653868169944544
0,641403076066054
0,652097490076575
0,656867568329784
0,669378771215386
0,643698073438052
0,662265304887654
0,661546061747798
0,696003992872133
0,64817075715361
0,675641924154261
0,6794830697775
0,700450533364877
0,658023865672734
0,673801395392932
0,694704594476721
0,709897306091129
0,709600238333871
0,679529985208225
0,694553185939238
0,695749673653425
0,675394128005277
0,712285289383843
0,707799103807551
0,748256712807594
0,71953513987307
0,765513614737602
0,774895838907859
0,754556468595593
0,728217268777879
0,768954134587485
0,727230718140148
0,737458806393943
0,754872571967989
0,789046522679864
0,75940458506382
0,739315976193849
0,782968958562754
0,764823830598471
0,751840344016309
0,76601152126302
0,755515247473449
0,758141119621864
0,736915569150987
0,764374888673107
0,796345861650626
0,841252789597279
0,782704750486516
0,827189259336595
0,807338392269862
0,761030882566693
0,794345104986606
0,846300353688395
0,793476422244198
0,830625988358844
0,90467466669992
0,876977578026131
0,815183844842198
0,845555862716412
0,860545884111562
0,824844605771092
0,836314467262931
0,913902720618229
0,79560333727566
0,852324351127256
0,895398486092488
0,896922558766085
0,816950283939643
0,927516201382781
0,873562677871453
0,96063836762155
0,873886303185015
0,93564978833143
0,906619377899638
0,888455113937042
0,891991393757569
0,930161225918341
0,947131241365646
0,967195485883139
0,928607429784808
0,924007808674267
0,901820656488973
0,909034708977609
0,877826802160001
0,974881794146555
0,909640596157762
0,900739537505844
1,01797944072089
1,05716738500155
0,866143624174943
0,897053487781415
0,906826927992582
1,03134076407336
0,863746217949857
0,887793301185448
0,929435968700277
0,918606808359259
0,991303221844928
1,07163102769207
1,08825463076066
1,01698565169226
0,950591662971344
1,08625939928494
0,979811858376841
0,976766798116058
1,12859870279629
1,16682513142672
0,950735717241472
1,04800021563613
0,878101946903798
0,855412419886508
1,17606559354293
1,25437182782007
0,969540130451451
0,994524322501769
1,10884951841448
0,927246529101188
0,956273796773012
1,09563129250086
1,08931625816143
1,28572779996035
1,37542090767979
0,946083951883867
0,977492454733388
0,891571251356945
0,866116443496159
1,23044701680697
1,18111924086216
1,24752529467278
1,1768016409345
1,10096701351155
0,87993746477716
0,94521736932689
0,913200768978051
1,27036160242629
1,1605915756122
1,03331615511133
5
5
0,973597144897682
0,762971584299126
1,11090702145738
1,35674072878505
0,761881439490284
0,993223738411749
1,56264819683847
5
0,763932488379665
0,831895279699625
5
1,16778423772363
0,923065669834404
0,992415220806279
0,622356648944606
5
0,841271187044898
0,962428189919517
1,07149614894131
