3596
4000,36533379555
650,420452594757
1
2
2
0,0217845123803728
0,0125963281916162
0,0169804033854874
0,0118595903756964
0,0138201091585729
0,00517712617741025
0,00323442490605428
0,0134608885499401
0,0117025093697618
0,00729627158573792
0,0146854153036389
0,00251050575483917
0,00900846724537213
0,0138736005700313
0,0102913862763606
0,0123190587567818
0,015144508974996
0,0149356984056714
0,0134198167409833
0,0103813150568635
0,00768121567965666
0,011291557397108
0,0204198001761669
0,0116816648606749
0,0122152785465579
0,0144890297096724
0,0151782912690847
0,0176343631724945
0,0176558517499766
0,0137164266837866
0,018818948146962
0,0134702734413134
0,0139605722975443
0,0159304149265395
0,0169909694950207
0,0143860683255021
0,0143980535479736
0,00967361933942547
0,0121949258257183
0,00980843681214248
0,0123676370741723
0,0117982032218127
0,0140273119636682
0,0068387308828838
0,0140766359056455
0,0101105638081599
0,0135188690372449
0,014181523432322
0,0174327368189268
0,0101458538861239
0,0103509368085713
0,0108157126223708
0,0143524302649464
0,0159399082930034
0,00626405882712604
0,00932291783506456
0,0119161087141971
0,0112604932295701
0,0159497075584719
0,0117442601503916
0,00715540189372832
0,0117042140639237
0,0152091507820559
0,00839154079675917
0,012024433682534
0,0128113563790558
0,0129672930887534
0,0158087757868567
0,0135736199280893
0,0170698982591201
0,0185637096986005
0,0109992347942947
0,0197477881242921
0,017871244646474
0,0252021949359901
0,0146709652513867
0,0107103627013081
0,0129990186642483
0,0102461637783115
0,0102556943621726
0,0191133574323021
0,0146927314800638
0,00952770301986591
0,0141358621279921
0,0201006485659593
0,0137479064032541
0,017475327542525
0,0147021872476414
0,0160982558807892
0,00769478061688778
0,0153886369159622
0,0152306989286446
0,0200324485646499
0,00781057453798357
0,0136732652881892
0,0199252262999076
0,0172433962485032
0,0116652519848335
0,0169433956792947
0,00680831186619755
0,0137389488161912
0,0191407014475548
0,0113286340410367
0,00698895295881444
0,0143531737704002
0,0161867954620873
0,0141115238167795
0,0151121444357232
0,0207834148673684
0,0246214998190518
0,0133336798255715
0,0060869585025603
0,0159636306854342
0,0128999100896543
0,0265651301634051
0,0234240186158244
0,0120152367300085
0,00490264026660364
0,00796276102298139
0,0112904392924512
0,0254892914325068
0,00538095267073119
0,00823227057251599
0,00850774179968809
0,011668910897242
0,00883990387268293
0,0145693051268665
0,0118438745876636
0,0175310201079572
0,00720556039172542
0,0133627324296698
0,00554583402681549
0,0122952992040203
0,00730709249803628
0,019117461051256
0,013242232879451
0,00572772434446641
0,0112963694501352
0,0157436132760191
0,0134309020845357
0,0131285797258729
0,00981777623478088
0,0169203296642574
0,0218204563366471
0,0171908793185761
0,0176758978923527
0,0199426986600364
0,00612473524463513
0,0105027277539356
0,0141775874965874
0,0140465145689324
0,0177879469155305
0,0201220429916877
0,00471255026545608
0,0107629228900411
-0,0132679842957141
0,0234389211467094
0,0166479192738314
0,0242815159503777
0,0133669107774397
0,0178204783281322
0,0191122312144235
0,0131513732059551
0,0218070588885288
0,0144299816617557
0,0141710353661042
0,0158965502875462
0,0106803916956367
0,0209948701844885
0,0218910063757316
0,0105674464160509
0,0160114195543406
0,0223679509465717
0,0124609359504529
0,00922480311371792
0,00945281882105498
0,0286331753622773
0,0183992266226546
0,0113729493800778
0,0105686505526358
0,0219941844042363
0,0153781706177985
0,0168789260617555
0,0206948784039077
0,0152258342258254
0,0118418010967362
0,0130383196692083
0,0182146673685877
0,0241898966422502
0,0265202913914924
0,0235028975796283
0,00779020715132312
0,0145232450977537
0,0218234424189426
0,0210740365794593
0,011486600174153
0,0153337492240797
0,0167469353894618
0,0129934771331026
0,016535821562169
0,0133913430474502
0,0173124729746381
0,0175719244463958
0,00914616131204343
0,0241570620421333
0,0249010379281465
0,0166473354887525
0,0152479170234549
0,0151134536034868
0,0261398605185756
0,0279728332599337
0,0114238947895289
0,0159080964586545
0,0254398783223962
0,0156132792120137
0,0185382461155283
0,0221699772308756
0,0184546427810891
0,0206926049763562
0,0161320316505045
0,0195948952710032
0,0189833059098894
0,0181363123550814
0,0189576884164631
0,0183462533166341
0,0213168382316661
0,0215192945204653
0,0236205183908845
0,0228874685373298
0,0174347164423631
0,0168226661642764
0,0186323764477711
0,0244624260345362
0,0214097013589342
0,0262602958077162
0,0207761800312302
0,0192859408187551
0,0231008374519297
0,0203247795618832
0,0236132615635297
0,0263949476610472
0,0267178252535765
0,0237465455064459
0,0290287629694125
0,0267622302051041
0,0183168544986916
0,0236526734680557
0,0216659960972934
0,0235228821371271
0,0232472222266929
0,0207396949957018
0,0370105814542483
0,0229344191001826
0,0194096597433521
0,0268997207735916
0,0221758107656103
0,0278938008981263
0,0269651642685557
0,0232330680496967
0,0293641577060463
0,0249597803048863
0,0310312137026698
0,0294356625929091
0,0272065384089234
0,0347054883122151
0,0207729101755026
0,0260176306865163
0,0360130898016163
0,0300498693042155
0,0325887656454306
0,0280100308601557
0,0279651366735008
0,0221212700432871
0,0138660324940513
0,0234549982967282
0,0231074952087721
0,0252804279204907
0,0308108826950662
0,0328102401408567
0,0240518181363499
0,0336605101830052
0,0233776872329594
0,0371583107064912
0,0418495294889636
0,0305994089608249
0,0316081282584622
0,0288111782079337
0,0390985635133422
0,0347692333533555
0,0368470134334235
0,0328017862852676
0,0427512039105799
0,0408850099532312
0,0384012386501131
0,0328852189779506
0,0412100621671925
0,0441182190389751
0,0440010788704708
0,0401194564196756
0,0421265551366272
0,0392318233229854
0,0399719785863523
0,0444789065863736
0,040820634384476
0,0443399054890454
0,0501543576117013
0,0504042097558582
0,0501422736983574
0,0542713727595883
0,052645272466735
0,0460711665253979
0,0465923168022968
0,0573812655285893
0,0522066679546705
0,0559079925390375
0,0538448437917273
0,0537383447079358
0,0651327924445172
0,0709910764923858
0,0634371154374624
0,0627398463083237
0,0622186119448954
0,0655218753903885
0,0684863265138157
0,067996029411883
0,0718398589998522
0,0802801565652982
0,0729841167040561
0,0724972930052333
0,0864676274993477
0,0723063735118444
0,080614442810873
0,0873535824603702
0,0857816575635133
0,0879000343860168
0,090576598196241
0,089344804313033
0,103453001722494
0,0991084220175394
0,111444447578535
0,108287638287752
0,110526160575169
0,114840687037175
0,117506564096468
0,114618351004981
0,130827500659619
0,133681161632422
0,141241252927381
0,126971621242152
0,139222660742785
0,135290388804651
0,148434804383507
0,131618655048474
0,14566201442494
0,155055195526195
0,15483463709527
0,16165751867925
0,157454020291231
0,177581532365507
0,177360655494519
0,174597839334562
0,183537323614118
0,187349418761267
0,194872048530585
0,203288293369949
0,204950131600673
0,209248881942189
0,22300824153654
0,213629039398722
0,219415046307622
0,226282006291884
0,231788544576807
0,242704224861463
0,249072700734512
0,242951712655343
0,241772404565923
0,257717132879015
0,2505844490637
0,226678839273957
0,254881440581929
0,257738383306944
0,267101608583115
0,268043904961941
0,281381686726621
0,276511392561727
0,283762212681546
0,287575917236786
0,290946187053479
0,28694626610014
0,298012583016499
0,301389212174923
0,32724111772266
0,315291547238981
0,31024548520601
0,317368922372171
0,327900322426545
0,329997869279543
0,352758004732738
0,316317068877198
0,324108916511412
0,327731578630616
0,347651930744584
0,346887850858159
0,351965663301573
0,359462616825413
0,360689165052309
0,366565573047866
0,392924883301553
0,377581754316247
0,381884046841238
0,367730428376979
0,395612954663814
0,384163338663965
0,407284853110389
0,394852144573914
0,400985971180261
0,384352947285045
0,401782204246521
0,402355331732505
0,418614249935055
0,409417109525501
0,432839112097272
0,412022429736058
0,397976146192013
0,417787607777956
0,425281672428782
0,420781742305575
0,46292567541722
0,446258979684819
0,453582032769623
0,442502686711239
0,44961281332664
0,442729950095361
0,457492634930524
0,464391951231004
0,48274108148383
0,466893133620696
0,46921237170718
0,470419321874748
0,485269714999001
0,47344317618712
0,493246129637738
0,490546793289853
0,489759440499957
0,470894622454951
0,502123645109446
0,495491373933039
0,530305726481413
0,506924928701932
0,524026123688546
0,502686745539259
0,522532643775997
0,520992335166112
0,534411423940982
0,523116836402486
0,547144055661814
0,543176303457364
0,536754756311469
0,54481062843662
0,558476661010465
0,543527518477909
0,555242355515392
0,569630972951865
0,642586424366193
0,582994632232284
0,589998942405606
0,558327449966476
0,591334561233736
0,568558357521021
0,575826995929615
0,587412664644316
0,642214930876041
0,581894521855873
0,648885544408448
0,596363568764489
0,621345834955934
0,593868551141743
0,639572012934468
0,615228378589073
0,687379361844346
0,624314913888915
0,667389116941853
0,629580167918202
0,650470965930585
0,630413408294491
0,653012135115896
0,6096483799321
0,662427469437022
0,646856401162556
0,699612557864233
0,627043186891548
0,680363209773622
0,668572269661601
0,705084235180778
0,644034335053806
0,709580958734564
0,705368696390471
0,732440868461396
0,693317947679404
0,732705333238101
0,727064612521817
0,736737082198559
0,696396727177275
0,738819235229029
0,720547004153245
0,762353979114067
0,686286539254327
0,746175053079301
0,715876151035665
0,749993177003765
0,698123846630417
0,794775153519015
0,795728268905502
0,771066690470073
0,740801686999002
0,804890662867229
0,790710479313414
0,792419051528034
0,809426841593029
0,799480991509774
0,754723884881073
0,860243727384419
0,786287964369063
0,833761148062129
0,758464904885632
0,827943164213004
0,814125404629796
0,85592159515681
0,808908390602985
0,840413240994872
0,79519350880164
0,796417480355021
0,787178350935925
0,82850270648061
0,825836247572158
0,86467879589984
0,803580794062945
0,884070491049164
0,868495717928055
0,907346722437573
0,855194695184695
0,924918789327507
0,899515697130011
0,89264691432243
0,923355612474598
0,887388240738266
0,842809622167854
0,947206585089848
0,901981957413462
0,906641356354705
0,892572382410248
0,991886400963962
0,918698953439462
1,00742212287395
0,892540079550351
0,995391741776467
0,907106006779597
0,999869923287209
0,90317390298053
1,07927050028643
0,956997535678497
1,02143005738625
0,931815350730101
1,03452190860531
0,935603107749516
0,973480243804627
0,957793117302643
1,00897333936364
0,930631591491285
1,05342506993549
0,934063250956686
1,0163264764025
0,935190193960708
1,09718237454328
0,993877567928374
1,06376172871538
0,970045913203518
1,10740359845694
0,996076088005705
1,12252695966904
1,02333359822522
1,13639611100461
1,01539484654826
1,08516675413058
1,12533884418028
1,24366839772079
1,02277669507748
1,14489291676503
1,01037405381591
1,0587068752102
1,10929819263569
1,15377050598364
1,02607304614613
1,21038621766196
1,06786817298113
1,14292287997627
1,02067391775921
1,10806245969051
1,17492481516615
1,15674949092167
1,16068960290472
1,16725048567709
1,04998313781695
1,21562373514688
1,12236995615034
1,35542258399773
1,13548059454251
1,33856533757546
1,17662540928599
1,1618878763092
1,10207526367425
1,44174214628357
1,19366935029703
1,38944450879092
1,15540817977539
1,34124228603256
1,16142473002365
1,22990225505342
1,24078522162567
1,34644361746382
1,05323404736757
1,25188077938146
1,16623667828048
1,29697021089669
1,15699382827227
1,29484001491461
1,15516864855081
1,29516550403186
1,16677675767315
1,33241744247122
1,28163102198229
1,4976461611933
1,25077804067185
1,5126008925055
1,19471169587282
1,43470190549875
1,15070136206251
1,38066589818605
1,26266906323144
1,27214277127554
1,17609754211945
1,26202351412046
1,26205912051504
1,29477881092702
1,20923091970696
1,50161913142428
1,38817588907079
1,39051665353609
1,36206273861736
1,39887467036037
1,20103385282222
1,4630181013684
1,35265395540403
1,39744590730358
1,35931818017936
1,42774126597888
1,34262112104775
1,47620395253823
1,35579478226623
1,43856571270007
1,36471618055415
1,44796947142974
1,37073924836763
1,24356567949755
1,22530583736578
1,55997757408362
1,25731370970747
1,49618013552831
1,30942214022682
1,45522786978606
1,23297524626915
1,42546630506203
1,43415883106141
1,39374397644984
1,30482174807039
1,61862974544849
1,2389521745893
1,44397438796424
1,4727132474707
1,66647891852103
1,41357464965543
1,53894536912509
1,30558918291401
1,46810697052375
1,36435336088453
1,47117319728994
1,52748697452608
1,39528071077097
1,3596454715191
1,56623287014786
1,43641587585742
1,4505079881371
1,35999993737246
1,50776746967174
1,34271443787107
1,42870208150093
1,42942958262617
1,53782922447709
1,40651491485748
1,49554784900922
1,39493732457931
1,42784911385453
1,31472401431481
1,42351700277271
1,32744344469935
1,50747397662461
1,37610701400544
1,45391869060313
1,33232157226047
1,44852003284197
1,34313066286762
1,42804205960051
1,37011864084957
1,51022916123684
1,41827436613346
1,50878719558932
1,51069409768581
1,39063475074611
1,41120374031359
1,32715168987372
1,36348221640809
1,46732291477486
1,38085301317063
1,41471778541227
1,49689696810544
1,59322258843986
1,30403105226427
1,55689666240663
1,3932078493221
1,43310346074328
1,37036545565195
1,63808236739315
1,31858269107553
1,44016026680438
1,34283334616809
1,42330928416359
1,35649721147194
1,68948055253076
1,38012659086495
1,39320358306116
1,36026190728674
1,43516927433328
1,32078704713272
1,43789366824148
1,34497477863119
1,45690100820039
1,42312547840588
1,47180081974874
1,41432617586366
1,45184860144393
1,42513416470968
1,43827125021324
1,30697860817874
1,45016302436402
1,39384977040932
1,49443666684714
1,37889479877918
1,44100852296355
1,39021510211842
1,40598355573561
1,339657607543
1,46435144558369
1,40436870953154
1,37642847631762
1,32526927107037
1,49797861506246
1,41247528526801
1,40559490380854
1,48308589373999
1,42051913679421
1,29242198085157
1,35088251622385
1,32360450269469
1,47856124430217
1,34977258327959
1,51779823226009
1,31538262807346
1,52444374518429
1,34567524104246
1,46885249858795
1,35101368923669
1,47638681383534
1,2855523376897
1,43937134036174
1,4315667587479
1,4604716408677
1,43071542660497
1,4409201612916
1,28435207757147
1,42775603281219
1,37177997274804
1,3862554771773
1,33747931513014
1,38837150182133
1,37831567918108
1,40393306206342
1,35927582789469
1,37612298720921
1,33829288972599
1,47161420886013
1,29180669969145
1,43279372840742
1,34343463666987
1,56613430169185
1,2628961837574
1,40223338100098
1,34937104936628
1,39318580400037
1,3570499235704
1,43585631578862
1,32816464073643
1,41274730479079
1,30146707343221
1,46223074472471
1,366843107687
1,44629937235554
1,31370099020383
1,39123092523294
1,29656970655075
1,38950617333018
1,31968945364429
1,45391496961449
1,33366891442499
1,4116875027327
1,27007493400255
1,42653930803703
1,28898611508053
1,37399495280651
1,30434556318659
1,41742789144632
1,4181475772397
1,32613384582557
1,29091891493839
1,42030664218743
1,38457295207641
1,4908039381096
1,28501945898266
1,316940525427
1,26422909264484
1,26991104569987
1,40468829350765
1,38758385506365
1,28263477470451
1,34153441637548
1,25522533030442
1,3597343196841
1,30016901363264
1,33299807304666
1,35275969984993
1,40926083993441
1,20113845575802
1,35494021565056
1,28295745165922
1,31899191330968
1,27646660620374
1,29228409961827
1,26136121563615
1,27770073790431
1,23894528872367
1,29204734415735
1,24015757489465
1,23016714015646
1,18897609353697
1,24098465744127
1,19041761148047
1,23300801394672
1,26747910402921
1,24747637214198
1,18380871950972
1,24246713283479
1,17149597798638
1,21908762681403
1,16718785884789
1,18628186366267
1,12950178595355
1,2269901681218
1,14856150109927
1,225308130211
1,16073396920672
1,22820037230634
1,14396905333763
1,18802067161003
1,1206720971871
1,16482388202626
1,13410814341159
1,17405704850759
1,13589589818602
1,13866290706002
1,11388398032996
1,18817727759461
1,04737649685867
1,13450999450416
1,1082882599847
1,1364876829955
1,04963944749194
1,07560877170129
1,09353908065123
1,08889785271249
1,04424255709998
1,09869565064395
1,04664561327071
1,03317498359313
1,04688182967348
1,05263060190031
1,0151527032366
1,05899431292258
0,996642026879053
0,991087491381198
1,0047651509199
1,01026457435713
1,02586478798899
0,971625117385782
0,99627808392241
1,01805649481767
0,974297962689073
0,97220341702715
0,952567678821886
0,986639898992949
0,954219103270597
0,955185357137048
0,937409434430395
0,968503045499255
0,930347510873148
0,95863518085767
0,904194005528224
0,904413465718536
0,914856845408054
0,933862911394626
0,8840755984406
0,898444407226603
0,893006449823265
0,919554477164148
0,858406657548868
0,880703832374165
0,863643008848209
0,881966699138308
0,840280701282918
0,851096669830936
0,851441270707275
0,83037395725866
0,819491753612811
0,83500865857437
0,813211534586879
0,817509562367166
0,790323797287507
0,82939088510231
0,801609318858665
0,808510073810936
0,782994980218766
0,782918368676655
0,783923314934721
0,790083400999005
0,760876798127772
0,777799777573445
0,767276322701656
0,753352153582532
0,733862323869212
0,751987712764232
0,731027504582234
0,740491401678403
0,740003115984384
0,750191164049153
0,72467104463684
0,725199674456163
0,702386817141561
0,712670249138121
0,693623346451368
0,689946407268468
0,685344291315203
0,702023252196673
0,677202483587245
0,669700986959876
0,661928128251283
0,680660703696799
0,651450732231279
0,659922221310685
0,665203821055518
0,650063336632341
0,628635426510334
0,633113008476555
0,63974471595583
0,644491697714272
0,631061923672133
0,629341485061844
0,617286225493463
0,620262397537309
0,605790213253607
0,605173918238021
0,59960746021729
0,593816208597786
0,598646185533417
0,592358745977547
0,567050987740772
0,574929001406017
0,571959779799239
0,568250775308456
0,558080518582522
0,572874758999671
0,567810902596969
0,568014605977774
0,547381903362572
0,548165281832675
0,542257884063467
0,542100400563254
0,548169547007593
0,538266360207632
0,521514792093297
0,530286222144591
0,524502918885285
0,51493132519167
0,500084120340789
0,512413014745907
0,49728653063435
0,504373634609172
0,49436365053216
0,498526857087405
0,485705011052108
0,48629817909484
0,491548665004832
0,48478423053442
0,486013334824597
0,477017857498293
0,46549556011417
0,466647697474572
0,455539870586061
0,464656473729286
0,457692110194534
0,451616722192654
0,44648799946718
0,454117124750943
0,44836894818472
0,442073613039577
0,443165310446543
0,437991854374136
0,426582379580748
0,43024385496414
0,429185893077604
0,419254252706398
0,418116564685835
0,418213823777367
0,414170898379608
0,417619382271074
0,410422666070819
0,4035182797012
0,398252307950192
0,405517696732622
0,402315546457159
0,39754412634454
0,389963543493144
0,394195905321871
0,388311414041195
0,381757930126946
0,374280443621166
0,373770604626949
0,362023983342018
0,368356631242965
0,366680706080575
0,359619102663415
0,355782953315031
0,359522487167347
0,35879359237145
0,354965499261601
0,347644495604168
0,342854574698977
0,340746500412441
0,344444794522291
0,343242026966173
0,343717484743569
0,335297028280256
0,34228493676662
0,333484477177215
0,329537911085041
0,327178099226939
0,324533776341485
0,317655867913501
0,323527092998899
0,319607834744147
0,31502440688577
0,309905819602718
0,31345303206151
0,305202811490438
0,304721167307719
0,308153506729327
0,309020355368192
0,298518526203473
0,298962888926858
0,297917307270471
0,296937504980504
0,290712069663828
0,287356996964545
0,283212071958446
0,287012918824707
0,284133471951236
0,287652408120466
0,278172712615796
0,270672652939086
0,27554816260445
0,271990532217941
0,272902098654417
0,268518621167775
0,263050297203404
0,265179845696744
0,264269315972765
0,27017613577255
0,261106256487747
0,261012372737506
0,257979611996281
0,249888432329853
0,251536170816448
0,254454180325752
0,247613516221953
0,251500668112298
0,245623992899856
0,244660924778814
0,240753429935408
0,24477242932109
0,240599917185266
0,236473697382854
0,234661839124267
0,234354297707172
0,237004753230919
0,229677838738834
0,231416007815808
0,23015522588424
0,226243800998393
0,235779820965789
0,227494985221597
0,221899407422984
0,224643338314803
0,223768314134688
0,21705640394385
0,220590643339359
0,21465040503754
0,214007954707761
0,211561490058956
0,215297051473236
0,215528152192068
0,21527637816782
0,204697151573934
0,207839826748307
0,209153416049512
0,201380706264305
0,207666190746717
0,205445069028196
0,192799725088293
0,200223318403329
0,20215041387967
0,198882005053182
0,19524719050073
0,19366252917649
0,192413590213819
0,196678454200349
0,186658562362139
0,187213845839402
0,188338057686222
0,189645208341293
0,183548188171068
0,185770399837716
0,185197545830081
0,184612645637974
0,176615271324846
0,17700989380874
0,176189302282145
0,176614422908546
0,176195457622127
0,17739431933674
0,171623959341606
0,172338011843868
0,172430749871848
0,172087092848589
0,169317634977664
0,170048082657755
0,166379568348376
0,169754904592187
0,165991169830643
0,164675380687083
0,165445754574772
0,1621771682641
0,158861305534617
0,162895997530399
0,162556017493533
0,157547670408147
0,158137839229413
0,156709186137255
0,156464915240658
0,158658025190598
0,148555318279702
0,149897660758497
0,150237314903558
0,154796118234961
0,148918874252051
0,146761499406541
0,146950100971767
0,147740943835658
0,15049718416679
0,147603323258265
0,14370831843154
0,14814876164608
0,143779001901425
0,139198670219433
0,143576812017243
0,144469104417687
0,141597744106296
0,136793485775433
0,139480970028933
0,138970278177418
0,134023024388228
0,140761193519144
0,137346970978802
0,134972993641961
0,136784789831613
0,134487171363434
0,131976467336017
0,133754573573394
0,130890130640355
0,131144265508043
0,12818717605575
0,126673557609452
0,128339125810666
0,126872318482606
0,121389615871785
0,124822240960001
0,122783129266383
0,119657132216102
0,120654758146814
0,119530178857383
0,119526246176398
0,122839364169674
0,120918317368992
0,119325460235105
0,120502290803761
0,117902655330982
0,114067878744736
0,119845095221974
0,113195256810072
0,11300839491358
0,11460626283838
0,111080551318148
0,116249196442789
0,112106148200626
0,11431410719346
0,11533455571073
0,106490009629995
0,110430367267129
0,108976307706531
0,10977522418078
0,107531836087591
0,105387239251913
0,108354266667297
0,105190487602087
0,104130383137798
0,110697472402978
0,1081075356074
0,109868629856797
0,106926736215692
0,10285458415623
0,100842954039346
0,09637104452573
0,0986823711325532
0,100704617425588
0,0969217972021038
0,0982803704120648
0,0974913397061951
0,0983970076793353
0,102690594414134
0,103044401716201
0,0995739316604813
0,0992136916935824
0,0983606252617261
0,096000038397989
0,0937629439824142
0,0945318853965746
0,0934471616998259
0,0951633738704747
0,0971310903012328
0,0939124434720264
0,0927042088369414
0,0939547114524081
0,0946111253500372
0,0915590170836396
0,0881153081140241
0,0886682526641061
0,091353635698923
0,0875707776588195
0,0855165386910014
0,0880372483775865
0,0880255674426297
0,0868438064056177
0,0900373068615199
0,089239664057546
0,0872864676613126
0,0865932806614001
0,0845126685495147
0,0849263799989165
0,0863090753768647
0,0860391465945726
0,0834927459553262
0,0828750309552226
0,0825356120265348
0,0824578527982542
0,082419662252266
0,0806524938340192
0,0803972947531773
0,0818467569062695
0,0802564661351321
0,0816670841930251
0,0817855597190058
0,0799904637764407
0,0801864372481934
0,0806408293808014
0,0778597380023626
0,0784146005508996
0,0801143681596154
0,0820639199746098
0,0768373652280061
0,0752706487466441
0,0749153655286683
0,0766834420234952
0,0812199701258531
0,0772335188531503
0,0760786607886317
0,076839709488193
0,0772074624377657
0,0768651269025073
0,0778323926713096
0,0763480454632975
0,0747836467750228
0,07568427088707
0,0731149026322703
0,0731378583449547
0,0757566341053833
0,0773222784227323
0,077533119178362
0,076902805686414
0,0747911965292277
0,0733148119083271
0,07299518074613
0,0731781808434906
0,0728578515806101
0,0753388427644032
0,072459545443751
0,0754797356226108
0,0710615680486231
0,0699209094877802
0,0693516021944922
0,0677973185481353
0,0682317516341987
0,0711076710175791
0,0671175124995614
0,0670299875423543
0,0675619992199081
0,0699533310490816
0,0679958890948103
0,0680009481490445
0,070153102885298
0,0688285366689639
0,0708763683160971
0,0683005418213457
0,065911041523258
0,0695541730625974
0,0694966648304075
0,066242126427428
0,0664124987826446
0,0673911356381643
0,0663847546376734
0,066054422146613
0,0661552827230923
0,065304431401594
0,0640714267625039
0,0660750094324811
0,0654046742423675
0,0665037132610929
0,0638850086736472
0,0650017447749286
0,0656695559058026
0,0646141635030448
0,064219441762419
0,0642970292657596
0,066002225466404
0,0664820480976335
0,0623101365979946
0,0672399558776576
0,0671827052327695
0,0625229781324788
0,062907570162831
0,0651340372905373
0,0640454397933615
0,0629146770632789
0,0612151784134797
0,0634724967136205
0,0654564484559519
0,0635507403996028
0,0641977444108108
0,0648688973984164
0,0620566751657709
0,064379674595662
0,0620710486979444
0,0591100087413618
0,0613844306128321
0,060481852375835
0,0590416652719428
0,0604835734025027
0,0624064750771386
0,0614062674534501
0,0611646768797317
0,0616796206180937
0,0624414768595241
0,0612931149902182
0,0610816460632365
0,0611508975376103
0,0587046636293547
0,0595919394231798
0,0577488924949793
0,059552465388107
0,0601957674245293
0,0598040499617701
0,0606622388904649
0,0582478322894728
0,0547939967508112
0,0586292059887471
0,0600670752881576
0,0591711131770102
0,0590951716555187
0,0604033875980588
0,0600974078688785
0,0558215437444856
0,06166248429558
0,0602032998998111
0,0592777761164309
0,059748206657112
0,0584409129922347
0,0598609936798588
0,0545690548021157
0,0555184358972989
0,0554447854358843
0,0591887293957709
0,0566519018312332
0,0553134921449472
0,0571518875295721
0,054085633787389
0,0557092261334119
0,0529462481682059
0,058331820290997
0,0567116322478692
0,0578190579329553
0,0562561324527112
0,0573128938103114
0,0575211319491911
0,0565489849720295
0,0601322203425552
0,0590276811477738
0,0550444151877247
0,0524660195175693
0,0543302732118789
0,0600071910718498
0,0546891031686505
0,0556467087550017
0,052290111569392
0,0536827713107036
0,0551146655331522
0,0551628114809356
0,0541214494892002
0,0551584179322438
0,0560573227174386
0,0540198444196493
0,054767672516933
0,0556949544194271
0,0549704270691237
0,0543486988913751
0,0543150970499894
0,0556496613284292
0,0543639289939493
0,05928114322668
0,0560725482872249
0,0508637032702786
0,0524293721298249
0,0559862384777868
0,0562928864138561
0,0544560801207475
0,0544478265929293
0,0555947591930323
0,0547116811597213
0,0555866243803971
0,0546885125979475
0,0535367595264394
0,0584199842435672
0,0550654483245855
0,0553469295524965
0,0576184930156938
0,0560188624493936
0,0530626869691861
0,0540759737612785
0,0576487934284455
0,0547683466207305
0,0529188711588629
0,0539964343268421
0,0572605401247125
0,0532991709942609
0,053023065516051
0,0543080045718927
0,0548530975943303
0,0523680954706094
0,0534922171085181
0,0534721401203448
0,0544400266337579
0,0556978500752649
0,053948970573235
0,0553658384606612
0,0554889636876924
0,0569531582841346
0,0553247721077307
0,0539357961692302
0,0539941983619778
0,0539843394191184
0,0505994245883108
0,0522754157518832
0,0537995561050639
0,05379434943188
0,0556226594489763
0,0532089315505277
0,0557245039595348
0,0560466729717924
0,054078456657895
0,0535620955684529
0,0529566571080111
0,0540779319100992
0,0547651880993291
0,0529086885594586
0,0542726346989795
0,0543292799913594
0,0531613299302494
0,0563132061546634
0,0548833832656625
0,055602563784638
0,054564333713704
0,0559344707004459
0,0566541646197111
0,0549251566378263
0,054786017989952
0,056785131169019
0,0534439287201212
0,0563915588112017
0,0551327199017176
0,0538297114702024
0,0562998329151621
0,0557377448154686
0,0566997109146381
0,0510878537789727
0,0550242323895442
0,0543094029216652
0,0555051188434101
0,0558580815004187
0,0581292191428426
0,0556259094478505
0,0541620734251804
0,0563246741881832
0,0571313272439408
0,0533528847969834
0,058184017252513
0,054523570137867
0,053841523273691
0,0578134209792726
0,0549927626377052
0,0579583233664813
0,0559056188566676
0,0562348564485536
0,0553667291235826
0,0548339050025337
0,0539122308097568
0,0563249112693288
0,0573313667936221
0,0552999010551996
0,0599931178076688
0,0571644395064655
0,0556011748305273
0,0549576878325778
0,0552177691334213
0,0586107499059398
0,0575181749150923
0,055059853497604
0,0596729742533484
0,0567155221945079
0,0565560963436239
0,0585087444810167
0,0579846338478515
0,0591971749324475
0,0561894405371033
0,0564941889755192
0,0581430215923452
0,0543288181749368
0,0562462973258815
0,0591481096556901
0,059682843175324
0,0573629489795583
0,0583700609526738
0,0581997774397821
0,0586089420020063
0,0561172383218738
0,0586799014739973
0,0567507453481033
0,0608407890697511
0,0591965230791536
0,0595382525514526
0,059322272193299
0,0590015349544133
0,0552995791425744
0,0569994869484275
0,0578595907363346
0,0582290346529965
0,0594835604774796
0,0585822919887461
0,0579005172031246
0,0603057861297178
0,0576260430344829
0,0578915618130016
0,0582107557199945
0,0614296878244494
0,0597522458030203
0,0593556093174148
0,0599567332186257
0,0623341707367038
0,057956628094547
0,0602582813297829
0,0603384776826041
0,0633223538361838
0,0575019032937637
0,0585255435798386
0,0612637755127778
0,0584393371143251
0,0601978511701277
0,0623916810457984
0,0592526882043255
0,060218015854834
0,0598535390289785
0,0609813444306355
0,0621219387147254
0,0595699486035815
0,0603656483948795
0,0602990647983963
0,0603712592259224
0,0616694611400541
0,0619562902717157
0,0612163812837556
0,0604599354772204
0,0632960744456782
0,062767792380318
0,0629924382868706
0,0575421674753934
0,0622712460567667
0,063100694118487
0,0613385663967291
0,0594096176352368
0,0623995531677178
0,061628285085925
0,0623419805410443
0,0639405472344118
0,0633053203632267
0,064489117855502
0,0638516205933682
0,0640903158063285
0,0596860734692867
0,0637431833104603
0,0637103870754732
0,0639112592501569
0,0657642052767205
0,0631136368168145
0,0628388739271924
0,0636147754604349
0,0642329759614556
0,0610186762679487
0,0650651473050344
0,0636512432026582
0,0667959608998089
0,0621813556055678
0,0658360235493772
0,0625876562059076
0,0664037805164718
0,064978930614532
0,0633943156670212
0,063914415654995
0,0652628591083929
0,0615093416070761
0,0654579582896057
0,0636231760450488
0,0674109213766949
0,0652920735249391
0,0665843044762794
0,0643191940082984
0,0640128739413796
0,0659921816625513
0,0632307268584023
0,0636345978943769
0,0644252983187854
0,0663201225027596
0,0641385375309952
0,0642977189131573
0,0677347185057223
0,0644093543758495
0,0671749363072235
0,0668992739455326
0,0669367465736964
0,0649259050061186
0,0671225983485825
0,0666437595792444
0,0620303073999026
0,0657325460481062
0,0663201575015314
0,0657390648598729
0,067911197910792
0,0668010654078348
0,0686509948164974
0,0687249898450965
0,0708077860708799
0,0699424663746728
0,0678124191032322
0,0665593423368354
0,0662915424030374
0,0674487963388829
0,0716179685298561
0,0692189275545285
0,0692880398807255
0,0718516109835759
0,0666175083014055
0,0693379864276948
0,0704347392803819
0,0700375562090384
0,0717935869719589
0,0688809630763654
0,0681897181845846
0,0668401255801947
0,0724843610308307
0,0686422169409337
0,0716318716398944
0,0714090778947314
0,0706224402477091
0,0713849715574627
0,0742496185819522
0,07226747406839
0,0722282521390501
0,072857999785105
0,0710779364792036
0,0698939480708777
0,0703340522064879
0,070412555201122
0,0735565267951173
0,071730812149836
0,0766842749629916
0,0751941689024196
0,0690212745099643
0,0680349175798031
0,0748700620953284
0,0709918452906637
0,071288219179728
0,0713272882578404
0,0738298042535157
0,0685041091434358
0,0769288518806985
0,0736774387578715
0,0714952167131475
0,0746021710311268
0,0738171171210173
0,0717321602877735
0,0758215476802573
0,0712489079146459
0,0733774591194767
0,0739808873546715
0,0786519767413175
0,077588319553561
0,0739141258114369
0,0729691125853774
0,0742049356285681
0,0717924047439408
0,0799063413707997
0,0733528459689272
0,0802779432976617
0,0753206619856568
0,081739174001727
0,0752871293044343
0,0788976435365622
0,078063029996234
0,0773689473786383
0,070971538521943
0,0788266165953822
0,0773489036680661
0,0773044472728904
0,0735324149918674
0,0791717222282875
0,0752690867355499
0,081925555710177
0,0747719502782953
0,0790147045834598
0,0746248686493063
0,0812012250117071
0,0809730526598352
0,0812513440227337
0,0745474855296474
0,0808023621391478
0,0827254874662658
0,0771919834601325
0,0843976963379283
0,0801527204343046
0,0845105525344844
0,0793412056533518
0,088866019883875
0,0759835721790029
0,0905594000689097
0,0763873854173613
0,086669173921149
0,0758147641079756
0,0875042892010338
0,077423020191725
0,0836591148252985
0,0817219244122924
0,0817337549973228
0,0825086841347915
0,0849266348218648
0,0844659788076169
0,0805009114447448
0,0827313272708753
0,0836184533920401
0,087956804874299
0,0840252344721783
0,0814719170899356
0,0835500311219953
0,0836387475257667
0,0879757383201139
0,0854360754260937
0,0855562131156049
0,0853479808948455
0,0841075508700974
0,0884913274082759
0,0861096415775298
0,0877194654045841
0,0885516522227066
0,0873524285846779
0,0848819546887056
0,0878488605695079
0,0882275921295607
0,0892923234465435
0,0913049676273343
0,0908669682889949
0,0896659510394477
0,087073936096869
0,0886952515795438
0,0891789148531512
0,0887134253997511
0,0891967580546615
0,0907631429740667
0,0927548138501031
0,0929470987663661
0,0901547562322138
0,0905055540295231
0,0903258930943825
0,0909209807384197
0,0933058313937606
0,0922125543552655
0,0918327399597279
0,0928306118518061
0,0910854869556709
0,0918140485011431
0,0928844549388591
0,0935266347218886
0,0929086357781361
0,0935795668372268
0,0931135616301978
0,0948625251461238
0,0957574740891559
0,0942159067507282
0,0927584819521324
0,0959123315081398
0,0952810259115825
0,0960246446214322
0,0975056197236559
0,0965083150164824
0,0972010087951511
0,0974242967671482
0,0981995461797227
0,0969475676073226
0,0959018418622534
0,09522976410004
0,0988252878333663
0,100056467477726
0,100315600010677
0,0987676715225496
0,0985460303577147
0,0957873985673112
0,0994714283119586
0,0995895252877617
0,0986219807917453
0,0994147444988931
0,0998986778050041
0,100365098800907
0,100447773908434
0,100342744020753
0,101986813845627
0,101524982732761
0,100782149501512
0,101225090264732
0,101196876204733
0,100445572505264
0,105497339869543
0,105354220575952
0,10130608057332
0,105089172966246
0,104525994166606
0,103627757616102
0,105885237851887
0,106398262003611
0,10442916072245
0,104142027623058
0,105255042807863
0,103002741493733
0,10574904756124
0,10520186755971
0,104082057295924
0,105602016423725
0,107351975655137
0,10753894479991
0,106583971441074
0,107766114182082
0,108445217433434
0,108241010625614
0,109343218299487
0,110537426609274
0,107098553272558
0,108979912074218
0,110464519630482
0,109548113918518
0,111205676762209
0,112221999802411
0,112446898421966
0,108192646759705
0,111940698332542
0,111221888402716
0,112296268813841
0,112855603336583
0,113490326807232
0,114563673292253
0,111631077251119
0,113770265471739
0,113375478532394
0,112756133256052
0,113512007037062
0,112111281377713
0,11300975779842
0,115514750653754
0,114442070732331
0,11400959997602
0,116608837096342
0,112390121956416
0,113591264553735
0,116152786465148
0,114720766478763
0,114394684270116
0,115174388887907
0,115651667204578
0,116350257084111
0,116232461265282
0,114806768556586
0,116463743975672
0,118803054041895
0,116336477471638
0,11756509804782
0,116586635589446
0,120481301843884
0,121707990940644
0,119625550402854
0,117920901622767
0,118713444276136
0,118229959631405
0,120889042391807
0,117608931214763
0,121143956398363
0,119496293957078
0,120362492699049
0,119140941912791
0,120694407222138
0,119641864362798
0,12050147287487
0,121789413223406
0,119534592064877
0,119113691460769
0,120485384349842
0,123135818502532
0,123429004472008
0,121619294516941
0,124763945882694
0,120408202995948
0,123586126426252
0,122354863918732
0,122779844195936
0,122926370109727
0,121167704058903
0,121863002454599
0,124084737208067
0,123114045334201
0,122214538492339
0,122405470562054
0,122804587299751
0,120165766846638
0,123960532967128
0,123328730251688
0,124404249543295
0,123114042620265
0,125292300485688
0,123192092503684
0,124631582678946
0,12423470588329
0,123638778542508
0,125021666240633
0,12544739682725
0,122305044544163
0,124146621990569
0,123962761283506
0,122338519866172
0,124616616452301
0,125719866868493
0,124207092230453
0,123776395208667
0,125716654418829
0,124647521228471
0,123013095855603
0,126879422797472
0,123547595151063
0,125467646255127
0,126704123081895
0,123331688164233
0,1238008064787
0,125917469124875
0,123293507050347
0,126285393254357
0,121727381872264
0,122275983159298
0,125781467789727
0,123201476873868
0,124477782747181
0,123398405581243
0,122979530791456
0,124985070022341
0,125299041643588
0,125696072819753
0,123623549513624
0,12515851698763
0,126013845341124
0,124263368070774
0,124483979161896
0,122330262120905
0,123633257726232
0,123022405960393
0,125377360983067
0,125453444270043
0,124843565528838
0,123588006639078
0,124237919175267
0,123546592374961
0,122872643657744
0,119633272253945
0,123256035204436
0,122193047428345
0,123075323576243
0,120807927473549
0,120486114042791
0,121619140709031
0,121535843443189
0,122884896105539
0,121297065879922
0,12211886792881
0,120567975357423
0,123287029947429
0,119845277962364
0,120562439429702
0,122210558347778
0,121067363782782
0,119220463354342
0,120695636744722
0,120803688641444
0,120553620392068
0,1164946746074
0,118525823230203
0,119648409081897
0,116718714463642
0,117754013323984
0,116997474488253
0,119196976184045
0,120476135824975
0,11677339638385
0,117741944010841
0,117506947809125
0,117755222566645
0,118232536504239
0,117527125289279
0,114659540623113
0,118183680452797
0,11590621479985
0,116005757007721
0,117352939164671
0,117103334771983
0,116226412533449
0,116184045470953
0,115957444573527
0,115790890233474
0,114440989361355
0,115345665075254
0,113663426126485
0,114932317276345
0,112021996499919
0,112722267306217
0,112992093793929
0,115113130795385
0,112229173514163
0,11303074575914
0,113286398217731
0,109054943305525
0,110145354656485
0,111643680393189
0,111373769609738
0,112089695019282
0,110839417484547
0,111336987786396
0,109604299196947
0,110602137981844
0,108757175539131
0,110269378566757
0,108650016689086
0,109925955471516
0,108049988445302
0,108454476182674
0,107023287707
0,109524310080471
0,106868040204808
0,105355254349582
0,107145291993621
0,109047552007832
0,10461776986194
0,105268468824466
0,106094705613939
0,103578436698911
0,104963822170025
0,105245598576708
0,102983147455145
0,103872923365618
0,103784466664604
0,102089267594837
0,10304311960529
0,103382251058331
0,10222369636661
0,102339129968745
0,101918835656218
0,102388839222883
0,101804414632057
0,101605435337744
0,100838728615472
0,101341874153432
0,0989595038889809
0,10319738953451
0,0984996967504205
0,0970897331517587
0,0997479079106956
0,0985950705619461
0,100252777728209
0,0961580386132311
0,0965808744830865
0,0971367505200033
0,0981938060926738
0,0957181797620437
0,0952626601993924
0,0956289033309287
0,0985629125554038
0,0958077807305537
0,0950459989166866
0,0942724819599845
0,0973334477419772
0,0972470650158979
0,0939183126948194
0,0952630373623551
0,0950897933844175
0,0937395202179434
0,093393532375385
0,0939572104009577
0,0937165250392253
0,0948703067957959
0,0923924560582916
0,0919886197831498
0,0908895520097921
0,0912012594151505
0,0911795175013494
0,0933301531424773
0,0918748805843971
0,091981563424004
0,0910081853903099
0,0899603198034829
0,089313258658185
0,0899070228181894
0,0904913335489034
0,0880485521469457
0,0868738500399999
0,0893663937453616
0,0885979769533309
0,0885986718685102
0,0874942941503903
0,0896918595791819
0,0883663007957861
0,0887481713345522
0,0878907105200871
0,0868541258231966
0,0863327810219075
0,0862445847689379
0,0885970716281799
0,0881792830527743
0,0831971053760538
0,0878520282365832
0,0873465023642039
0,0892746324390782
0,0845049908706828
0,0864606393707628
0,0857716305268323
0,0835050083391234
0,083779167136158
0,0859530859769423
0,0823663436779813
0,0864428470304003
0,0834683885766367
0,0817367320572279
0,0839688830772813
0,0850286653394961
0,0815398745008793
0,0826248318156102
0,0824264568318129
0,0849468595780507
0,0846929835060699
0,0832566385594064
0,0826419792489544
0,0837254378034251
0,0831157957778938
0,0839323018501395
0,0800559454895917
0,0823302942692039
0,0810146836387598
0,0830633013304501
0,082503998923085
0,0803655105076054
0,0819757273553254
0,0797336445525015
0,0799911622774448
0,0808973228329301
0,0811767088013786
0,0810509958646349
0,0793574296757694
0,0808525537044434
0,0800592582008334
0,078357225036037
0,0796770933724833
0,0808807511954587
0,0781891450182192
0,0781691080716592
0,0794318469648389
0,0822563634173723
0,0782901080552458
0,0770892510891676
0,0763281846281901
0,0783749828494027
0,0786519028157319
0,0795826709875994
0,0799110094398028
0,0801993712489546
0,0806635684070101
0,0772261854660658
0,0796622762729059
0,0800916580676632
0,0786374387146585
0,0787856314491911
0,0787001796259398
0,0787540563535804
0,0795695268260432
0,0805610527188873
0,0784460804672018
0,0784119882076037
0,0781137547886132
0,0780079136995354
0,0765179478807264
0,0776936856809812
0,0779152810322661
0,0772286941839722
0,0750478090533899
0,0788423906902121
0,0785422528513975
0,078114193172127
0,0804057339520693
0,0772282553482518
0,0777541055919184
0,0764936950086826
0,0770907172403228
0,0778251969678411
0,0773061590912659
0,0775547719789947
0,0779606857072553
0,0761597563110775
0,0777874954845731
0,0794039521466138
0,0770391503564961
0,0778880622855686
0,0776621058831495
0,0776747092223775
0,0777226227099635
0,0766574712052597
0,0778110782678106
0,0783738641963513
0,0785647679859005
0,0765920722232667
0,0798444863884498
0,0803832144210831
0,0789508723519712
0,0775243224634633
0,0832942964668467
0,0802897220888666
0,0790505289954315
0,081505468837425
0,0785553459849498
0,0802236426804989
0,0795818269653987
0,0793010369750475
0,080249108362438
0,0791338880159653
0,0805476446274888
0,0807358879092795
0,0785031646076967
0,0785164034197897
0,0789084006887462
0,0806514703598254
0,0807738061537137
0,0811252851968934
0,0823659990940762
0,0813837285862026
0,0793632498442338
0,0834692256416475
0,0811749067970828
0,083452882638372
0,0818779778008355
0,0818495999600764
0,082015015123665
0,0831271752030745
0,0823238423339675
0,0833341736269345
0,0833772272151711
0,082837350181821
0,0859350890322304
0,0833669858333075
0,0820868214130622
0,0841335526034557
0,0864545221472101
0,0864635268703019
0,0851967811186584
0,0866137798569938
0,0885601531791015
0,0863212743936247
0,085970553013976
0,0868116646028649
0,0850019544951007
0,0852749596687234
0,0870038561461304
0,0868588845867832
0,0885578265250433
0,0865742018618917
0,0871314179447436
0,0907897204012636
0,092235674661516
0,090927433482861
0,0896936117857142
0,0906439665473692
0,0964729435050626
0,0884936454688063
0,0938771097312872
0,0937099813760141
0,0941753638070045
0,0945530875502086
0,0964398746507988
0,0929198546032357
0,0974567386299262
0,0943259591561256
0,0948909053899521
0,0958183357977428
0,0950880093375033
0,0944229606295251
0,0945116359779501
0,0969871782130794
0,0987269659682385
0,099858666127003
0,0971767640093072
0,100822658584046
0,100292715320253
0,103950481246037
0,10446543113259
0,104288165810165
0,105276057660717
0,104019552500784
0,105797055878979
0,107029619816746
0,107583950879921
0,105383638236851
0,107288300074825
0,109163941047462
0,109156544228749
0,115080060136506
0,11176179067011
0,113651340282132
0,115888117685932
0,114454127492206
0,119889454240146
0,117997437557873
0,118604200857635
0,120862019597378
0,120667140155267
0,121847294607406
0,127103996577244
0,125644626564247
0,124133309895166
0,132786943856666
0,128314943627379
0,132425824809395
0,131113795661008
0,132911458790995
0,133145699031957
0,135536320612438
0,136110933578832
0,139349707110471
0,141089068048049
0,144148770537993
0,141324499449726
0,148485043246393
0,147734452657045
0,149148850994787
0,153570121430339
0,161437736141527
0,156674583774389
0,158489256085018
0,161224114982199
0,165539611210774
0,165775284231385
0,167924962841926
0,168374989506895
0,173502240004242
0,175292050384945
0,175695325318346
0,180132239143112
0,184373458991921
0,18426239922426
0,185283047589235
0,188406642868759
0,193977508137105
0,194482777962603
0,206340281580469
0,202953818601765
0,211070951675576
0,215238534316793
0,214537212476826
0,217924460814065
0,224400560691954
0,231246244989375
0,229263328152381
0,233484567284236
0,239116010035249
0,243978341653401
0,251725549121112
0,248279618780032
0,259044442525383
0,261322663102314
0,266949762210184
0,270055286346979
0,297654299804341
0,283567829290679
0,289968487598183
0,29268774050301
0,286656265711995
0,319803868799067
0,311031287682449
0,315996180664373
0,325991765176129
0,328968862822201
0,332541356142704
0,340307624011873
0,347710431135004
0,356222208914244
0,358776081543073
0,361394380827255
0,370972470811517
0,383860291069387
0,391819659426711
0,396181414620212
0,397245919016717
0,413224873114834
0,421941884358838
0,420220672302252
0,424757153468552
0,431266804105478
0,432471631579626
0,465274366222725
0,452175654529432
0,464660309032061
0,469352977618002
0,484595731399052
0,48710007523999
0,494259786989359
0,503591223860207
0,508008981767131
0,518164325841132
0,52079101290399
0,536348574793927
0,537639898373516
0,55067895379825
0,55739427069272
0,558790596864913
0,57176331254411
0,567070840191335
0,578602471834007
0,593499151343731
0,594911929687492
0,591522290094744
0,607288296286453
0,608242157967046
0,663122785346872
0,657163638251387
0,627949450361212
0,6371665769998
0,637737457897943
0,643142809517377
0,643746982268482
0,656614352767674
0,689358214536224
0,677757462484649
0,67806387744826
0,670774380048819
0,676458030674724
0,693289052549638
0,688020561572747
0,680812641709914
0,710699393432985
0,706686303717302
0,686285738788746
0,709683418540329
0,694514271790025
0,697375210413397
0,685468090244721
0,67855714738659
0,67608303434205
0,676907104036725
0,688917419452574
0,688378883954224
0,678151115629009
0,658642591722902
0,658606843000842
0,677831535865037
0,66665153647159
0,639065455246702
0,6384677648274
0,627582503706542
0,622682142335093
0,617063392912864
0,601979420191612
0,626444920160552
0,589397990129558
0,568248865486217
0,576516498624274
0,572477643196465
0,563563616569197
0,548027245491355
0,544797946868809
0,54342215182698
0,531268444753928
0,522219287410381
0,51618906273604
0,508997883467271
0,505626543485243
0,499038140183974
0,482567487434547
0,470129220036756
0,470326994411426
0,460447811084909
0,460668412698399
0,458339483074324
0,442169067380828
0,436611172044509
0,435241025377171
0,42898975783194
0,42426284084805
0,414975385847187
0,416964979804245
0,409244987769181
0,400773970930506
0,396017148916354
0,391623079353064
0,388486000081306
0,38227840510258
0,377513148324001
0,372962223653206
0,363576456868078
0,365392628780566
0,361767138194943
0,357768884221685
0,347750847161909
0,350385497039326
0,344566166204733
0,356563073500138
0,355954748202901
0,334648029960922
0,334497265533537
0,332211717326407
0,330489905719432
0,328370743902863
0,333061636313822
0,32959904066651
0,320462906075635
0,315131872858541
0,314520186766035
0,311599797132426
0,307419683825507
0,307647581806308
0,303363833062141
0,306995370880825
0,307142023736062
0,316753303063498
0,304357711123554
0,314153734900722
0,296156457989495
0,291365125276817
0,286146998323693
0,291592403000434
0,285572653156797
0,282364386563194
0,287146494554401
0,286151832725609
0,285428039301702
0,279930771127417
0,278309568818845
0,270582319026725
0,271041863854845
0,281135950933523
0,271844957022822
0,269669067595879
0,274425648086546
0,268294931088047
0,27162941091104
0,27168406984422
0,263479706433041
0,259822999722151
0,258650759359027
0,26285651206508
0,271509364410842
0,265762286527809
0,260076890635641
0,257407214127849
0,25343356125547
0,252272814445937
0,25702270150758
0,255602269666371
0,252437710686326
0,2547677159061
0,254410653831196
0,24897651487885
0,247600302556053
0,256455896700139
0,247847268661742
0,257238667562495
0,247895882789616
0,242718064033853
0,242581113719243
0,245171803669165
0,24634173127478
0,243378030898154
0,239060937240554
0,242565973307493
0,238037197777965
0,236809223769479
0,237433888263727
0,240599719514167
0,238887278308755
0,237244340181387
0,232439987308406
0,232831655987937
0,233512756428367
0,233476070448371
0,231070249355025
0,229221938563436
0,23095699615572
0,230862220976579
0,231372926381765
0,230919677087666
0,226814730450255
0,23582378819571
0,22966620515427
0,227135988690008
0,225511152935125
0,228586870474547
0,227678345733961
0,236834544296441
0,225941469445679
0,23077149621364
0,226900719741512
0,227897555505659
0,227727326983782
0,223114199250102
0,226165923932878
0,224744359252417
0,222785113892824
0,227873122493681
0,227454603987678
0,222558097336042
0,224155493685922
0,22477452157489
0,224679227988205
0,225610479037401
0,225983810678317
0,229016276519229
0,226841100652504
0,22308714458362
0,221980854058697
0,222740895983894
0,226445453710989
0,227320739067949
0,223306838451676
0,226157294421753
0,226670208231868
0,225130057990705
0,224139237210779
0,229164603527544
0,224050711617813
0,223205758459123
0,224775088556829
0,224805239480491
0,233454719508208
0,231977482699965
0,226729056489755
0,221719509007462
0,223403838087975
0,224655934419033
0,222358861074182
0,225537649417584
0,224368941981069
0,222347635688801
0,230033875768099
0,224711965256552
0,224015060220551
0,225090841595075
0,224566284808345
0,223072396786857
0,223246047723209
0,224737357466822
0,226493856747989
0,224959313310183
0,222463105284775
0,223060230903968
0,222795880602481
0,226048342680048
0,226890045893702
0,222033884281973
0,223611448714019
0,222015699937005
0,223804208534116
0,224098937544391
0,226156556075389
0,223926221549337
0,220099687855283
0,222719816481457
0,221234857556086
0,226222319678092
0,225040272141978
0,223788714263785
0,225652744967691
0,218607464666435
0,226818283288894
0,230564885229775
0,229377139201236
0,223367326087403
0,2210294757329
0,226197009676454
0,225392818521951
0,225709865726446
0,220573779439123
0,222991043917025
0,223807121780519
0,223528875437253
0,225621543240483
0,22321863237271
0,226868547303792
0,220986898144826
0,220222213286741
0,223120384105806
0,223099258247584
0,222159418470897
0,222913153502683
0,22128355627668
0,224934475239841
0,224025686650663
0,223655909278636
0,22145513125566
0,221220736305421
0,220617546079657
0,227285069447084
0,225150731881117
0,220704081420683
0,22257866169497
0,221652843758253
0,221223328588935
0,221594239282207
0,223821468990521
0,221939686483522
0,223308491825083
0,220935647497534
0,220168084002039
0,221063945580648
0,219731820866763
0,218482322951181
0,223437057040443
0,219266232943758
0,219718738180594
0,220861452886809
0,222895495884808
0,221881363169731
0,219851374207384
0,223050150071677
0,223367414064237
0,221032584981456
0,218447284614359
0,220189109096359
0,220429392599857
0,22122362157153
0,222551172586372
0,219486403759089
0,223887504772201
0,221326345211929
0,222989389190007
0,220188433849886
0,220335155485547
0,219458396473387
0,22155104407091
0,215984444357547
0,220180189769381
0,219756428638188
0,220892971984775
0,217920400809886
0,215937132621869
0,216694436960355
0,218930430829942
0,217492048512365
0,217149381851897
0,213062376963811
0,218088105746577
0,219561507505676
0,217002770389048
0,216814225761092
0,213967351226122
0,217423792575055
0,216942744315048
0,217066606642893
0,218873387464731
0,21346724852178
0,219812043972488
0,220241505404434
0,217432117078892
0,217142538354203
0,219241664060861
0,216908332159907
0,219364186287968
0,216967023871877
0,214749617103285
0,21393583171169
0,217121878731313
0,216925409427824
0,216100081172266
0,215113861005149
0,216298538075311
0,215498328474271
0,214220207659126
0,212964958845311
0,214058366623097
0,21485196836894
0,21470270495621
0,213161606374757
0,215231333086962
0,21581356201884
0,216826291215289
0,216749441150718
0,213551615197773
0,218291613797195
0,214922875520799
0,214600869783021
0,217161078452731
0,212268424322382
0,216462780586061
0,215028533186628
0,214848182361506
0,21467746151744
0,214258557650637
0,217580344251611
0,215462930978982
0,212584564015508
0,21308201936901
0,213524235058901
0,214120595795401
0,211160215781483
0,214123837155784
0,211551435924808
0,210971843066538
0,211396743806471
0,213618520180906
0,212979129782427
0,213208546795999
0,210162178087306
0,212901868783802
0,216189255077543
0,211017784918761
0,213216225467655
0,209182085376495
0,211937166056665
0,213089856409094
0,212744811343137
0,214667603309181
0,211330709832971
0,211710389492714
0,210375845635489
0,211456842007668
0,212127165476047
0,213911514714998
0,213364048771816
0,21352739892407
0,208242930981307
0,212978290716617
0,21237922822734
0,211804553662375
0,211278174693034
0,212275777441273
0,211733558988747
0,212592718314138
0,213805607840083
0,213767210146065
0,211760984208758
0,2116258829009
0,21361435040293
0,212582273669287
0,210742572752776
0,211692408913319
0,211992851570552
0,211967345292012
0,213832216567705
0,211884779331986
0,211459634073277
0,212744626250039
0,213089965711301
0,214446198384482
0,211926326301087
0,212016048056499
0,213121065544106
0,212950492863752
0,210752541617308
0,211058044115471
0,212566952575978
0,213198792648452
0,211739529125778
0,213085759154152
0,210726768356188
0,212276597974858
0,213203638163876
0,211244387088242
0,211355934875191
0,210687932256986
0,209742982535466
0,208991116833606
0,209601215674906
0,209918020537049
0,212992426956665
0,211672510675779
0,210434240819837
0,210339094247478
0,211255692087817
0,206375589224332
0,209352371725854
0,210249569977701
0,209956858914913
0,208223737099244
0,21072140946558
0,21012597464458
0,211436284067123
0,209051820004758
0,210158956990836
0,208144289328682
0,209626039751307
0,207414573510333
0,209936724323889
0,207303275052992
0,207860289937312
0,207278822589416
0,207837790197402
0,206480613856181
0,205693398386322
0,20646833261435
0,206834142835645
0,208948076396628
0,207725322823079
0,20722329158017
0,207307944481009
0,205090353009976
0,205814459478215
0,20694619716952
0,206099297817264
0,204323451925681
0,205739387015539
0,207480781773739
0,206132301923096
0,207388937035063
0,203430363195001
0,206360396337978
0,205166330757166
0,204102039006081
0,206955485997603
0,203560778063596
0,206606783048439
0,204987461188015
0,205930233867737
0,203823848084793
0,203839990567856
0,203174961596083
0,204265816690618
0,205752234311907
0,205388883564458
0,203944857668686
0,204456769046011
0,204759485703729
0,20566997191421
0,205519620682974
0,204481273526956
0,206227307824259
0,207279249377675
0,208029746013138
0,209096613586219
0,209059817022144
0,209151318392542
0,210808312636995
0,210587946262463
0,216023332138519
0,21334512128063
0,214644628584153
0,217191778532108
0,217433938896986
0,2165678037277
0,220053092736441
0,219484653451035
0,223725139394175
0,224106234204846
0,22458106775671
0,22605911532165
0,22713019461226
0,224181629559603
0,227832287874937
0,22789466275065
0,224820233126684
0,225733310061627
0,225531396068951
0,223939682238273
0,225406205132392
0,227961647110848
0,224792756281627
0,227180612864756
0,224843586096648
0,224187412976227
0,225971952445568
0,224486778039823
0,224198210271036
0,223538888829217
0,223672994982806
0,225167462241748
0,221020488331305
0,224173917173571
0,223028910008442
0,223413773342041
0,22409953158537
0,224372481406075
0,224789698633957
0,224974833207646
0,224919439833313
0,226033377330857
0,228372046248448
0,227997824478438
0,22896904597688
0,228667746679176
0,230507513199472
0,234475538476395
0,233360399548628
0,234657744408088
0,233267301240669
0,23745993740706
0,238028088752414
0,238245632785041
0,240697655616537
0,239255934129336
0,240832449730082
0,2402690837458
0,236727379190279
0,236723521913539
0,236822374995349
0,236694254563031
0,23831101858309
0,237003563107381
0,235509975893212
0,233279124875915
0,236969316722154
0,237129133389584
0,237675091172274
0,234495194351443
0,238542292733262
0,241002952133053
0,239538540909164
0,238925077567937
0,245033760803307
0,242711479437048
0,245984510620524
0,2443729976526
0,24735173362153
0,249903090259773
0,250377505838525
0,252252299228382
0,253648729048366
0,254648378055977
0,25626434952877
0,25161662274414
0,254478879789374
0,255796205808454
0,261107263479781
0,259867540112283
0,262657471960253
0,264873273162082
0,26572425549278
0,269228554356405
0,27109530351401
0,272363125804127
0,273557402862009
0,27558478083172
0,276300766190551
0,277071001340181
0,278058930827936
0,280154321435465
0,277838477591012
0,280446779830331
0,281875201133539
0,281386087337168
0,278668117773815
0,277567078689353
0,279439056328247
0,273973414602138
0,272437291803531
0,271158800355559
0,26907126155922
0,269757624536114
0,266029823755084
0,265829889019336
0,265849818615732
0,268518805014036
0,26689774405213
0,267058711473915
0,266926991032953
0,265474683901462
0,270184270541433
0,268006081786721
0,268031148236935
0,269057740221612
0,270543680980088
0,271722046867234
0,27016999430968
0,273222541004264
0,275143660182222
0,277430180380253
0,275330934455167
0,275796836958335
0,278208593059362
0,274283556798967
0,27613512995784
0,275047556566352
0,278532959287178
0,279466576221711
0,278645722953437
0,281539486575247
0,279635547132174
0,277462361777562
0,279521337091814
0,276385851058172
0,277553886131858
0,275687045568095
0,276144463138068
0,279162760534529
0,275420835541427
0,27392420720836
0,276067387887781
0,274084720349496
0,272573151121606
0,273108184730761
0,271218031505269
0,273679756604786
0,270494301289899
0,271721879281959
0,269061846988515
0,269491050690879
0,267689455425309
0,264670777955132
0,262952437626665
0,262052475925404
0,260570367166755
0,253100733904587
0,254553034571317
0,25368391988567
0,252138878366336
0,251885842066525
0,248606589651037
0,251996943820514
0,249225603815402
0,246965153133499
0,248669471813588
0,248727532420596
0,248089065339465
0,250231927686556
0,248332823902072
0,250524222157824
0,251389078675022
0,254193504669733
0,254702581645443
0,253957026745614
0,255610478650363
0,255405655935269
0,255190363715725
0,252781484607564
0,254750612795849
0,25461322424265
0,256706455094497
0,255877986479246
0,256923268898126
0,258848677728104
0,254855720446343
0,2527571809581
0,254346453195746
0,259048200933086
0,258177308356925
0,253083268689161
0,256699898378804
0,254796752500491
0,25663449227685
0,25358763583952
0,257006990267354
0,255146217606414
0,256611374583153
0,259185071115836
0,256403688135159
0,258065095035616
0,256802203294348
0,258203099571452
0,255320424345764
0,258195860283045
0,261557527711207
0,260090848501188
0,256742733074243
0,264394329404166
0,264230818619233
0,264968370673884
0,262781492825727
0,264954121486524
0,269248663730222
0,267220125809664
0,26936741306406
0,269494056598301
0,270169083029171
0,269931104287136
0,272223616804437
0,272423549710527
0,276327812426049
0,276733720981437
0,272216797508751
0,277004266593116
0,277561814568477
0,283406187179781
0,279074007782213
0,284614115653207
0,282150517954562
0,285574278187396
0,290779253408198
0,290694266867743
0,28952911539774
0,293877204657002
0,29177983593752
0,292710082158665
0,299345020548668
0,300476160281799
0,297770422740195
0,29885203796326
0,297238398415148
0,299486453218216
0,304891315229372
0,30703116926063
0,310414041816984
0,310218857066089
0,315898630438184
0,312966299573121
0,316958550232565
0,322417735899457
0,322456915823163
0,320420093979736
0,322769188405604
0,325387994821152
0,32571085169908
0,329145934847309
0,327638077485227
0,334031707765934
0,339082269172018
0,339448295045052
0,339203272648529
0,343125971263258
0,343418847418159
0,343068218923198
0,342658271332589
0,348145019319141
0,351217540587975
0,36013441598852
0,357034818897135
0,354221676365876
0,363777081288022
0,366710390620323
0,368963955892612
0,362155828676216
0,368434933647056
0,36770513755333
0,375819093219808
0,375775684529445
0,378567970991932
0,379868069985979
0,386349421646481
0,394245400143436
0,392499825539467
0,390696548193653
0,396495544984385
0,403641334349052
0,403370967217703
0,402962627207762
0,405055328505941
0,410136422363134
0,413551691654635
0,421037931212019
0,426168849629153
0,424889419768827
0,424653789424757
0,429734424054357
0,426853818047675
0,43900916317916
0,440150066550526
0,438124666869279
0,439363165709486
0,446061525604864
0,449016826776812
0,454530538753183
0,459654424279921
0,465175006586241
0,466967598386074
0,465932917514569
0,465674010293734
0,470589050297712
0,472354761869112
0,47482736761109
0,479988680651047
0,48573042916561
0,476695692792289
0,484676531698821
0,489732806322968
0,491063881581817
0,501751444886715
0,496568951666574
0,501073524880546
0,524517903565278
0,51021069620464
0,511023367193875
0,526328504412154
0,530995571836695
0,521798372836235
0,539664830115203
0,54119520531853
0,543255722078915
0,535466266840287
0,547061451754645
0,542890525055445
0,547795220534112
0,560676763489599
0,539123510932946
0,556045644719969
0,564442686295153
0,563232150548089
0,573198460370413
0,571715962473127
0,587729933041562
0,574983915928901
0,577285635111458
0,593143790731326
0,599414710931819
0,598267760706358
0,606710079630641
0,608438544401922
0,624420366104254
0,621990484410621
0,620604201693962
0,603816401766201
0,624584591096669
0,642425555113088
0,635869324569409
0,634113177348917
0,634958641693298
0,643147802094432
0,651429920060771
0,641560963902679
0,66609225833984
0,665155227723485
0,663668967431442
0,655758689683166
0,658795122073081
0,647977587329339
0,685267169309405
0,68016681701474
0,688298000977999
0,686186846838936
0,675836101031309
0,694546345438954
0,705824695748656
0,671228950501346
0,699413197888349
0,702384012462831
0,723888688211196
0,721803739865641
0,707629888881745
0,718435985084152
0,737762266828731
0,747928320059344
0,751478797481196
0,718730595378808
0,719825197865791
0,721896348050577
0,780787865253317
0,754588024478681
0,757504021097675
0,782207013305746
0,771891657730667
0,776498689894047
0,799165096749251
0,761851159853521
0,803012024668993
0,770182656323929
0,777809204510998
0,814925323557964
0,837606354842173
0,801729149105282
0,855837492941551
0,792455356416243
0,801420344663023
0,814670024787677
0,81682502988713
0,845145889002532
0,856816541534377
0,820741971943094
0,851117779877533
0,85581046912014
0,855108711767029
0,812930300031473
0,883187241211545
0,854982521158182
0,837979707548259
0,816401978780111
0,926250435921444
0,898712471314281
0,864033473947053
0,941645355573653
0,916885332689175
0,910499291618068
0,895822499102732
0,869342993522443
0,895094811686084
0,919470031117796
1,00939758269172
0,928387748872956
0,959678363373999
0,98679735482914
0,956937873368157
0,936076037684782
0,901964487484503
0,94786943958488
1,00286529625516
0,930449481327719
0,96956270071974
0,945514600316769
0,950154858498504
0,914571141219772
0,987877281974164
0,922866643429924
0,896404865161432
0,940826464197987
0,927843521588491
0,979703753709818
1,06436162756297
1,0307253651858
1,00653948566859
0,94663237489216
1,04516759801653
1,15784191408512
1,07440407561577
0,9970624662366
0,995995252681999
0,978176085373582
1,03516106417515
1,01756696860394
1,28723623176005
1,06915946720753
1,07106600443003
1,01446049377327
0,966207231372131
0,950702022896983
1,06074817697107
1,08944172901363
1,0659689664446
1,11054687291577
1,16840407739135
1,03040478085603
1,03400741654272
1,0155195729976
1,02486585930836
1,1090595441308
1,26543482642466
0,994681726441502
1,11561562769988
1,16485228474639
0,936598207992274
0,973581193057335
1,10594173899433
1,11059063127363
1,04817577154263
1,08386500211299
1,22745891537007
1,11438671164972
1,18808202806123
1,15584388104414
1,21476184374619
1,0859615966162
1,03552254988521
1,10488902845804
1,1706147576049
1,06738620780526
1,17234013036315
1,38086035141031
1,41020844344855
1,15035453368051
1,22463560857306
1,2192345871386
1,18700542218176
1,28420859959202
1,42227710703941
0,918819997601916
1,20925393651294
1,18756672468436
0,902243211288252
1,07155203723206
1,31512822842343
1,15308134483157
1,25908883886487
1,05130795136214
0,966017432203037
1,10307522449328
1,46063341937062
0,93915787054016
1,41253041313584
1,23628927999461
1,85193800884559
1,16621149305894
1,38565567175731
0,943014913747503
1,00590504063572
1,22093625524912
5
1,3491636430471
1,31886403410697
1,21171628840569
1,63546672002764
1,22656861555852
1,0951632003486
1,11464202764014
5
1,02226035619144
1,18753654109847
1,33214730271228
5
1,09395740006316
1,00725985247428
1,58251887196791
5
1,26946886433033
0,568277325049237
0,615976128835521
5
5
