3596
4000,36533379555
650,420452594757
1
2
2
0,0198326859452578
0,00887975379338665
0,013665908631062
0,01633975808602
0,020978953824701
0,00807506792921973
0,0110112767458003
0,0215003279249334
0,0154274989048059
0,00979774055471716
0,0165904153882815
0,0127132140013657
0,0141349608896224
0,00545249716109628
0,00988775021055822
0,0152107717011334
0,0161263608432155
0,00485312316071809
0,0133821053316008
0,0110096312748565
0,00707922117819736
0,0159172650272942
0,0188532357474401
0,0108243214500964
0,0138666819877939
0,0139996049019123
0,0157084661175049
0,0157465251653681
0,022299626889504
0,0135878893935057
0,0212139903521805
0,0164552632548998
0,00526892665404677
0,00594792424981736
0,0170601881046307
0,0161748391125733
0,0177851320737183
0,0079913231668813
0,0106634702661084
0,0112612158311253
0,0266219153247765
0,0178335057984264
0,0123000779087224
0,0135637452429797
0,0148392638695968
0,0102054851326946
0,0152872932760046
0,0139056582141251
0,0207116693266249
0,0155396896493527
0,0127611709128267
0,0116900985408895
0,0138880604294559
0,00951368710428284
0,0074424756262756
0,00614234581974194
0,0153207327881132
0,0142924459582375
0,01188491340284
0,0179770813554333
0,0163900243797866
0,0137698657158433
0,0167055913816797
0,00671357377040924
0,0116593518780618
0,0187535028331681
0,0112256095596025
0,0119989564706878
0,0168484454127769
0,016499217544351
0,0131086409689555
0,0111771236369813
0,0208725671378673
0,0136996306768988
0,020624911162289
0,00784127742122376
0,0129971330008757
0,0184865384326801
0,0147828392364701
0,00898125238138284
0,0103939203727019
0,0144726589826906
0,0154230595993976
0,0126140485843229
0,0155674992241556
0,0126401891724333
0,0210508565820325
0,0148637987686937
0,0165440662470907
0,01273643883127
0,0195451195532801
0,017651330515577
0,0173191520805885
0,0111322160609718
0,0178670926121335
0,0126907476393807
0,0137928706457114
0,00735404299364707
0,0168349120003934
0,00662749412940116
0,0147714515650179
0,0129087603651385
0,0242479936719842
0,0106753384840842
0,0111586553623044
0,0214619401613357
0,0170505663423913
0,0119828821853732
0,0126938334080952
0,0151215209296064
0,0113161526626954
0,00883816243649155
0,0173217121226082
0,0116038682332428
0,0256182071310059
0,0169713525879671
0,021462236761346
0,0189012403819837
0,0160037549046692
0,0137530548690431
0,0216809726904315
0,00518909103034671
0,0176044331552322
0,0156533294372168
0,0159236514115746
0,00542270044441927
0,0120230524326682
0,0137575573101352
0,0216774496628288
0,00758424838964304
0,0203052567816999
0,00927606052888318
0,0188361767677429
0,00577601096156506
0,0137745595001784
0,0118289603674814
0,0138587739797992
0,0162494369492483
0,0248176438595428
0,0221746486494236
0,0171141663969524
0,0114097845988073
0,0157450315050341
0,0112873335842689
0,0203334208016382
0,0199928980731413
0,015569756241752
0,00409044109171983
0,0189669705198904
0,0150383583325235
0,0148284572137356
0,0135555279190188
0,0219302113914297
0,00686066190536173
0,0164299776458761
-0,0161251153375127
0,0191851068841003
0,0137689336949431
0,0262674416770698
0,0110648257364382
0,0157667311267558
0,0134250759700914
0,0155527996891302
0,0220932502571217
0,016271775550268
0,0146850660331554
0,0138779047117306
0,0147346809929745
0,022008269631488
0,0230404465736971
0,0184162785257051
0,0271892830572111
0,0188901338837295
0,0203389068848413
0,0202447472952072
0,00133782355976056
0,0221958699847082
0,0113747931514555
0,01178949590909
0,00911040090728732
0,0178470881664427
0,0155583265255792
0,0205880166401695
0,017487590051904
0,0175183108077424
0,0120810611911749
0,0202520064259565
0,017213948480571
0,0226270784704977
0,0180783928279776
0,0287625604908943
0,0174616445112251
0,0212635113937325
0,0142200942031193
0,023314892172766
0,0255557603038985
0,0189468983783822
0,0248777694956667
0,0160407572252999
0,0131237103815265
0,0183219238942409
0,0127598447679978
0,0141098313007828
0,00631952389152568
0,0197871816208058
0,0202945576277263
0,0143424466588883
0,0171811180205799
0,0130440484387557
0,0196157623470384
0,0231462693109316
0,0118865261079474
0,0094871765746773
0,0359310237274173
0,0190239272272167
0,0199793419822106
0,0219096972102723
0,00978032405417192
0,0226911666979914
0,0213131928800524
0,0208461709528033
0,0193241685625758
0,0207957710687569
0,0218512475135362
0,0224738475509297
0,0231061577830833
0,0203291352711557
0,0231577269156215
0,0250672946710208
0,0211982804094692
0,0178720733703557
0,0192760731219071
0,0249322043314752
0,0164542731074716
0,0244622637582294
0,0271602394468959
0,0268232057074217
0,0263557325317256
0,0234310654061407
0,0250503949103495
0,0305375206269453
0,0295424106438725
0,0231180737027822
0,0231106004814816
0,0307482728756864
0,0234662426400921
0,0222675987825558
0,0146377407339283
0,0223099401326685
0,025970473018963
0,0161978107709673
0,0317874083627262
0,0255897657455143
0,0238687604340303
0,0262868141147852
0,0224223907502053
0,027917993215474
0,0243247226475786
0,0253513675179449
0,0296419410503006
0,0263359187807058
0,0298331962951143
0,028255237050518
0,0274934452081079
0,0327205427589938
0,0206059252669901
0,0295488669605492
0,0362430982802087
0,0362352412810975
0,0260545838813351
0,0226920251771959
0,0359421719629452
0,027491981476206
0,022856285735372
0,0267765989199759
0,0288779735041377
0,0319776723648496
0,0286837581242596
0,0338199794164945
0,0280403010841961
0,0389690819243138
0,0194676994710345
0,0310578798871968
0,0494414633246281
0,0345407996956967
0,0369953981987605
0,0271229889826669
0,0357421651918683
0,0284591460942059
0,034016363185354
0,0368507591214534
0,0392003733402858
0,0345281492785898
0,0363387086181504
0,0336699321945562
0,0447599182139834
0,0390269379717715
0,0406869726790995
0,0351571372463908
0,043690494946251
0,0366721027794494
0,0491790008618652
0,0452710036074639
0,0455233029937594
0,043905963438618
0,042034742759936
0,0469270268172792
0,0511220459231741
0,0524135094045084
0,0545211325296374
0,052273020848348
0,0505978705629272
0,0547316322014801
0,0552042414407003
0,0544254648752585
0,0543416539513507
0,0565239968679745
0,0577439992008536
0,0634458242902699
0,0627336199110559
0,0628383493320889
0,0651210188663824
0,0635019453270518
0,0639664549179971
0,0685064113432796
0,0720736814944219
0,0829661272541304
0,0711888899129642
0,0750616394140806
0,0792496433486607
0,0769152281371996
0,0766663077301504
0,0960573838279676
0,0882612932663119
0,0828604178700633
0,0908192517233964
0,0938062505424895
0,101159898613967
0,0988931135815288
0,0999665163484868
0,10800403607935
0,105288360699024
0,112394385850868
0,118428329277561
0,112615776635583
0,125711037147168
0,135074829795449
0,129415311708515
0,119763841068341
0,128669301824336
0,132873557089442
0,152361088746084
0,142765211039269
0,161841878001619
0,14743837096573
0,153082152400808
0,154457474707729
0,152159250578803
0,166215300825937
0,174606624838412
0,179772985388185
0,177272233278128
0,186315046866556
0,187055420823001
0,193294287451409
0,188852476102769
0,200044800714474
0,204418813364162
0,210906288082221
0,218414715207908
0,215817593752388
0,223962001303604
0,229562462447235
0,234298907722288
0,243230423044705
0,253464146766167
0,252911861477719
0,248907247081819
0,235210194959539
0,255225892172483
0,246597649983885
0,270352569494188
0,268814968576098
0,273357363445301
0,276016665043281
0,281723816607724
0,281323675485991
0,28421446906279
0,286205820851907
0,297604929897299
0,286562636463598
0,319807176042116
0,307473079064699
0,306572881068537
0,300043537389727
0,327642204355116
0,339317214497339
0,335483095624662
0,302918801055817
0,315657323257882
0,31451906446274
0,338434633406148
0,354045024808312
0,364451846027852
0,336127399735811
0,3546064169414
0,350100423075778
0,38604956906631
0,358759013574812
0,368842378069504
0,351964596994109
0,377411389507966
0,369896327212513
0,397112681561133
0,37507511640245
0,39807626785614
0,380019515449535
0,401153051065419
0,37595978279043
0,415058672782118
0,390171878019588
0,407691043753474
0,408357918007445
0,40189837686384
0,394322846495638
0,416973012914049
0,420714416041309
0,429770070326249
0,403773823622801
0,420148109702448
0,442937239103611
0,443254993947079
0,436409050636122
0,464409968824418
0,44305579924644
0,461005870367218
0,44533278199097
0,465370428857023
0,44438625609733
0,471116978832836
0,433176991282169
0,501853078427596
0,459877109940019
0,487486829561019
0,488277311815736
0,464173367992695
0,480439072016589
0,505862245537637
0,491798474329225
0,506247334768089
0,505665660550565
0,520486492828971
0,495907418387118
0,503447076608178
0,488908434419676
0,539475695182105
0,512776277780293
0,538283441126403
0,500216566278296
0,552403857320042
0,527338278302806
0,563612967910969
0,538680571040507
0,596905851460981
0,56270601630585
0,582268966462761
0,529015039920301
0,550721990496727
0,55617047754485
0,582888100851895
0,559513493702284
0,60738634316591
0,590591945885502
0,58909057226461
0,570353233042614
0,602541517508783
0,584946355737802
0,638022638825241
0,59307168975971
0,645802479078852
0,602324489592372
0,619930142250098
0,630989646593592
0,629547637830899
0,637688314027975
0,658078342099901
0,603074247512632
0,627817438559601
0,66930758572174
0,656751514728484
0,653509972970459
0,672477804256652
0,6265961046422
0,704631277216771
0,675553118183271
0,683023081557259
0,622351776672892
0,70538762463005
0,654029330413663
0,69696833867342
0,667108719842819
0,717700952513081
0,707445905643718
0,738339571874029
0,670237796564568
0,70527596156856
0,705336520738534
0,783608485190564
0,704627282733546
0,730788292433253
0,706463318512345
0,774510566297484
0,709391036648341
0,776743894214299
0,719995691663025
0,761317551123868
0,775072548557588
0,761884007048776
0,770809338097991
0,767373653220339
0,742531996779896
0,825796926683228
0,775461468269401
0,831342377149013
0,740692488807396
0,784363864794323
0,774833764741408
0,836998163315197
0,765022150664216
0,857559962132683
0,747755764813383
0,905347573250943
0,796219782992009
0,849101766325881
0,784225725534859
0,8820784856652
0,751941859580892
0,822217704970639
0,815401107915526
0,887856174623421
0,796336367270592
0,946025601649666
0,866566385025723
0,92027075362293
0,850728204036496
0,935795015826372
0,79623007984862
0,947044597502449
0,856164448121798
0,933355924127023
0,880629034158906
0,973366280796913
0,893405255871482
0,985809524883816
0,86960117531192
0,968567649570912
0,851888739739972
0,967911780191507
0,883401974983448
0,993349686388569
0,898742071885845
0,994740749200359
0,930570878189926
0,992752676024344
0,89977563222163
0,979757683414299
0,914808884708266
0,985741294460015
0,889798456117104
1,02441295746719
0,949450234590383
1,08551579633827
0,970093871449181
1,00879408587534
0,944816017053313
1,0382913477505
0,982126801970275
1,05133286824872
0,9118199210446
1,10954188663767
1,04614919399772
1,146654895666
1,04353124757137
1,05457431667445
0,963524897785406
1,1284068481026
0,98647054201515
1,20484905760997
1,00716333002047
1,1148306053945
1,00693915674069
1,16550374352337
1,03502294245142
1,07429806266539
0,966032143078548
1,20560640112762
1,08279317702059
1,24160120829787
0,984153744334962
1,19405634858621
1,06232092973865
1,18500470615176
1,05320962736867
1,14609654734587
1,05137000804987
1,22221468247667
1,00545207436664
1,24505417295366
1,12250296501932
1,28851931580248
1,0603906756583
1,19312643474059
1,12673128433544
1,27281893423628
1,25096165940124
1,25560290677197
1,08318013802307
1,22625127593758
1,2338513993684
1,23037462676451
1,13861035883229
1,26878237058085
1,09160548364273
1,30852826882236
1,24859218917084
1,2242237707504
1,14960661460593
1,31899714557987
1,1209691368591
1,32074178054366
1,1091835008664
1,31734933864109
1,16770346641566
1,23407337749497
1,22755267783536
1,29144716645494
1,17674460279293
1,49495356398525
1,18384389143987
1,34307422799368
1,24396246927631
1,38296597206864
1,19561390014265
1,35692280883043
1,20032639530441
1,42896030427002
1,33173244084757
1,40761891279379
1,16433159237768
1,33958861895614
1,14724232318441
1,50000799928247
1,21421964396217
1,42756120466429
1,27425578681992
1,38972451154723
1,19785365832165
1,47787944984273
1,13253597003821
1,43658409405507
1,26128892509368
1,49269997646702
1,28445467775147
1,43243426263536
1,30872110487075
1,38278767390809
1,22709908660456
1,36604754856952
1,2241015010387
1,44164804240415
1,30228722973784
1,4458153806164
1,28724341341249
1,40029705513582
1,1861216382528
1,37746475530848
1,22860684734838
1,43791298641167
1,37296339921647
1,30656199925336
1,39489060286383
1,47604366114654
1,25241335965075
1,58719975576414
1,22591938419753
1,67688632637253
1,39905176154038
1,39462138598182
1,26523608323975
1,31949459888287
1,26080618028788
1,50329342603383
1,19822209397272
1,58033181607913
1,36503112725558
1,31020397102988
1,31030730879929
1,58010341667847
1,33498069886777
1,64540498123465
1,40792595726256
1,69633386022672
1,32784193216922
1,37909850758111
1,35395522168291
1,48345653320031
1,28875520686315
1,40689582182352
1,35942296147316
1,5295287649325
1,30952424464821
1,38301322285653
1,30292263780631
1,61046899228865
1,30936656751036
1,54826981685708
1,32556851364594
1,42483801466271
1,39239643039871
1,44699490071964
1,40274479194451
1,42862943634037
1,29290617305263
1,54854981024233
1,34338190260483
1,47331095442292
1,25234510488606
1,47510456364366
1,32274497146339
1,44176611461987
1,29906768353274
1,32490740184004
1,33917561074523
1,37962931048656
1,22802599441026
1,56987830126023
1,32905478733643
1,38621293236088
1,25486528661187
1,49658922605544
1,27234357377046
1,39940866187252
1,39012522806757
1,61776040732136
1,30150952932067
1,52782568845322
1,43766975997961
1,35743536483295
1,38814512197111
1,38609391125391
1,32856384620621
1,45205511883412
1,30718645664298
1,43083224520792
1,35481653487279
1,37440312783948
1,21802134232031
1,51092144007136
1,27472954941405
1,48837251365957
1,32581061593613
1,48139943961773
1,39886149798814
1,47016559864713
1,25019220181369
1,54421397227332
1,32612499516037
1,47721667181335
1,38925707941245
1,42252349910351
1,22067695635099
1,46048929792074
1,32601428361759
1,35436639366249
1,3540997864034
1,44894154332018
1,36527790544776
1,38604726826482
1,3401982350031
1,43638876315213
1,44731267707101
1,44681515487616
1,24551201484213
1,37558452195755
1,315905675049
1,31519612331451
1,35469226568238
1,39938045602834
1,31583833570485
1,40227026047978
1,36018712966957
1,46851559875945
1,3837409842879
1,41009389714761
1,26268598982191
1,39836183314788
1,28016111064314
1,3113273760188
1,35178443379275
1,42303027632047
1,29705314548146
1,53618319635038
1,26906169661179
1,39591735413818
1,31958365640554
1,40942367995015
1,38380359082683
1,43833117204679
1,2929692837812
1,33469773421884
1,22756233591939
1,36655905181431
1,29318609292825
1,32068677256688
1,27860580221707
1,51909496280632
1,28965373508752
1,40950184275099
1,27593840619631
1,34630087143161
1,26912388714857
1,44778226570695
1,27118593783685
1,43942395425088
1,31057247093315
1,34342796337493
1,30441311827383
1,39765385392081
1,25216067594858
1,34076333676415
1,32802966529302
1,43747188333031
1,26779232356163
1,43769302541715
1,27052614155066
1,30178673480224
1,35456662056727
1,33485010923763
1,2472666246214
1,35966588962297
1,25840484466534
1,33231743670023
1,27104005508039
1,37024181116288
1,22770418827928
1,31771784102064
1,17448657801446
1,35847689758962
1,26039621844418
1,26394720687701
1,26129723608335
1,37619652486508
1,22520495506776
1,30869947474885
1,23254718996037
1,28691393793283
1,1722914860339
1,31358853099088
1,1824951261123
1,25336787299697
1,11167912977475
1,23361910962855
1,16808659214887
1,2309863787279
1,21071768042112
1,27172602825275
1,15286012878091
1,26063500543137
1,17294093485934
1,2240397258214
1,20735893877703
1,19230621592109
1,16813023571858
1,21789743035722
1,17805186720731
1,20715604435872
1,11587971370312
1,14421204864953
1,09316810141782
1,1694243386945
1,1157322451818
1,16074324270194
1,11113246002927
1,13112146402497
1,11214921050399
1,16848185825308
1,04566524670785
1,11849053497776
1,09015491967647
1,1369524587979
1,03886071381848
1,10982438102409
1,06147079878692
1,09652988898635
1,04012572579907
1,05366744294369
1,05215802209172
1,06219772760416
1,03314756131819
1,06459542809813
1,00057021642227
1,02727711665139
1,00851193893467
1,09595718466446
1,02938598993749
0,995970175491165
0,960033987540626
0,969279765024512
0,964769552510428
1,02230307621905
0,937773730218808
0,971243760774025
0,977773609381723
0,972005843277971
0,935572403640792
0,947878069412791
0,914441520164232
0,927608485082176
0,922372491123015
0,908830754210949
0,914132809168385
0,92998538285696
0,887491909788386
0,897377737228503
0,88644141011572
0,902549204077847
0,882069619743294
0,913752860929353
0,86906403652055
0,888010030836583
0,851071306881818
0,864271239387462
0,861889545319761
0,851751384478047
0,833952209968276
0,875908764380687
0,831489784401825
0,832122936647573
0,831101950244597
0,801389685123474
0,814897528328704
0,822454217608324
0,768350820478416
0,79051155213147
0,791789290591004
0,796496727459982
0,770222416135134
0,768907267398965
0,752642883084433
0,776425205456779
0,760342077827923
0,767978059265684
0,760868527429891
0,749649056809597
0,721144595137404
0,735414347461549
0,731204158564104
0,752999328090486
0,719651288958233
0,718201742358418
0,71371664664847
0,715300413717769
0,700063672510753
0,683814200088099
0,676203953261918
0,706155855017091
0,66565841697868
0,695355444086818
0,657652296108659
0,672769723010266
0,658220638073279
0,656784583421383
0,656043429298204
0,655329604227586
0,642842746914006
0,650702250078071
0,626019959102049
0,64176354943891
0,615518222731379
0,625839734604304
0,614689089412478
0,615254938810066
0,604381504068904
0,609451002873383
0,604228553222635
0,608345114759268
0,598075766523133
0,598478220072054
0,571931892434336
0,588101062099296
0,569053713666144
0,586974318378372
0,571773550484407
0,562446726184516
0,557004370038762
0,568735130574785
0,556800753391942
0,558328683653731
0,538827407081618
0,550584258969556
0,540837325456474
0,538202632997574
0,529306055769148
0,543437290585004
0,521025656276801
0,526571948170104
0,518696000954715
0,520888011139575
0,507908626898741
0,512454006760483
0,507311843898211
0,51224074427501
0,49673458800298
0,487247988574024
0,480537929954885
0,495786427782625
0,477318760737571
0,483054390382118
0,472340928797995
0,469169511083129
0,463166341113997
0,465690991696314
0,456492419452383
0,457309609158304
0,460935670127098
0,458626916508032
0,439126810193542
0,448855579111054
0,443626098237304
0,435162929735893
0,436151182400326
0,4389617176292
0,43308219975644
0,429591738309663
0,423199101935742
0,418252273556344
0,413007192562691
0,418206252256315
0,413043965920868
0,413637988762414
0,402954340143367
0,403506213007386
0,403314437953107
0,394632750129713
0,386941020712734
0,39220904215645
0,389158616072742
0,391976125791023
0,382582329404215
0,385830110211049
0,381879234861078
0,377154902984457
0,372027878931536
0,374240847723008
0,367890416910356
0,361312382667167
0,356184408127906
0,354631019726485
0,354403673236633
0,352637966549918
0,346939933542132
0,356052697079496
0,348097856366651
0,345863567768816
0,337365277985224
0,337849752992876
0,328256317117965
0,332844268387751
0,3213770861609
0,332971576042042
0,328061762245425
0,323311098685793
0,3177417857145
0,320435616585649
0,313136482386597
0,314922570395551
0,310251739559131
0,315163880460501
0,312995966579043
0,309639824625903
0,301182673068911
0,301488149684924
0,291086573811296
0,299985425831785
0,297156767188129
0,295078386626559
0,291087797343438
0,287005465726536
0,281005191304651
0,290375343078008
0,284062987238447
0,279867780393295
0,276748846780703
0,278298952387438
0,267950575819939
0,270530368596074
0,27349422010924
0,273652489356247
0,269169124140442
0,269546939398409
0,261551327110341
0,266423202850976
0,260423497015674
0,261977955951116
0,264945463837416
0,256273768259893
0,24901059421182
0,252769533834905
0,250323070760139
0,250750687309596
0,244625974259741
0,249322422239111
0,242855164319911
0,245245331483707
0,242637146599802
0,240355698429954
0,231003779449405
0,229625288777784
0,23072718302563
0,230066020016445
0,230961964633514
0,233170212237278
0,226434337686859
0,22779681873033
0,228431094281452
0,228884997064254
0,221598957685652
0,223180136010247
0,220429507538116
0,221944918781519
0,221496990845369
0,217750701875218
0,215411262378799
0,220428554601206
0,211920186486198
0,212687967327432
0,208630403181877
0,210270202596801
0,208887496003345
0,210192231746583
0,207804565875552
0,205602728017878
0,203243994757279
0,202701751015989
0,197664677165163
0,20165288930366
0,197394964807283
0,196649158677151
0,193202298649636
0,19569732686689
0,193447493561889
0,198675339162418
0,190646953025907
0,188942250698986
0,188171356723395
0,18514361216211
0,183529061883906
0,186068862949615
0,183052517554994
0,184686864210807
0,179893456994434
0,182455521640057
0,179596937597737
0,178948257739441
0,178333271627361
0,171120149818452
0,173669517020559
0,17357795171604
0,173361114211623
0,173366350820191
0,169121126918758
0,177877316268063
0,168992742663439
0,167710508406437
0,164023446705839
0,167376212833632
0,165586643253762
0,162692326057262
0,161009221368952
0,159341078157447
0,158439911367001
0,160553911032801
0,155699493502252
0,158200544666501
0,156682702572816
0,159203280855648
0,154653668243983
0,152135113866932
0,153545576011048
0,156673359956616
0,148713267216382
0,15329011415043
0,151136381612157
0,149124046793341
0,150124336640747
0,147875248463829
0,147638985566763
0,150823259404048
0,144652271940855
0,141866419623448
0,142965382870388
0,142758190829251
0,143197761454744
0,140817057095233
0,139252924230201
0,142206098359427
0,137095071344608
0,140904164514389
0,136997396690335
0,135415580167417
0,136934076209508
0,137003106933736
0,132630350099264
0,131863450648559
0,129591216407234
0,129572874880551
0,12951440063361
0,129888090805653
0,130505721624143
0,127571608039969
0,12369587980478
0,12685004219594
0,126488802077664
0,126158895137562
0,126878006845785
0,122356572558047
0,121189146401145
0,124461242114736
0,11798090815981
0,121078492569798
0,119396455823303
0,117304907128743
0,119305591737228
0,11886980837786
0,114467293384755
0,116696835712808
0,114662346740275
0,114120293664951
0,113674805537334
0,111286243894525
0,113335885008183
0,112216165974997
0,108757060740879
0,114251510970848
0,112297546583
0,10892095501505
0,1111139188785
0,110692547946488
0,109460986356245
0,107396463609667
0,104194486062371
0,108758996890297
0,105907343298683
0,107881410390027
0,105253857590997
0,105066928492913
0,102965490982209
0,102354506709735
0,104417746906954
0,103515654827757
0,0965447687929371
0,0962986592049471
0,0972319160479408
0,0988107444464229
0,100486916125428
0,0998869582849813
0,100653260554641
0,0982278158124145
0,0991178457533267
0,0989329226927698
0,0948151537229099
0,0953845405065939
0,0912178547932638
0,0946411084580287
0,0965039802224891
0,0918246903482702
0,0912712554698741
0,0912779715457861
0,0901841891713383
0,0932089339661588
0,0901881393021957
0,0920817949062244
0,0925352866022489
0,0927052219882557
0,0912456378664598
0,0873671504387079
0,0868399561565594
0,0875627380433127
0,0894219453182181
0,0903526223713445
0,0881856945103164
0,0879872841058323
0,0873569542009587
0,086992122706026
0,0844469283149723
0,0841008651418003
0,0845153629493097
0,0858712322802331
0,0857850024848021
0,0832712231762418
0,0827327853231869
0,0843580240134678
0,0836158499816818
0,0846830198921247
0,0817000630253124
0,0850412214117071
0,0838411287463259
0,0813505637146757
0,0790218798565599
0,0811627470240488
0,0810615363252776
0,0832076733914915
0,0830555776850407
0,0775399331084813
0,0762288730565642
0,0756906295870736
0,0779179487278807
0,0786289850230726
0,0784588614330793
0,0779070938468113
0,0766925775412117
0,0772109361432539
0,0771721571700469
0,0776718446150379
0,0762411223695539
0,0742355566639814
0,0737793132664342
0,0744158142996474
0,0756986601719055
0,0773283934922088
0,0715710355734393
0,0739772353299381
0,0758645981162506
0,0754543651235486
0,0766386460951276
0,0757629358594906
0,0751348085420894
0,0746018052864831
0,0733911615623743
0,0734851776946663
0,0716283266277596
0,0725890257477046
0,0729289324136413
0,073307899775948
0,0682684641902873
0,0698678602331507
0,0723167003918608
0,0739978210653218
0,0720074998617941
0,0702030060810649
0,0677116280323826
0,0680776881705932
0,0675448297738294
0,0705691990314606
0,0711127834157775
0,0697473202586768
0,0686082757292824
0,0692017615838291
0,0672921636340686
0,0715863596879657
0,069708477518819
0,0643961422208304
0,0666782840136568
0,0687971453708389
0,0671437415426057
0,0654676139740418
0,0667609478815197
0,0645951194467027
0,0677318371716917
0,0701706122046435
0,0675052116194575
0,0662970842771441
0,0662497934976893
0,0674954190655858
0,0659692258516372
0,0655739857196664
0,0645316174581107
0,0648036033562279
0,0652782207710783
0,0650352616998819
0,0625723594439457
0,0643205634842019
0,0689732991177766
0,0654831642546607
0,0626679590868189
0,0629372954458551
0,0609896442157007
0,063183029822459
0,0638323698251812
0,065585917070231
0,0640983554022987
0,0641348605734287
0,0640611372186139
0,0664085254225779
0,0626562556406626
0,0651337462196411
0,0635937503161938
0,0617143939362221
0,0632623705501952
0,0632167631735786
0,0610638832170358
0,0606059152326993
0,0583501643376716
0,0615021639945341
0,0632055311367724
0,0623912187894943
0,063567615558057
0,0643726528770935
0,0629760348185825
0,0595756891612424
0,0614522990820464
0,0611676495768688
0,0597254328410619
0,0613107366173953
0,0614355830599721
0,0586034874192571
0,0595503335190935
0,0587112492036344
0,0584115417166189
0,058894663163202
0,0597643912572815
0,0615362858600725
0,0579840814370272
0,0606903984332907
0,061887840589236
0,0578102186904534
0,0609829898247792
0,0595614514643083
0,0613346841577829
0,0611904900977804
0,059806063178167
0,0597824773680159
0,0575744640671546
0,0586151282930483
0,0582251182187542
0,0593262504039383
0,0567925455741752
0,0598938289625735
0,0591427498023885
0,0562398156079934
0,0584436978186697
0,0565686589263558
0,0572955260168643
0,0583073284339993
0,0578175853532198
0,0548395766025671
0,0565931939845836
0,058660556665961
0,057752540385887
0,0596886876157531
0,0609517924876889
0,0566069540044642
0,053804542778008
0,0562093969777647
0,0560107119495175
0,0564043836797055
0,0578242028993225
0,0533804904767597
0,0571483766594181
0,0583023546451545
0,0582389447441511
0,0550790793713197
0,0573222031498135
0,0568800549832274
0,0559414958659989
0,0570732825924226
0,0556931931728998
0,0537250686173817
0,0542433948480053
0,0564882436836847
0,0543903280281748
0,0546649855032203
0,0555813260816031
0,0534628555755756
0,0516514264215716
0,0558791776721598
0,0577064322824488
0,0572390461842826
0,0554570883905053
0,0530210964096438
0,0565030626663382
0,0542354036381735
0,0539096012405947
0,0557163445417619
0,055842375885231
0,0582850777968237
0,0565873816766451
0,054339387415587
0,05634858492166
0,0563414900374789
0,0538865103888554
0,0558413038381595
0,0571312928632237
0,0545931419001249
0,0553916431871823
0,0537050258862242
0,0568157642209449
0,0551720271327415
0,053030026849892
0,0543250586354118
0,0548265303902574
0,0561528589149444
0,053592573667031
0,0546626216473083
0,0547082573001032
0,0559565441033032
0,0558469142071884
0,056191686543388
0,05796763776428
0,0578338344179868
0,0567680766757145
0,0552731008961812
0,0558161540322934
0,056235770276702
0,0521313535468689
0,054587760803408
0,0528249356038706
0,0550980451704911
0,0524129844876472
0,0502766858444975
0,0542495550960103
0,05725635339409
0,0565012627436062
0,0555098061690006
0,0566540978888409
0,0539879239254989
0,0565531557991692
0,0520477023962363
0,0522258097098941
0,0553424544182054
0,0542529449989946
0,0565269292463307
0,0563348429725104
0,0563182252705882
0,0549067882269869
0,0591616569817614
0,0543890047143455
0,0550994573184655
0,0539046471548326
0,0571191125330379
0,055726094756512
0,055936531866079
0,0576691695347707
0,0564836746151259
0,0579279643795265
0,0536272950093594
0,057016803685711
0,053376863392107
0,0551524654619128
0,0555469257447851
0,05441292608132
0,0565496444323497
0,0589020172254901
0,0563628817878628
0,0554665277087186
0,0563332422612786
0,0550552061870578
0,0553360509262051
0,0578834160261518
0,0546961652527929
0,0543630314372512
0,0568406746335866
0,0534012878415212
0,0580746693402068
0,0580810051958087
0,0555822978920328
0,0557640519944792
0,0549772726361538
0,0578335204886248
0,0573416649356257
0,056667630327938
0,0594371634154295
0,0573986777324966
0,056014234052318
0,0585737470610138
0,0585405574919099
0,0561153128338535
0,0572812770647371
0,056466283249836
0,0559723759773143
0,0584183671274835
0,0587041596244046
0,0575608909229509
0,0551509613175475
0,0583088574899125
0,056954444333975
0,0566273327081403
0,0561377033198628
0,0564428976013633
0,0597177488201509
0,0585525600514291
0,0565679768919686
0,0585865062815855
0,0559223504206572
0,0558587544293699
0,0582466232749974
0,058829739754222
0,0573154999550613
0,0599343985853268
0,0571887356474894
0,0614550439172413
0,0604259101825202
0,0598096398520963
0,0608996601995634
0,0588904390964577
0,0575683370182285
0,0573073885754886
0,0572220360128194
0,0593481572009745
0,0594341124957597
0,0591465460920582
0,0578907588721483
0,0612482994278262
0,0561017090992223
0,0588824200891602
0,058968493385084
0,0627719998006842
0,0598855673908067
0,0603731418766428
0,0593978781154484
0,0625032919931854
0,0595495677974219
0,0604438427152188
0,0603965649891724
0,0616784023086375
0,0585828326498828
0,0589953468847207
0,0601763686818809
0,058734368396319
0,0593072394283964
0,0628156591633599
0,0592812335063487
0,0598877569705148
0,0607805943903293
0,0601505422962506
0,0592363760730015
0,0603023645270113
0,0611762152397521
0,0622926767577618
0,0620352507699621
0,0616246252221652
0,0617673147266919
0,0608382132577429
0,0598654352513783
0,0605691070025275
0,0596799953838398
0,0630459105122548
0,0606749001083599
0,0611982624505972
0,0633260066202455
0,0608743355633509
0,0600905821159093
0,0611716543853471
0,0614461529779461
0,0618415877383838
0,0623353280134342
0,0644153490985344
0,0636368124253034
0,0649543672509744
0,0616040355802966
0,0621184294947328
0,0645087170527389
0,0620623808748845
0,0622134554417691
0,0656216937896452
0,0630235169952415
0,0603025307737012
0,0638746751798234
0,0662405920477202
0,0619698901402471
0,0640125229132125
0,0631102713819837
0,067457724619782
0,0636515294029577
0,0636181526396534
0,0643254242618431
0,0654280703443334
0,0629450797147605
0,0609623833464661
0,06451023787086
0,0661913464191836
0,0629386138240557
0,065769855494879
0,0648847138596042
0,0664240977645968
0,0642752545703151
0,0667318799523486
0,0647080475985306
0,0653031004708326
0,0650579565158739
0,0655499312897731
0,0636704089861331
0,0651488907196417
0,0644685455820328
0,0651704284020011
0,0648532596397834
0,065925976482285
0,0658687099119315
0,065135857590889
0,0660391989380819
0,0671242018896152
0,0664284211074583
0,0687748782663028
0,0660859135397369
0,0645516377602665
0,0663588773510258
0,0696075107919669
0,0663865010620671
0,0672465929652114
0,0673189310940233
0,0671821993766502
0,0638921273462215
0,0689557779366099
0,0666279808342485
0,0686103918342868
0,066766520831039
0,0680570955483973
0,0668047557095441
0,0707085253046749
0,0674476380486743
0,0700752525384682
0,070430231871016
0,0672247738286051
0,0708106947307514
0,0694018798003102
0,0699153979171785
0,0737411618340342
0,0689113132944224
0,0688144933723853
0,0683378824263869
0,0722639214517135
0,0672489860737323
0,0722643895812993
0,0699213893544005
0,0687278032595634
0,0681921121161749
0,0703490142857725
0,0705667435605558
0,0712067201854079
0,0711915403493079
0,0716857730366209
0,0702360452815017
0,0702848102815544
0,0671543827646602
0,0747918452565958
0,0722100068197421
0,0725709067150837
0,0692957234681484
0,071278968839273
0,0677926017938916
0,0763081340453139
0,0698751480365084
0,0692445248296298
0,0687167811293168
0,0748375949525005
0,067705211012128
0,0742358084812216
0,0729848757138721
0,0706515383617349
0,0721350672955769
0,0778984899602978
0,0717029243542365
0,07975966461891
0,0674454980046577
0,0711278878211404
0,0690852418910608
0,0767774836927143
0,0699974490276803
0,0736843798654255
0,0715563374832563
0,0729584156902609
0,0705056966538642
0,0762604278641223
0,071228725346569
0,0811928282084435
0,0725168816511389
0,0798361924015512
0,0712248839766286
0,0762264528506868
0,0749752146767521
0,0741366216549759
0,0693110735090454
0,0774432189970811
0,0745035124890624
0,078526503100152
0,0756375527607966
0,079430384760445
0,0732708445445307
0,0790059995855964
0,0682358982471862
0,0783135913706413
0,0730147537642778
0,0791824176334407
0,0826490815044496
0,0767388643853108
0,072245566498523
0,0794050843954748
0,0763295762434429
0,0753196694667896
0,0843999488278409
0,0758830859958058
0,0828652152126514
0,0736973171517366
0,0873485701503187
0,0705141991060909
0,0906878700308603
0,071411068596375
0,0885874559924025
0,0716012174771136
0,0861711502314304
0,0736896938811887
0,0823492499744567
0,0781611096391915
0,082805770392443
0,0784302844171761
0,0820920385131974
0,0827200237652006
0,0796563621297378
0,0820476360987968
0,0830551116022756
0,0857228387019357
0,0871522855752332
0,0794164756091557
0,0852845897527699
0,0838261117630657
0,0864199310331741
0,08509037024831
0,0863525712194991
0,0870482018643832
0,0870311767669628
0,0849598962696363
0,0848401585483555
0,0841136180949855
0,08792172048486
0,0846798510583641
0,0837213910605848
0,0890007097655626
0,0850418590574613
0,0884562870332915
0,0902931456983017
0,0897071991152237
0,0874969176483027
0,0840750274181644
0,0881438871023876
0,0873365582900844
0,0877127036229941
0,0860331693081911
0,0883537412624619
0,0897030665364139
0,0904923275495563
0,0904783229355005
0,0884546573886136
0,0881785729618303
0,0917816604573469
0,089521356042365
0,0899785505933709
0,0900325695133457
0,0924602275963159
0,0904866919672122
0,0904589210686569
0,0899475693080212
0,0944169843456312
0,0921866642437013
0,0924259770580549
0,0901764568550966
0,0911487586252127
0,0938177172335628
0,0924448932728345
0,0914667046552951
0,0917957831278479
0,0942728861674555
0,0973750570579184
0,0970538898431288
0,0966461863492806
0,0968774728677342
0,0958236608448014
0,0943192752350648
0,0949516396035241
0,0952707570928883
0,0958884338578374
0,0954025897666155
0,0969702146016417
0,0962196981011437
0,0987431786618753
0,0968448805609509
0,0956349120619159
0,0984521312938648
0,0978693604253436
0,0989969111346342
0,0991865304120242
0,100085152198247
0,0994617978668226
0,0993462695191369
0,100616312572629
0,098124194438018
0,0995767672926925
0,0993015922873379
0,0997570816668275
0,0996930840361721
0,098400614780518
0,101939496591834
0,101608178304001
0,0995598557906811
0,103718412122375
0,103273959900519
0,100139920251456
0,104493039918139
0,1023701038029
0,101094885952284
0,103074399311469
0,103633250141542
0,104905973999323
0,1039478800598
0,104827194314922
0,102712358451795
0,105466003985768
0,10682326735096
0,106584046994062
0,105805015087974
0,106315743830979
0,105750587150977
0,105485783395749
0,106834635969507
0,107437507750771
0,106817302658026
0,107984585824745
0,110198386653212
0,107664458455425
0,106156872448402
0,109147878932959
0,109327508053386
0,107250182032979
0,109425740486434
0,108451748501111
0,110396458295558
0,109219883779422
0,109355872383801
0,110112614911074
0,110783850583658
0,112548954825935
0,111707375320868
0,109570963048637
0,111984354782693
0,108673667684196
0,11163374951849
0,111513539267877
0,114795341811739
0,112082061167057
0,114228443827839
0,11202283448899
0,111598444067222
0,116459451684282
0,112310503839399
0,112160861477738
0,114782867459319
0,114809170416135
0,111922886898375
0,113121961244824
0,11666580057195
0,115259409868671
0,114311585855571
0,114455178708476
0,115344832314477
0,113833146816594
0,11792524790399
0,116565899836892
0,115997247455329
0,116591293685211
0,117080878192176
0,117073386664507
0,116999925198312
0,11828206596567
0,117227221909245
0,119356326452237
0,118507627896662
0,119344631426687
0,117632303870618
0,117669774993882
0,118204312661356
0,118061457102021
0,116489449299922
0,118150843963288
0,118802982605991
0,116511008690178
0,122006293039843
0,119453906715721
0,123426573530431
0,116479473188953
0,119465791673451
0,120516841441133
0,118786789633226
0,120923454727326
0,121621544770937
0,121140571810473
0,121172576592453
0,122022167865474
0,124676693618525
0,121493573237709
0,120753699207731
0,120171659189255
0,123863322276774
0,122106220470062
0,124354432096538
0,120669793258216
0,122179896165036
0,121930472585147
0,120770468574296
0,118652664490562
0,121581937491281
0,122757928371315
0,125891903732196
0,119018316407043
0,122377023935407
0,119080804761374
0,121123087311726
0,123097925266256
0,123021918212927
0,121604446214401
0,122177991695331
0,12101128118442
0,12170679294521
0,121407486971688
0,124253480327953
0,120101253658471
0,124575507463157
0,120405185235751
0,121788576300634
0,120207948133172
0,123143693000259
0,122822478060039
0,12212794816198
0,120334357256111
0,121835816916326
0,122574161062059
0,12250907525294
0,120632281230183
0,123783521952697
0,121731684476395
0,120871601177195
0,12186449118298
0,124853001186318
0,121227396224293
0,123351595464995
0,120800958565716
0,121098268636835
0,120441808285388
0,120863889541679
0,11957699973002
0,121145403806116
0,121281556055288
0,120161007556376
0,120562943395092
0,120444467664456
0,121839575440117
0,119824819582694
0,118494383537959
0,116071363514189
0,118254132064071
0,119103657614758
0,12156705673953
0,119797566252718
0,118604864075087
0,119077762845371
0,11886740857051
0,122027465039255
0,120344869137505
0,120768168118043
0,117439685712547
0,120021382021537
0,116065175119491
0,117622434438407
0,116855721505633
0,117536249098714
0,116596764973445
0,117879868606143
0,119422172241878
0,11750853150889
0,116919669476687
0,117105461457808
0,117108939453804
0,11478355047484
0,11647537129791
0,115440876525369
0,116862411881225
0,118942163198134
0,116338376627155
0,113800342061089
0,114845215237334
0,11394826912737
0,116163780365759
0,115968763949343
0,113337978507168
0,115540635738062
0,114074527706456
0,114788426829809
0,11533166644586
0,113765435570494
0,113526488323321
0,111628838742774
0,113306040804178
0,113031446498611
0,11141617338666
0,114197064647171
0,110909849458543
0,112579907083709
0,110659997734244
0,111522172521612
0,110681391874577
0,11354075836638
0,108094420598754
0,110060071233357
0,109853750091867
0,10713201945208
0,109346042599866
0,109888996690228
0,107999339850168
0,108031244372931
0,109072412083742
0,107588134137602
0,107596945944322
0,107810381074015
0,105942456464004
0,108235648862043
0,106048240450389
0,10601306532217
0,105355217573141
0,108035699541649
0,104951688029116
0,107335845468986
0,103441588276775
0,10750974519664
0,104905078551637
0,104477562261819
0,104992856634029
0,103104564121359
0,103730314235416
0,103692390945872
0,10392234271215
0,101553058481015
0,102179125736782
0,0998438075720897
0,101886361221914
0,10083709240833
0,10022486148283
0,101671506649556
0,101414071703639
0,100325661496039
0,0980907668816545
0,100492477248851
0,0976478076130172
0,0987427918456838
0,0977867046284516
0,100138888082747
0,0976505795728652
0,103515484092056
0,0967709442505664
0,097263636207934
0,0951407660838792
0,0971040334729903
0,0970153409831487
0,0956054900956623
0,0973309188401321
0,0962119671620545
0,0976271156060055
0,0947066883926343
0,0943556172200387
0,0965270932829753
0,0956521594213828
0,0946147643315378
0,0933446332066738
0,0947851506821515
0,0929481677838611
0,0937101880110227
0,093908513215758
0,0925358859739114
0,094572076439322
0,0927379012094831
0,090876866848468
0,0926088502979479
0,09214361085739
0,0930894289298499
0,0942943098337063
0,0915748670470938
0,0886036425762933
0,0919426647928576
0,0886188034602749
0,0882162784114716
0,0902531201360691
0,0887577685993759
0,0901935099820817
0,0889143198589195
0,0871618538092588
0,087667250478649
0,088852948389785
0,0894717639629038
0,0890700258189834
0,0887663329026758
0,0895608313528333
0,0875081641622056
0,086712350094977
0,0861321772324738
0,0849172952894731
0,087079003751398
0,0877953826425185
0,0857354355341392
0,0881280662728682
0,0868637282919985
0,0851743037991484
0,0860887496156117
0,0831069640108982
0,0873684732124106
0,0836984396375239
0,0871342375768967
0,0841695485212835
0,0849992715129161
0,0843088373605265
0,0831429584916733
0,0838999200609577
0,0828968982686096
0,0819773035648904
0,084348094565092
0,083083880449009
0,0829832363811625
0,0841078438483963
0,0844856524791531
0,0798039958735861
0,0814659514321846
0,0829698277513433
0,0856414618729832
0,0842019661398479
0,083035548757642
0,080104093631604
0,0807067037990338
0,0796822712411977
0,0828174295072266
0,0788184547035891
0,0815943019786657
0,0791205549420496
0,0820572337547061
0,0811433772393592
0,0800084425581122
0,0797864536462856
0,0801149332134933
0,0799703607388248
0,0796782216592231
0,0795215747715075
0,0781389822468643
0,0786540379141334
0,0794336765144822
0,077568336863074
0,0780973127323595
0,0794646502988105
0,0797624305537034
0,0779274217297415
0,0782393187109198
0,07613489900218
0,0782426895010147
0,0784269001870163
0,077219157023901
0,0772944197492042
0,0779951030325237
0,0760222438849076
0,0780757674644878
0,077543480646493
0,0794438417796257
0,0804284239602215
0,0741802836936153
0,0793154235723957
0,077426483644107
0,0758669899174862
0,0786891875306063
0,0767139662254714
0,0772106456565679
0,0790917073198877
0,0780477204935612
0,0787744857464933
0,0805016465435463
0,0781899015575888
0,076996307250619
0,0768645406340355
0,0760713820683911
0,0764304419034888
0,0789716558053512
0,0746872645692603
0,0779238414455063
0,0769423272821402
0,0782173387289618
0,078891008535284
0,0743219756078089
0,0769695875664884
0,0767531795847429
0,077351259413219
0,0787845552846091
0,0760320059167686
0,0756947939778047
0,0769357785375062
0,0758804687749635
0,07818928660246
0,0772668234311988
0,0771411548833752
0,0774673259978928
0,0776103438029996
0,0755327454858112
0,0779402105337716
0,077025221957802
0,0754233937490824
0,0762262259542435
0,0794967846509283
0,0771736636795847
0,0809295231381448
0,0791865761896727
0,0786479931214944
0,0773188661509872
0,0838797865378403
0,0787384433327984
0,0773661090318511
0,079628834600649
0,0751825499302864
0,0791614078690869
0,0782505092005006
0,0792544337153429
0,0790330575392558
0,0800360229483337
0,0780063223005453
0,0774687023956938
0,0789296799594735
0,0785077034340738
0,0779479433142384
0,0782913437567843
0,0784010651862976
0,0823126747059518
0,0794067112589067
0,0803899190629317
0,0809291639932758
0,0844946162065504
0,079200470757404
0,0818953691406826
0,0825108632165658
0,0802555269384242
0,0789838631931864
0,0810652429226958
0,0800010745028499
0,0835851316459944
0,0835527478152067
0,0817770838482593
0,0825416152904095
0,0805948093655147
0,083104816044513
0,084060125980541
0,0848510747555402
0,0842695537489174
0,0823717258385439
0,0841723024475434
0,08473731556067
0,0847597747070983
0,0858531515808631
0,0856918066770389
0,0846032845884217
0,0859715627371669
0,086404381557647
0,0847686080883449
0,0866839983751653
0,0840539921677133
0,0850292342344684
0,0886837979201367
0,0891951885504416
0,0883102646221579
0,0896848705184832
0,090473729337973
0,0930138278992146
0,0852823618777187
0,0930403768225313
0,0906368182664474
0,0929204005739853
0,0913826278813944
0,093458848300645
0,0893612458440674
0,094671464591127
0,0918297558194133
0,0933452981561566
0,0939021498554796
0,0925233188377974
0,092265390146858
0,0915664199546035
0,0971255029116427
0,0967682261243185
0,0976266648747412
0,0983168955183644
0,0991152101464089
0,0998404174496002
0,105738265762978
0,100625890086855
0,102142421433266
0,103115188623354
0,103856786603195
0,107510568292902
0,101912710817721
0,103713558574226
0,102651209554442
0,105298325506805
0,108495092960605
0,108530852614456
0,113896192617694
0,109796515203913
0,110667129297465
0,111485145473949
0,111852337994982
0,117843474490109
0,115067473485139
0,118195590468622
0,117827650718955
0,116763696854312
0,120498090566361
0,126662433303942
0,123225569458421
0,1209056168882
0,126944574950969
0,12383460902501
0,133269628760842
0,129039313055062
0,131006266631558
0,130778986438865
0,132312801428909
0,130694565545095
0,136053075217182
0,139666552378776
0,142474491974833
0,138428872407813
0,145869564857437
0,14332357889278
0,145732251060394
0,148216407237011
0,160582957315297
0,152351285029957
0,154748158064854
0,154511769452035
0,161520622874122
0,160148212700027
0,163596043226631
0,167598156050981
0,169289494930736
0,170078605836048
0,172395295342296
0,174377202538768
0,177543809267759
0,179331283527746
0,185217772898873
0,187024704729897
0,19179182985531
0,192043088578165
0,202239263903404
0,20037898838203
0,208203965434843
0,209294406677901
0,209643429886827
0,214131863629935
0,22021195704687
0,225952228058718
0,22924248865201
0,228726979516128
0,233174173943495
0,240963572643583
0,245345464633174
0,243983787591507
0,255018559167725
0,254043147487639
0,265446167270105
0,259146483377762
0,283114404803007
0,27656848079995
0,278615253753187
0,283889800232893
0,284681469903742
0,315099821886791
0,303278325480966
0,308292342019241
0,3146670272445
0,322677673502119
0,328439104858613
0,334326427467171
0,341363625103205
0,345386643885894
0,351448528212661
0,354659041517212
0,359685234960901
0,395241465773663
0,388835391529256
0,383431332024843
0,383933258911386
0,399055451759961
0,408422621771385
0,409158460086596
0,417429485780656
0,428409568279212
0,427368634242872
0,459805300259232
0,449193093344199
0,453327058418949
0,452603628872606
0,470026118593454
0,471092496659802
0,486018723079682
0,500343564770081
0,494223281664515
0,505278247829107
0,504925263025739
0,522407881607209
0,524729019874495
0,531779728154065
0,535480963954685
0,544756415109695
0,559012525139712
0,560245971911425
0,5694322248469
0,576333128266076
0,584826270100859
0,576980817322479
0,595685973895184
0,631405510547092
0,685709940997963
0,630445561173065
0,61314657925989
0,623767471816496
0,619745332065971
0,651738592566087
0,639489022420032
0,643769459860231
0,671495136833439
0,651902599411521
0,664413828279816
0,667145404629596
0,66293548929527
0,671341724467275
0,67869205475823
0,667732393648399
0,681454637275615
0,679117340759406
0,677848197246725
0,711559101775922
0,684202736047359
0,682144891206423
0,678937891804214
0,673425641351186
0,670489180475514
0,670754590382209
0,66838408525241
0,674338120104608
0,655065181879646
0,647712941681642
0,646171093565452
0,647349947510701
0,649151303905276
0,63509245736664
0,622169885100674
0,621314657741623
0,612658945580474
0,592966619514544
0,602740317943041
0,611195455774036
0,582523607575615
0,571566506144973
0,56087962994126
0,555634507705128
0,5477300195241
0,535366646384811
0,534634490704544
0,525687922100057
0,516597741766509
0,509002979062697
0,496829223058177
0,487365030942394
0,483677494172894
0,480891808316101
0,469993910912589
0,462614517461169
0,459332473393446
0,446937954388791
0,443212425695442
0,447393534612739
0,434289959038228
0,424330217380948
0,423767997900968
0,418747983262699
0,412006776357838
0,406145206341186
0,408887852880442
0,396591556301288
0,388444334671642
0,387092649642734
0,379076928985793
0,377022224218638
0,374967655675076
0,371154316819063
0,365134597451509
0,360804126449335
0,359451733995492
0,351128355964444
0,348467170035462
0,344813013878546
0,341390097012636
0,34537725266428
0,343122446828872
0,338876869413447
0,32736746764168
0,325621202632065
0,323266275360495
0,320553135779081
0,320586688661833
0,320862402245521
0,323495336788609
0,313281666882316
0,309412889757045
0,307717572197566
0,303735164955406
0,30242011149495
0,296222713827078
0,296587401274215
0,301534194808037
0,302316096385959
0,311778610441217
0,29652589957398
0,308898238267311
0,289573371586178
0,287082564703074
0,282299215044697
0,281269513056612
0,279188588943457
0,277271113900235
0,276903271398514
0,278181841024204
0,275554676730149
0,270855489560832
0,268166442513903
0,269379485708082
0,274023635263447
0,268775246420721
0,266834108764045
0,260557522228817
0,269060459010859
0,260416645845083
0,266858514985295
0,274380766091396
0,263144611534619
0,25679720048923
0,25217750856346
0,255338479801626
0,259930401292888
0,257442207600847
0,250514827361106
0,24586935321377
0,250374247898159
0,247858831347107
0,246607748650468
0,249272392449474
0,248675861438355
0,249945622101144
0,251302734565634
0,243294779204243
0,240920214246365
0,24516596313957
0,242719420107355
0,241694162587318
0,239590933383632
0,241432573259831
0,239616919338474
0,243624420681262
0,237790064102817
0,235788287169463
0,23236633914334
0,232313665423115
0,233878771702233
0,232582839822262
0,237647411800475
0,237280053838876
0,237490093087431
0,23938056904609
0,241111886419643
0,234730348764925
0,227318098917808
0,22991179023249
0,227700183796063
0,226817592609453
0,224780732185653
0,226634680624436
0,225848762634643
0,225150866400252
0,226555098659372
0,229026553001154
0,22150849867043
0,221850292761436
0,22205870171616
0,225495395441822
0,224233480338213
0,231142347930068
0,22654757912712
0,224469333413551
0,221660823862328
0,221898597557803
0,219596893531067
0,220306987314491
0,222402944416723
0,22177163045509
0,21935568372189
0,221558104077027
0,221103792754355
0,219326925573982
0,221497401143804
0,219882683495887
0,215907904555193
0,225880514074466
0,221940954456913
0,216209483258805
0,227533263407636
0,218128668421456
0,218619601834059
0,222863473225587
0,224807012495742
0,224978168978657
0,221530482556364
0,21900395902657
0,218691558612718
0,221964671390134
0,222250363873588
0,222254210238758
0,222378223419719
0,219616374136177
0,221900434919566
0,221734479442907
0,227924276899943
0,225112628676053
0,224167113127018
0,22622445446738
0,2248339094939
0,224814553464751
0,220742184044894
0,220632529934874
0,218867784015554
0,222516594661848
0,226819883622364
0,220921109177731
0,220750311780146
0,221995828051621
0,221734095988596
0,220840742366139
0,217489333953858
0,219058300771099
0,219926118998117
0,221796536724777
0,220497283467611
0,220977626836366
0,223728489865845
0,226168921130704
0,222754655706988
0,219322636370578
0,223681201862601
0,220972286341017
0,223782021633155
0,221185591326732
0,225085193637539
0,223875599008168
0,217655725593137
0,222669683132051
0,224151218893722
0,220938255531469
0,223951591931023
0,224477155239169
0,224871303162537
0,220729562601287
0,226238263158249
0,23214556759064
0,230691338294386
0,219045203088037
0,22150463164685
0,219444188062059
0,222589886539574
0,223848270634669
0,220129021923658
0,222887641579943
0,224321626431083
0,221650642744693
0,218820578972375
0,221424655266833
0,222801125786414
0,223450267889563
0,223506373335727
0,221664238405453
0,220820478192226
0,219900343071847
0,22172335752033
0,221646467562432
0,222488649119811
0,223002281946732
0,219475773997807
0,22063676857489
0,218950775911081
0,222676470632827
0,225044966439206
0,218719417266669
0,220335520499861
0,220310771550579
0,221083135200486
0,217983580403853
0,219908596740203
0,220828309217051
0,221920271470433
0,2190350140115
0,21935299494653
0,222659655347037
0,220982484232153
0,217659767944869
0,217619757626085
0,22324968440349
0,219551765002078
0,221696500631074
0,224922631138911
0,223283932620248
0,223880586506564
0,223869788126926
0,222120135922807
0,223111925322559
0,221963441846882
0,216976700210665
0,220284064060963
0,220190307784202
0,219316807520906
0,222128735272544
0,223786944262001
0,222445328234442
0,217326857592594
0,221756131401229
0,220860170955137
0,220328019396608
0,217032403643224
0,218094555787719
0,215768373074535
0,220674637922655
0,217486490894376
0,216211877393566
0,218149935194781
0,215369946190792
0,2153852221953
0,217119941615343
0,216101171970631
0,217048572042139
0,215848705887606
0,216565292308176
0,217865764961971
0,214344317352745
0,215238038809697
0,216572887838293
0,215298589422033
0,217657434750077
0,214846060534011
0,217368303100206
0,213990116749945
0,222598004367888
0,217845431693808
0,216865496308753
0,214243231956287
0,216914849986331
0,212418641637207
0,213052482757409
0,21417988105161
0,213333200326446
0,215672260324226
0,213709446191486
0,216369593815971
0,217356124374259
0,214231108503419
0,214293713162602
0,214408015339697
0,216611562314438
0,211624915933956
0,211782701887609
0,215826109411907
0,212072678469395
0,214912463503308
0,211810365207307
0,21211197691391
0,212247443156194
0,21612306185697
0,21249039706791
0,217472566709869
0,214355599145659
0,213624087067816
0,216317652595336
0,212479804381303
0,212440611478287
0,215033919075739
0,21153389866714
0,208969725699746
0,213011619927555
0,214077066264846
0,213217284996745
0,211789429140738
0,211702546989225
0,211034264436579
0,214867014063173
0,210490784396992
0,213551556025597
0,210127565792398
0,210170804301864
0,209101265886298
0,209760977448482
0,211253987057349
0,211862557467283
0,210439805765636
0,210721832146135
0,209128336210377
0,211624568021521
0,21248976857088
0,207844264547783
0,208958875822238
0,209229177060992
0,210489785889004
0,211170584536289
0,209931757835597
0,2087292230153
0,209576152326225
0,209058992285617
0,209323031311904
0,210919801769868
0,210366165988175
0,209638298930643
0,206181236472149
0,210982996573577
0,210237859753073
0,209183026421351
0,208266072479238
0,211107770295753
0,210172186539574
0,210559079795831
0,209683566553963
0,209077503234857
0,209966561803941
0,211485003271824
0,212244241257885
0,211366037742215
0,208804035110737
0,211973185246796
0,210672826739087
0,209416318351081
0,212479648263344
0,208403015726883
0,208640552613832
0,209782739127745
0,210128169434284
0,213542626081246
0,21187620888234
0,208178026841996
0,211514428433856
0,206933221165199
0,209625559975275
0,212056753579214
0,209169316613526
0,21042505075499
0,207901016545156
0,210008167922165
0,209538890762107
0,208939760583456
0,208339170948895
0,207772344687022
0,208979983748666
0,207909048192365
0,207312729584351
0,206856637158944
0,206009983390962
0,20746613468259
0,210902835329333
0,207803908880032
0,20823356076104
0,208922842877487
0,208792557185283
0,204292920263846
0,207292460226538
0,206841916387674
0,20619969301458
0,205791771646194
0,206662634788956
0,20836529199364
0,209138534968592
0,207555545492084
0,206851999360586
0,205344879249724
0,204320068691573
0,20577045174923
0,206216843494882
0,204058952611996
0,205059085064682
0,205069960858467
0,20534869902158
0,204761250104326
0,203194959326585
0,202940328050081
0,204682037739359
0,205088005110623
0,203513018727628
0,2031517432933
0,204171728466087
0,203408316420309
0,201757004300975
0,204368106562648
0,203544128540535
0,203581823224945
0,203709385758644
0,2040900246946
0,20357883446319
0,203725595927785
0,200977904378787
0,20205701430093
0,20093638630544
0,20004166751894
0,203064261542586
0,20112840829656
0,202691133646814
0,202570084008452
0,203623146252779
0,202879477292805
0,200950515840007
0,202263086819141
0,201312595794853
0,20179969603531
0,200832752280349
0,200766368173812
0,201700797451432
0,202056613556599
0,201972172467155
0,203634351264642
0,201534824548283
0,204726095764133
0,202763101224303
0,206932311557709
0,207768158262884
0,209313761722067
0,206891521963717
0,210912577520051
0,210814586448681
0,211553554988596
0,213485009143057
0,214017067840107
0,216392341265086
0,218557726332311
0,218310342003695
0,220885104093185
0,222396344022366
0,223107654900936
0,224741324643507
0,223082565620903
0,226316337830272
0,226643905169352
0,226642113673361
0,228349365717535
0,229742803206241
0,227421837167187
0,225419640221907
0,227898963049651
0,225273865896926
0,228970098428183
0,226490815412016
0,227788913146593
0,226651268908561
0,225391188368893
0,22701799980833
0,226356952445492
0,226620100983781
0,226950508788914
0,225131167027227
0,225532715021171
0,2254704612127
0,227992539151112
0,22659995606334
0,224888894205548
0,226145789091245
0,225767950384184
0,227625038285861
0,226461137111181
0,226774524357737
0,229134077070565
0,228471219680363
0,230607172332926
0,230950751136943
0,23343588876101
0,234593042477718
0,233890880763127
0,235519320936794
0,237638470031771
0,239261342746757
0,240685977600406
0,241301728393491
0,242460765978874
0,241039585700475
0,243380928503394
0,243994901481528
0,245481874934653
0,245774629497549
0,242508600712237
0,244061290839089
0,245131343740379
0,241303008320116
0,242629218539374
0,242156527288492
0,240085438957781
0,238894622438576
0,240902419207673
0,240376339416574
0,240151356687128
0,241999409001322
0,243767177221768
0,242332471486028
0,244923003614487
0,245320020656127
0,249072152666021
0,251683461108761
0,251146294473989
0,252245265939743
0,253799120227375
0,255142705318506
0,256325756257779
0,256003862788339
0,260318664062507
0,259770521304371
0,260163550342088
0,263620662095999
0,263979913694215
0,266748101890264
0,266645536746598
0,266335795198567
0,270022416554644
0,274042845095215
0,276796390486756
0,277715569704257
0,280073684910941
0,280895590688566
0,285318788582673
0,286347982765028
0,287322661244026
0,288946452722572
0,287450764114444
0,288869149504731
0,293698408942616
0,291467271849269
0,292133444982753
0,291550760119577
0,29135922259096
0,288022477295465
0,288366490039019
0,283992116551915
0,28486316274944
0,285484712052571
0,28157529732667
0,27776003775096
0,276513738748732
0,275595625494146
0,275998396156186
0,27805880864092
0,276213162325724
0,276691279298088
0,277977049933664
0,276134977216764
0,277987438887618
0,278417069686906
0,277585764231103
0,279047337905308
0,282000937186874
0,282374819751074
0,283859376585352
0,285650821834353
0,28600687589128
0,286139626100765
0,287936704399651
0,290275577965817
0,288726892815999
0,286244378794689
0,289947052201134
0,286485431786386
0,290889923265659
0,290522382621062
0,293123734594168
0,29269609309897
0,291056574626618
0,289380783841569
0,290585574578368
0,291833872197591
0,292631513204951
0,290373218272123
0,288667254145705
0,287949564766617
0,28727136868658
0,287187140586252
0,285345833317433
0,286200200625003
0,282811615371482
0,285237236877207
0,282006665748846
0,28415842588681
0,281927091870371
0,284514753389798
0,27860720957549
0,278894914539076
0,277169466992543
0,273384580391471
0,271349454880607
0,268699183353444
0,267509576372358
0,264683999518434
0,261563477177609
0,260190729281751
0,257304623283932
0,255428370371386
0,251932596670399
0,253878360144452
0,253930367256025
0,252641184803134
0,250102418114373
0,250960379043677
0,24873948253267
0,250088159509161
0,249492763389748
0,25407103549312
0,252316458530364
0,255082219973497
0,257836699542528
0,257766572304877
0,256726837754854
0,25428194817768
0,25658634733822
0,253439327499408
0,257029598617923
0,253563792100317
0,254316174451223
0,255750263192845
0,253861914244142
0,25820113848966
0,252988933027094
0,252347445148473
0,253387055288834
0,255826243892658
0,251068312615673
0,255439320103005
0,252693717294305
0,254423149690151
0,252223126561163
0,250575209929151
0,253247430194455
0,251999306122493
0,254473846510114
0,253112194702129
0,252187136160625
0,254582911511565
0,252495844131102
0,250324714068666
0,255160068971786
0,258152933053095
0,252026988404099
0,254133298572432
0,256695646918536
0,255657102442459
0,258438095766838
0,25657049032136
0,257623037851091
0,259413682522988
0,260158747030586
0,262581165941073
0,260089357950858
0,262527033129045
0,269901171532399
0,266498904751071
0,267304533495943
0,267597589995939
0,268572303025951
0,271345558010692
0,267105142298315
0,272957057316243
0,274249920905503
0,273441678660246
0,275500542755569
0,278128362481429
0,278315890863111
0,283325002056017
0,28359237946469
0,284025083130061
0,283642090719633
0,28657222659327
0,284613209465945
0,283788486325281
0,295892091390392
0,292414513515458
0,292926525109225
0,294932982966894
0,292658949077
0,296042279936885
0,302149786581122
0,29287651286509
0,299164788182372
0,30314674224999
0,306437981760325
0,311232011710063
0,305625165152154
0,308693086127031
0,313005636811208
0,315731552530789
0,317059526611502
0,319709296599068
0,314620292828503
0,318689310084158
0,321175802227998
0,324439477225265
0,326596225365633
0,330399191465481
0,331845074997704
0,331893649438457
0,336156342697456
0,332672597703678
0,343521897257411
0,342763010980222
0,344611516474363
0,347772752718383
0,34820438146631
0,350246172173546
0,347906434254498
0,358976311509397
0,361151651037989
0,358005845871686
0,355648874957233
0,352995177112744
0,36579488122232
0,36685695566088
0,375506970092725
0,373814280480959
0,375531627622096
0,380356954047909
0,3879093550106
0,393665339976559
0,387515940184856
0,390273617162549
0,392230194039281
0,399324585772702
0,393947248582846
0,400055022590126
0,404726298582838
0,408417978655628
0,416718059671869
0,417888745715649
0,412102557715405
0,420739900691249
0,430736302459532
0,418066519597815
0,425901113631109
0,430949881965349
0,439633540295008
0,435736122550781
0,438199865817933
0,44318618831915
0,4495973964972
0,437377686504582
0,447610553415918
0,454319745417699
0,448971314374992
0,459499320247276
0,458567469676089
0,455220101352056
0,463946632244529
0,466993792961388
0,467554840102821
0,485580290947578
0,479230832922437
0,479639292195629
0,479814802960685
0,479718346783135
0,488520236538326
0,506331643120901
0,500159692351925
0,503437356472569
0,50010450942536
0,514016804850563
0,5116480208608
0,525502567390324
0,530060194904631
0,517907220283227
0,528904052217481
0,529547003816311
0,537259042534434
0,546621433046503
0,537356764961788
0,542676324177143
0,551946556141999
0,558092254303147
0,549038704391109
0,567668113312172
0,560351065681697
0,579934550008534
0,580636139183603
0,576473100565393
0,576856034877417
0,578217509819905
0,58960140748213
0,599892571952448
0,590567336085538
0,613382356502318
0,597026507722424
0,599290391637009
0,584781259931954
0,60775202097145
0,631964750702239
0,622805178462483
0,592090012543964
0,615875410532294
0,620643513265973
0,636339410549134
0,623794751317303
0,633861308025386
0,638102195755988
0,639291953231518
0,654136869883864
0,65542045404608
0,643421428908532
0,657750009877107
0,645989116953179
0,650453130819231
0,665370224941085
0,683082806106222
0,675982232367723
0,709148788448059
0,691568199882002
0,678985968074047
0,697434056515932
0,711501326443069
0,696613113793522
0,736927731111631
0,693583270183371
0,711809478392647
0,725206373842739
0,75409745860086
0,728156074660641
0,736942650503314
0,745098190513269
0,727147337049491
0,726610184208932
0,732817269889582
0,721566072996371
0,743605391750466
0,722052758200416
0,74990876580369
0,77562770406383
0,785400324269699
0,791904960592374
0,77742907242187
0,766671930670617
0,792995935938397
0,79097213683023
0,836711210431377
0,831436305560037
0,845320081725703
0,76697467641312
0,794654758185114
0,815302781311381
0,833623321746101
0,852915595308328
0,880445500692262
0,832348712156103
0,816094720243047
0,819314369089201
0,855187234612827
0,860387528604594
0,86076384296248
0,823032161405172
0,839901076720412
0,892946209562787
0,882478358557203
0,852461857034388
0,861363871020664
0,902286007840502
0,958961167910267
0,874358127165655
0,833639915095016
0,84240362052255
0,912801781842495
0,862065767638538
0,883027813754995
0,923045743007965
0,952097584694997
0,940508474603451
0,875874368999106
0,87988946322393
0,981492148306291
0,928606153164999
0,929635024615641
0,882963014836838
0,979550228531995
0,926387097204281
0,975657894701886
0,957274054058151
1,03039718489197
0,98848116592666
1,02991711847011
1,03017065890316
1,11683882421712
0,972373845262076
1,01033505417312
1,09772180651898
0,999260076200167
0,988776382034589
0,967223833841968
1,00659169335886
1,01031247756532
0,945931280516268
1,06546445442665
1,06545576136588
1,11256309969909
0,916796117283288
1,0455853457017
0,985267225088869
1,08624102678856
1,02672537739172
0,973252516653712
0,991629885037526
0,978549541054475
0,999005886253256
1,02143258270344
1,03564170803629
0,974264388664034
1,02032171383815
1,26712272791103
1,20171521619558
1,24744487863807
1,14290222623568
1,16246378277937
1,18648620896031
1,06362521611201
1,05262932129684
1,34003829279431
1,1227487012494
1,33445893398046
1,39625046376729
1,02209617288596
1,12221621850617
1,18059818553048
1,14986209271258
1,44562045511365
0,986715438400353
1,01425577052464
1,27260825051741
1,07369355990227
0,978322839167206
1,09304067126527
1,06607349105788
1,13574711100447
1,19130251837484
1,25624861303258
1,69825237286833
1,19627192975133
0,999807316028741
1,26330555442127
1,1124239419866
1,44660025102137
1,26154701233004
1,024691726857
1,25894733784436
5
1,29733489882335
1,21784737693786
1,18115932467763
1,32343689544406
1,13985035370156
1,1629276564706
1,12666993234865
1,28243115810471
1,17760312602489
1,42097870162663
1,48043694568262
1,28810708701029
1,08499915193116
1,0759371998801
0,988497232678631
1,04090184450736
1,23657719693823
5
1,03032297852319
1,17883583319515
1,52877730527439
0,919988328940651
1,57067085156683
1,36920889626423
1,3913196620687
5
1,3194116703583
2,17985722810521
1,15750345610578
1,98412900055539
1,57649844340781
1,2328338779572
1,08881473605206
1,05408181042279
5
5
1,09230741162967
