3596
4000,36533379555
650,420452594757
1
2
2
0,0170323734165807
0,0266284706618449
0,0238999160772828
0,0216649307509648
0,0183584979952302
0,0284833350546332
0,0228767090751236
0,0169416412265993
0,0117803372554161
0,0254693677875154
0,0192260599154022
0,0263111948128919
0,0194790772049373
0,0174605889971501
0,0177090192974894
0,0217408274737903
0,0159010727233213
0,0268211461110775
0,0216770977190888
0,0235811980488227
0,0196445739126773
0,0235850860574696
0,0247919573602721
0,0258051341779385
0,0143811165315048
0,0237557532383222
0,016650449911762
0,0299612744216193
0,0275997493077571
0,0217406745758663
0,0253820532395942
0,0330778904870353
0,0256638512803402
0,0197545032357609
0,0264790864008216
0,0301320956708463
0,0189376662936826
0,0184954226269824
0,0173781733317817
0,0291622584677364
0,0169054125297514
0,0317210296320645
0,0141320207199885
0,0241153683835445
0,0231952993151032
0,0175446933099848
0,0118200132957636
0,0296918374260276
0,0213760591997202
0,0278216318172633
0,0207191962726655
0,0241921675706088
0,0302424687929142
0,0275572989557835
0,0235366884607322
0,0204351440391916
0,0123650809372075
0,027386974991998
0,0217269127447743
0,0320425620863561
0,0287592230798751
0,0232434116769061
0,0274183225037603
0,0174492128397005
0,0267365753727208
0,023011270247213
0,0191092633638599
0,0343008335504069
0,0228233187109444
0,0322530049490555
0,0240417386527173
0,0422615298620197
0,0122294450042685
0,0287140474209449
0,0215310902801788
0,0231730472863095
0,0148763751667574
0,021831188293231
0,0167723094106315
0,0353971263785677
0,0192961447352673
0,0250088410631153
0,0228494714730167
0,0300736929884601
0,0289031258062487
0,0366885248640709
0,0175723151337512
0,0467349022267738
0,0207374591393383
0,0279431475161523
0,0185556511833378
0,0293339625640459
0,0107132709903112
0,0194577477390216
0,0166006103329662
0,0340747280486841
0,0234518157272215
0,0356488681851475
0,0173396815329847
0,0370597808792538
0,015831928353461
0,0610017156097484
0,0122398138662704
0,024192174681982
0,045549758119235
0,0109885409910333
0,048570375605698
0,0227642979252538
0,0164784694264024
0,0260450045163294
0,0171693913580639
0,0207900587859207
0,0310321063891596
0,0426495363033588
0,011368756615499
0,0556459643712709
0,0167470774606181
0,0268231920918282
0,0137721115234894
0,0291632957472212
0,0164129281941258
0,0582791425981961
0,0135784610119186
0,03785627889977
0,0170664494826909
0,0302656857479372
0,0174047960214769
0,037020081076032
-0,000228710095997641
0,0332196684066175
0,0101205901897397
0,033206785130881
0,00994777252387297
0,04633211288701
0,0265208635815371
0,0220031194206552
0,0229307810413338
0,0358734417113312
0,0420281561684462
0,0279629536923643
0,0157543826408536
0,0298234936668316
0,0148898748475118
0,0401333928292705
0,00853586722868877
0,0326192113690788
0,0337258685237741
0,0344978900093256
0,000317181092303397
0,0352917312496146
0,0188021644531394
0,0367609132827874
0,0245552581476245
0,0306842238586222
0,0261527171882492
0,112586389986889
-0,00540513490463513
0,0776524342280642
0,0181733515955417
0,025421070594187
0,0298677493751738
0,0194795446642306
0,0165837115259907
0,0212507387042361
0,0267304552152629
0,0248257930274095
0,0411630973142887
0,0218062438345843
0,0268840253335155
0,0372119962133143
0,0276183255912401
0,031679173649554
0,0355048225206865
0,0474557246246687
-0,00125853747472616
0,046485592703511
0,0218207224550191
0,0336445511950368
0,0134868945030703
0,0294596049313542
0,0125618322156623
0,0330260239385499
0,0216194075427062
0,0328712017052141
0,0274428624554371
0,0361072814455897
0,0150511023096784
0,0416833968354563
0,0158657390480537
0,033789332820799
0,0336073498799406
0,051791605040682
0,0150061486949333
0,0263196361328975
0,0158596767049193
0,027820995351165
0,0474437463968008
0,0261277632367523
0,0288441362399164
0,0255248513376387
0,0230628184650021
0,0312922131970703
0,0110969755366027
0,0340093907617205
0,0159189703911739
0,0374153733372036
0,0344570888504286
0,0168999593935237
0,0274152930291972
0,0257376606037196
0,025024432925134
0,0326749539268376
0,0499310705631957
0,0203643397289377
0,0324917073093314
0,0296836615743084
0,0264390804706202
0,0393941518168356
0,0157992582677159
0,0310963665185133
0,0225080698634301
0,0337168862635366
0,0264366717462634
0,0264263540416685
0,027081512528587
0,0369565224185403
0,0243347739548147
0,0289216993691707
0,0240626949359726
0,0341605358724221
0,032385731717699
0,028786566278464
0,0280893804771413
0,0365332241383328
0,0255439406089142
0,0570565298791223
0,0242899127468024
0,0315420948790753
0,023730199944492
0,0301959455264122
0,0219706978055825
0,0361536570447483
0,0277462507135246
0,0365711203350279
0,0214833786788055
0,0396826074814089
0,0356717135746756
0,0225291446083419
0,0348535788324299
0,0202583809407779
0,047265384208368
0,0286106826674866
0,0371188906920569
0,0298478609243208
0,0402384083436316
0,0311315791986268
0,0391358666820939
0,037549612646335
0,0236701905911862
0,0259191985323027
0,039808839326327
0,0364361946491532
0,0395382263242659
0,0418102121931195
0,0372199941967676
0,0576875305413449
0,0164351309178893
0,0450360591853629
0,0346199840605669
0,0333500347642292
0,0349514082398953
0,0377566946641417
0,04829459346413
0,10613751935328
0,0265626709181578
0,0310101153862318
0,0306490078855943
0,0449653389947652
0,0248469065377303
0,0538067507431475
0,0282700551911075
0,0608971931876685
0,0242063821355331
0,0516057977286046
0,0373322437451752
0,0306010117600885
0,0702905304616338
0,0261895499549205
0,0407808015330138
0,0333681200704723
0,0459833508503984
0,0402560447282146
0,0444059166591028
0,0389768957890082
0,0453813438106549
0,0413202375875255
0,0455809949129845
0,0592774158217964
0,0389649380481296
0,0441935915655318
0,04214378763007
0,0514729682605494
0,0414263166694828
0,0478644915284323
0,0425361147504609
0,0644481305912602
0,0448987847471021
0,0644917331956566
0,0587942217644713
0,0496005469551617
0,0572518106747791
0,058897340139676
0,0474192972453633
0,0526063574497091
0,0417862174044727
0,0531062819493676
0,0511796181413751
0,0647413661789575
0,0475987314848271
0,0776702820297146
0,0521643958424812
0,0681508014954213
0,053412349920791
0,0675369915155745
0,0618124798636996
0,0722661446570247
0,0613324278935562
0,0794130142923422
0,067545502035563
0,0757632546530741
0,0789441079847017
0,09486663589228
0,0626159309230591
0,116534174739435
0,0631179136945706
0,0855197287799539
0,0754645203441085
0,0831808264918539
0,0777549208550095
0,087163697792498
0,08804591877876
0,0970487627550843
0,0967754080990323
0,11139673142458
0,0968784235570776
0,117644493611834
0,114718265829812
0,138329070430498
0,103189827363584
0,108586363826057
0,11365602529743
0,113060359280355
0,149693457358308
0,12796270376868
0,136603141681931
0,12739871710031
0,118318890989687
0,141581065780376
0,127699876020326
0,153907472073855
0,131742795046878
0,152134896522774
0,138059805622425
0,161566234916471
0,147029987077763
0,175854693543759
0,148659099575713
0,18751109999273
0,169673352503209
0,159291567232265
0,171725906569398
0,180076848257857
0,174858609560742
0,226470586449535
0,165514687028203
0,235070324617465
0,180642750382844
0,230730113822068
0,191860358648097
0,19262642155857
0,200981366941218
0,203642305092123
0,209207944812985
0,213472246190134
0,215194700859968
0,22126278948246
0,213622320857296
0,233464819804557
0,223154046115442
0,240080954731098
0,229690148863751
0,242728132378872
0,241451108134365
0,233013708192178
0,252566616575702
0,241516138395485
0,270835009537012
0,282279352496771
0,252191833035872
0,243079184860639
0,242638554655196
0,26700407233192
0,253246839987367
0,263597407805429
0,266500575756023
0,28446299074378
0,260000992684214
0,3100916472667
0,272441748500871
0,308709751236394
0,270907323584507
0,284115983312495
0,299401706511319
0,290419639397418
0,294584185758868
0,302303027514871
0,28247102344826
0,311918606000346
0,288679207448211
0,295986125974262
0,293172300265705
0,335529837533299
0,290553670436262
0,313141216079547
0,312130631190647
0,33710645044532
0,300240975752799
0,344990961162204
0,318164608871463
0,337563925120504
0,328758951979438
0,344166556340696
0,319841314695234
0,351761559882424
0,325481289006008
0,357268068815035
0,335572699247988
0,343763488148479
0,348371611386675
0,36162672816758
0,372874691998684
0,368043130698881
0,362206188277342
0,375408307709075
0,339341380376846
0,36888463918285
0,35442765941838
0,393306212893075
0,381045153279928
0,401200689939489
0,359652621051081
0,389728036283375
0,359260538021539
0,385625538646738
0,368482586404722
0,415834918400864
0,37669512204965
0,385041870035661
0,384061812063208
0,415048118438445
0,404510564786695
0,407413371920398
0,397439078687621
0,435115581662927
0,401909172700492
0,44421006111398
0,410952300541023
0,444782517475835
0,385244206965738
0,448362108557633
0,403208940622499
0,449691233454794
0,418494183216169
0,461620329204336
0,43225837072315
0,457007105363842
0,430615245077388
0,467358834349349
0,42976368245951
0,487575574562876
0,437078619304621
0,479959676713588
0,43240500771709
0,480827397169618
0,449570663675073
0,490912894839152
0,473590680282322
0,494073700465494
0,445948304466753
0,492646470203462
0,463876307240347
0,511207090372989
0,47004328731242
0,503537963548521
0,483676071798705
0,516090366491475
0,485319943647031
0,521206506448515
0,498571972212714
0,523896586331468
0,492320719787954
0,517821578270467
0,53082367104177
0,524555475042495
0,510501447690182
0,557670097946382
0,502220551150456
0,568049837393558
0,520639218278963
0,540952866942851
0,543822884670149
0,561155803011609
0,541855755346148
0,560245749397205
0,529671676572944
0,590630222542766
0,520198969769271
0,58714148194043
0,566508755526245
0,564446979589048
0,535512907345878
0,586997868030348
0,577674737099594
0,598867548618939
0,55813023948326
0,610378445623696
0,570005485132742
0,599680593449836
0,574327586963177
0,591562494569743
0,561049591740215
0,595769668186142
0,57931411341796
0,61397322001841
0,599187217479592
0,618522838992864
0,59957969644813
0,635016214164439
0,586613886701346
0,61482610796308
0,633495125501932
0,628261196283568
0,59589661034279
0,653392987094745
0,616383441654571
0,630787044830103
0,608542830541775
0,671891458867697
0,611147407556693
0,655975446068489
0,634551991168097
0,702387412170695
0,654508961738192
0,65548553426834
0,634885932280331
0,677259753185869
0,654810805798301
0,698539178964983
0,652679228861113
0,707541599554254
0,67100727463514
0,698210315410815
0,649700904869587
0,714313137854204
0,672061953804011
0,67208164973226
0,632845773553167
0,712838860287646
0,661661952058699
0,721821663540761
0,669576370924098
0,702933526517954
0,715686329222335
0,724425918138138
0,696637877332918
0,783956213370032
0,714067684264239
0,743366338509609
0,721284318986593
0,771381470284164
0,707171095147711
0,767143910913393
0,718213151855729
0,76051718593778
0,725446247613239
0,795350524457339
0,711966527505438
0,775800292582741
0,73686634126299
0,795886223010071
0,722949567974642
0,777814133178724
0,774899880976443
0,820058086548811
0,782653004294718
0,840999527659927
0,734630873147044
0,824427000036056
0,767500517052073
0,80504015552857
0,791813243459775
0,794682374064154
0,7548861142449
0,822308271388624
0,765991149096521
0,813384173488239
0,778302788808289
0,862635896690323
0,791303971197809
0,845376171266638
0,827364651751847
0,88661840679378
0,776053143129081
0,808226381534479
0,84412216542207
0,873690854492618
0,836670755483402
0,866975707018265
0,802969137819852
0,948052071106799
0,84118314347945
0,872510101790156
0,863258598314957
0,942975563164406
0,795475852597735
0,875073918704156
0,822730376954076
0,84656865374115
0,872251792912465
0,866244787497854
0,853013038394941
0,921808997975202
0,865822258268968
0,867845425198174
0,855369314295381
0,909185123251212
0,850686032973345
0,906248227519808
0,868448094682437
0,92322529016238
0,869813051841159
0,899861814758992
0,871440495020838
0,932189520190329
0,849683133681892
0,966072049239717
0,911018206565972
0,935603680694024
0,920371188411291
0,952620814198363
0,8841654824298
0,88845839848819
0,870660274432185
0,924072008025
0,918753848020884
0,990972947146841
0,924016904779114
0,950322245642295
0,953571968270592
0,991340341174416
0,894840994892419
0,972413641631388
0,916745984999438
0,95891590961848
0,922943014005012
0,936901458670425
0,908772135717571
0,988999736525406
0,930331247661466
0,980740052542872
0,901364815595655
0,946346433962174
0,926622439953042
0,932481150756895
0,908347293198776
0,936828136901519
0,969042804943204
1,01159021802883
0,99645391140512
1,02710762309306
0,994479347943866
0,988589439861239
0,957964130544087
0,959062320722889
0,971706104005636
1,02505333734719
0,94081853498495
0,964335064922654
0,936442936787837
1,00262612504711
0,936259999941463
1,00158335178018
0,961012692521623
0,966209004525179
0,909347880637152
0,959712384151315
0,932268729613266
0,987916130354991
0,948048141103992
1,01846688615258
0,962706005453281
0,948911420394335
0,958439845439778
0,998171959399116
0,977218667275134
1,0553260437566
0,925235648473493
0,943544911865349
1,00248820151107
0,985873964992693
0,967007854687998
0,999462105629204
0,909816307180224
0,994182874940214
0,987272300766742
1,00283892114507
0,958442597033706
0,988511515003507
0,945316444185195
1,01395872346035
0,965812640110212
0,969500459671878
0,928840371238276
0,989269223564083
0,951181490352518
1,00371807589817
0,972901330385411
0,949764804842953
0,946944643749913
1,02487795582113
0,958312415286865
0,970637818223025
0,936790536308288
0,977299655074889
0,946906974534547
1,00943899172289
0,927310144322525
0,9926115795178
0,971612992859807
0,975145292652574
0,964426945126174
0,98427461507024
0,949780348432061
0,979570533073791
0,945312588272641
0,996579447407153
0,976744849371516
0,981493253663092
0,986020291080417
0,981188876468442
0,927244319674209
0,972753974348352
0,965979252672882
0,944257215095833
0,964616174867401
0,998973391987522
0,966414438320866
0,982932643936979
0,938880067976526
0,996247339095001
0,983750317756466
0,971248230196901
0,951866791052962
0,98317213733401
0,911451624499411
0,97551802414111
0,941804132394405
0,962165911985328
0,967479262666298
0,960914791084643
0,961237311728664
0,9794040601111
0,955208505621728
0,987240963133753
0,9389940640195
0,956660418805321
0,947341247450466
0,950282605840656
0,944482624509202
0,974741711526236
0,942126134610984
0,995642499743236
0,955826580657237
1,01469797790329
0,977176135909469
0,964730316447739
0,956759460833825
0,990137822452956
0,988731400690152
0,960163455967374
0,92145392458752
0,968735888131691
0,931509335320718
0,948878367650729
0,962606640889144
0,963562440827988
0,971113370355895
0,962399344953812
0,938351808043406
1,0159631840664
0,965365728954443
0,965646464800466
0,949218510460391
0,980278884930447
0,953787108598169
0,956280884384418
0,922791189885256
0,968522410183568
0,97472209058591
0,973812066758468
0,935752078191442
0,965700961992459
0,962288391530343
0,971897727265357
0,944130435802731
0,953435003881845
0,931659243115998
0,957607921258218
0,957903551522125
0,948358915589958
0,944348030416198
0,957231885932943
0,929634011456457
0,956579344148713
0,926963240981103
0,977530623779975
0,965171183407457
0,972563308919556
0,950059539986465
0,966662986253164
0,915605605219648
0,936331063067251
0,924208556822082
0,952120494144496
0,90989212783389
0,951486074015438
0,933687064910076
0,924082524890886
0,927510542749268
0,923108045470148
0,921163509309572
0,937093526279562
0,888236921076444
0,923172854508263
0,911166576729688
0,903819529654063
0,901548945193546
0,935359950794283
0,89810108835895
0,927764024353378
0,91906416333347
0,931116905321638
0,894114583414144
0,89426627041786
0,875833830275655
0,893763624065259
0,855339527554214
0,899668266543204
0,870895274578896
0,874968000099629
0,889792610772484
0,895906030036202
0,87308803334669
0,884426653832848
0,883470194756103
0,874595488466967
0,855812794120536
0,86456318456301
0,852550361806309
0,883896853094537
0,849904502403349
0,843965589093552
0,845929940914133
0,828575950113561
0,817723325321567
0,839865383260014
0,81543357142417
0,830149178903549
0,826694674348578
0,829357297764728
0,820178175499801
0,831815119450098
0,794856169697066
0,807770306781546
0,799914230139591
0,796508307793244
0,788961192506419
0,786396724137839
0,767121923915299
0,797445879945569
0,758550391206315
0,780714572335323
0,77913830614646
0,773608631010774
0,762418884296088
0,770346784180903
0,763780417218062
0,766723685302936
0,751712673463453
0,73721036092784
0,732029841626113
0,763385917365681
0,734694094502527
0,755736940611006
0,744083297390411
0,727835336613453
0,719725227798536
0,725906102986459
0,712627521910666
0,718553675652641
0,704789786539259
0,734418317876498
0,703896102041517
0,690400985288365
0,70126683534535
0,706923194921994
0,686620089635312
0,67911778512683
0,683372682171189
0,672548943738196
0,67381786696873
0,681159051939291
0,643105258627741
0,653650470587327
0,658667204786339
0,655391806976029
0,668843769594633
0,662848216185882
0,639777565156991
0,644525948853729
0,635916267193486
0,64086405890791
0,62755850029334
0,628352585600554
0,623234142220071
0,624095028815587
0,607842763434477
0,61789137841294
0,612708076102737
0,602502827703883
0,595084927199327
0,601205536695981
0,597465016269243
0,590409198758481
0,571152835182349
0,584701126969926
0,579903505388419
0,578975202740106
0,555921167292823
0,56981617094233
0,574461595187399
0,564743408524011
0,559482770166729
0,557682970792174
0,552219619677249
0,552154967175536
0,546734264388053
0,551110431407177
0,531032011089822
0,534841561733009
0,529346581801636
0,530323934098213
0,525295557326714
0,521031201390881
0,511918789910182
0,518072882830798
0,510295925043146
0,5107521479955
0,505638694718872
0,509018556722807
0,49525798425704
0,492735419584267
0,487235078877308
0,484040394600028
0,485555149262104
0,48205895949404
0,480962160746361
0,479347347534351
0,469662895617988
0,475243615915856
0,46882547187808
0,467142567847054
0,459724916788324
0,456520837054937
0,451619285352109
0,457223310435301
0,450549142392634
0,44468087830482
0,442342443962296
0,448064097313484
0,436752228210069
0,430376745847219
0,422718586180737
0,433339263757032
0,427507256277103
0,424055591255361
0,423161951674738
0,422847382615024
0,410095058440123
0,410870087416605
0,413278289674433
0,40875313952977
0,395450887383175
0,400396109550348
0,392087532903909
0,391659019840257
0,390809141885243
0,389076056200828
0,38149280597684
0,384217959457739
0,381601053378006
0,382338509700386
0,381033466017112
0,373181284206712
0,370643541300684
0,37193508299291
0,362151706667671
0,36512647557664
0,362182644089025
0,361616176224611
0,352154993341598
0,357335328690604
0,345098482381768
0,342746966216798
0,339215312085175
0,352834808145412
0,344105010474127
0,33455836018989
0,342019280148428
0,336038738776788
0,33094639554654
0,330733754105743
0,325904781785007
0,323023765006606
0,32282680393012
0,324225050829681
0,326130198682436
0,322237934203093
0,312544973410752
0,316975275395935
0,31073259587272
0,315769607603642
0,308796508516086
0,302059388854844
0,299544060202301
0,302037956126253
0,29370192983838
0,290449732563197
0,291653799621655
0,290723706857853
0,285402459157291
0,290976830447812
0,283449641702586
0,281313723356825
0,276314020016992
0,281055722452827
0,27979253558319
0,27611387586616
0,274624616642628
0,273267089078871
0,26954955192364
0,273373853145109
0,270139302305707
0,273428586643208
0,267093996709396
0,262931746791498
0,258969727925465
0,265215638299512
0,253433436123283
0,256855507757536
0,253080020245751
0,251966875618193
0,242103284323773
0,248882810039017
0,247678394326807
0,24711708797498
0,241683327994137
0,243156790814099
0,237254073808662
0,23566367790688
0,238002250680925
0,236561929216328
0,230585668088633
0,231978142348181
0,230490906456732
0,23613462329344
0,225399703967104
0,223271225487594
0,220977181224452
0,222758360757303
0,223818227404707
0,220146103723421
0,212786106870432
0,2198948943819
0,2201575429564
0,217865434958676
0,211632593581741
0,210365774409036
0,207850782852516
0,206662225360019
0,20257236642396
0,209275373200292
0,204660153856183
0,203803514397182
0,199378474129682
0,19845269150303
0,199315618888696
0,196569704470338
0,193378032344658
0,190251383006085
0,189555671834557
0,189560674416041
0,185400559531191
0,18993139186546
0,19046069543324
0,181322629467031
0,18504644811615
0,188467488478518
0,181969655147611
0,186484044951697
0,17650384862556
0,174894769356996
0,177905011948789
0,178531028611224
0,176944022974579
0,172819148091288
0,174107601892568
0,174419771473181
0,171238311431375
0,170105154623239
0,168237346542301
0,171137958686557
0,162989209109664
0,16516563078037
0,164205407278993
0,162534715370568
0,162923213112414
0,162120747640338
0,159994426816699
0,159257279384762
0,157125083517735
0,16121888999681
0,154298905497032
0,151912683616405
0,1536552769315
0,151272214215402
0,149594753595012
0,149653776535783
0,151475761433763
0,150438147896016
0,146672125498343
0,151106456653364
0,143737421180995
0,143208078350306
0,137493370058941
0,141814416824303
0,141311082795288
0,138307401338094
0,142323827426245
0,141027878938066
0,137784637058726
0,136550494294411
0,137323351670942
0,135493704259362
0,130075376406325
0,137141992515918
0,138714456640107
0,135578594087214
0,135541159393065
0,131944927721007
0,129266359138415
0,134659085869647
0,132300405733832
0,129467514236727
0,130021399303491
0,125799956707767
0,127833707653046
0,122744722878739
0,126484903280902
0,12238760910742
0,118849879207843
0,124311271074964
0,123389013305932
0,123421119390967
0,125424532164529
0,124973322707964
0,119922604251712
0,12035149150204
0,120074176715115
0,121665378947233
0,120939470298985
0,119324544665475
0,116720445355516
0,120306305431548
0,11562694876195
0,113119770390276
0,114914454762919
0,114690428702924
0,114518151774346
0,113551236792955
0,109451559973115
0,110774559875958
0,116392995274954
0,111270400624916
0,108405387674367
0,110090406438951
0,109313161857484
0,111010294541594
0,106848789708143
0,105215690419606
0,102643701895788
0,108933226614656
0,108980938437576
0,10281702657113
0,103190166104148
0,104698957846255
0,101936355070989
0,103145592214662
0,101399890720907
0,100004830075755
0,101759327708687
0,105981895905817
0,0997621115215897
0,0979241654341363
0,0969740251339088
0,0984334955825775
0,0984349790309216
0,0935709558139946
0,0958211101676172
0,0983699109041908
0,0940467162339808
0,0912309991341393
0,0880557857799258
0,0923539262968587
0,0882082978231603
0,0911843729264908
0,0933235615906763
0,0920316569301618
0,0878074259407269
0,0935721655492586
0,0922173564806542
0,0876613032695664
0,0902690799991053
0,0902540330399249
0,0903687561953966
0,0927382838726369
0,0887763708558037
0,0900604517548199
0,0881825993960476
0,0883079235474322
0,0862827385587233
0,0885743314708443
0,0849093925912342
0,0848669525817368
0,0858440299365579
0,0872317353297619
0,0853458984945255
0,0841548613936562
0,0814317796966643
0,0810847382123673
0,0817804055292635
0,083828586637294
0,0780404700944847
0,0823450352460909
0,079697968995419
0,0806434131787006
0,0827881143193648
0,0820024513818338
0,0807027251376771
0,0800702761139628
0,0808262041329647
0,0807646947298777
0,0821272349090677
0,0786604962722262
0,0784546290350958
0,0780458577690477
0,0775218122164817
0,0757801374481274
0,0795630581195646
0,0788345225827503
0,0751548944719701
0,0768877545436088
0,0795997576627567
0,0767550940194276
0,0754212827847994
0,0755277743181592
0,0743675623668207
0,080348719221194
0,0780759348100439
0,0775563019422167
0,0739987457830901
0,0734567005334799
0,071571071144365
0,0746397140253565
0,0747547518305887
0,0746032407355804
0,0738271420838418
0,071061217501079
0,0701057242666788
0,0707547869030131
0,0709272427793092
0,0729235829026589
0,069453536239581
0,071968101590557
0,0685837097878306
0,0704212213464691
0,0726522465713209
0,0723918872433034
0,0672505167638531
0,0715393186827682
0,0707313263928235
0,0703971327512877
0,0743105896872823
0,0705223261676129
0,0681703603179857
0,0673945993795424
0,0681332275216443
0,0680083933382893
0,0688906919265738
0,0652531955697499
0,069547609105554
0,0658981352269608
0,0685540199957392
0,0637595975551936
0,0697240020171608
0,0679032454896294
0,0672591861696206
0,0651431354584198
0,0646653873201344
0,0647867461584758
0,0662803017088887
0,0631679307419261
0,0661935743251576
0,0626187029373864
0,0653762332714333
0,063992500581301
0,068568982494236
0,0651831656342681
0,0651579466846822
0,0629934264302148
0,0602788523245903
0,0601724049366753
0,0614317334864906
0,0632960404470132
0,0616196093966835
0,0643785153860013
0,0615216325747924
0,059312092144635
0,0639800296436072
0,062693031357539
0,0640426984560396
0,0648766457920126
0,0631205868535426
0,059401782431147
0,0647984249420201
0,0630458287673614
0,0603617931299284
0,0603639012110299
0,0606086440558978
0,0602375526293577
0,0598848281205162
0,0610696614877069
0,0576803175079564
0,0569949556675249
0,0609346358639879
0,0587601549135909
0,0606410898795798
0,057592252340678
0,0574002443482408
0,0570411874950198
0,0588857190000501
0,058973887186576
0,0596052681381071
0,0590911132357825
0,0622292767971584
0,0594602377726042
0,0566597461125248
0,0593707765776253
0,0590961833564635
0,0555127918445478
0,0595438948613279
0,0600591414669897
0,0576634757062438
0,0595090363195849
0,0597220243368011
0,0569451976279556
0,0605213119042756
0,0559257893735865
0,0558642126489331
0,0561326226076284
0,0553552595026664
0,0556544063647836
0,0566666113602634
0,0583612654570068
0,0601687024987446
0,0570808553040832
0,053713482601464
0,0554784221986814
0,0571824727883105
0,0558549485678691
0,0563181951422256
0,0542265368143461
0,0524767487745084
0,0539420271342668
0,057135881691838
0,0558849783241345
0,0536887480940636
0,0551151073654222
0,0522588214426439
0,0561614104260159
0,0552541109974243
0,053968805137806
0,0559841856166607
0,0535264933148331
0,0555629909432261
0,0529396991312181
0,0541458276459567
0,0531652765257897
0,0523011074886607
0,0539751629882337
0,0542898132106135
0,0529953819998931
0,0536387014548663
0,0519055666536702
0,054153629317263
0,0532876161620539
0,0542062682951543
0,0537260111995459
0,0540553914625457
0,0520856638013459
0,0508549441704044
0,0518813000608649
0,0536011716243844
0,0517581085432841
0,0541661002590467
0,0513004765691307
0,0521193277999203
0,0537776614431887
0,0541083279209006
0,0545417674217997
0,0543379719862022
0,0563996423755573
0,0540157770115069
0,0531129225481558
0,0543148309165207
0,053280472430689
0,0516673592958391
0,0509967396643202
0,0511923796617708
0,0523412508694012
0,0529621426793151
0,0482662385567996
0,0503687661157186
0,0517014627808653
0,0516256486914884
0,0512825591463849
0,0548374952847457
0,0511892834941291
0,0539927286013018
0,0499634355587752
0,0519190646566551
0,054489438461746
0,0543824358177345
0,0475590732611112
0,0500026959077777
0,0529453954518241
0,0507927054901451
0,0503706790655757
0,0501294419696579
0,0517517671501343
0,0553907909432588
0,0522311876152795
0,0548134318061536
0,0479887952974837
0,0525263420464322
0,0483522756865854
0,0500545799352475
0,0519436594009444
0,0503723656890728
0,0502625090555594
0,0503088356736624
0,0480373996896281
0,0531898841664904
0,052926546435569
0,0498209359141676
0,0490862923230476
0,0488484137369386
0,0492997964920961
0,0516540524712807
0,0514560346840448
0,051254494019262
0,0501254389453002
0,0504952779371137
0,0501419649564861
0,0532093533752214
0,052088396466086
0,0516843300487
0,0492162237769578
0,0503197952583656
0,0505743375410419
0,0522906736120878
0,0496777421015732
0,0534242580472488
0,0500352119535704
0,047660447078479
0,0472668083872719
0,0500315818646109
0,0481207909030746
0,0515231237592552
0,0503117483399171
0,0551285749697505
0,047289364641321
0,050011270374613
0,0496380623479937
0,0523289731508444
0,0490462861986446
0,0481510896508444
0,0475106954374924
0,0493420224435821
0,0485412275261909
0,0507997824191435
0,0531031122142408
0,0505952214564234
0,0486850009677405
0,0515514977787122
0,0498859749674461
0,050683579229724
0,0477837586207326
0,0511377151559482
0,0485734325964057
0,0535631807507531
0,0533874700949789
0,0511519257186777
0,0488666735717275
0,0516350246013742
0,050489326608228
0,0511245058127469
0,0496261180577838
0,0512801639565942
0,0496523857981976
0,0510150725833966
0,047904643571033
0,0509792220624327
0,0531469902621256
0,0538384785635106
0,0509104984355858
0,0500653767333358
0,0530438825567
0,0536498438547621
0,04935301157779
0,0517307034545174
0,0505505661520652
0,0530701242084422
0,0530439623561795
0,0526572868979296
0,0526293313695287
0,0514085599716597
0,05149170217965
0,050409267457556
0,0501157315314157
0,0490105626366037
0,0481571884043535
0,0545603301894495
0,0511695689582819
0,0516322819097669
0,0542521304486474
0,0534189196464323
0,0505910839976072
0,0531754493400493
0,051553213889616
0,0500227953778997
0,0502816498702296
0,0512862823397486
0,0501050575997067
0,0524686382413774
0,0507625814602379
0,0528259875314718
0,0507338051210748
0,0545683592958944
0,0484244311302835
0,0525004756650409
0,0532765281350382
0,0513902760589132
0,0512669838491199
0,054801474448687
0,0503891664519301
0,0502798301368383
0,0502262392429075
0,0513020615966291
0,0516428219861707
0,0527735820373772
0,0503612143944854
0,0534144292364842
0,0532169565396717
0,0527862871835506
0,051369132426914
0,0509567725433508
0,0523584833445733
0,0533875702246139
0,0527012993826802
0,0526800532069792
0,0546883831591949
0,0549433072797886
0,0520710191164421
0,0530285669434243
0,0541883397875619
0,0512763825060883
0,0521849322929178
0,0555854860664347
0,0546244789607395
0,0526012827832601
0,0503205608283112
0,0550909353912517
0,0517318536964835
0,0542172827479216
0,0519211663203296
0,0558038913414532
0,0528862997184723
0,0527745467359875
0,0549210380425122
0,0541873371207208
0,0536588383334917
0,0507562222984402
0,0516188491010913
0,0535531244196879
0,0550670345668878
0,0579997604740342
0,0548773717805833
0,0529235474088987
0,0541649313281677
0,0564014365694343
0,0525667812630322
0,0554291445910118
0,0528746570005085
0,0532505995749075
0,0545029769837532
0,0543916101519528
0,0520127904418181
0,0567025891254992
0,0530826610333456
0,055435531149545
0,0534737543560872
0,0513103003393862
0,0525422884394785
0,0549860614675185
0,053836317005654
0,0517363527736005
0,0550103097048111
0,0573177178803153
0,0538915177674802
0,0546236895713767
0,0520082362119234
0,0568016111740366
0,0534350416456996
0,0532526718648389
0,0542172242678218
0,0556355323809146
0,0545684137584352
0,0530254240511066
0,0550353413512745
0,0562462836854048
0,0558296147956015
0,0568016673219917
0,0528461589876852
0,0564240412662046
0,0575189708193756
0,0578362121182609
0,0554156507967463
0,0553923150766158
0,0563424359647235
0,0550737068028746
0,0542089595058988
0,0560017077278388
0,0556093861284634
0,0548057461543882
0,0553231382676813
0,0580635930112432
0,0556800597613292
0,0581076758358265
0,0554068366554942
0,0552337767845541
0,0537190456179467
0,0572606886181084
0,0576954017913738
0,0588445506769462
0,0579333927463852
0,0593993072181391
0,0573107514683194
0,0574134426880374
0,0589556574238033
0,0577373888888938
0,0601645555844144
0,0553028731272207
0,0591537659943042
0,0579775790062709
0,055089506164961
0,0581747149305131
0,0568206987106083
0,0574869876069782
0,0565758841915001
0,0588688586052849
0,0597860320445394
0,0603786735502066
0,0583354995126349
0,0582666355750567
0,0617763643789717
0,059295178445052
0,0596980564525915
0,0603604527787417
0,0595689773214376
0,0585623748851991
0,0594362243294496
0,059569184451014
0,0606342327445048
0,0580483637106748
0,0597723642849312
0,058706100924555
0,0596055187166764
0,060441623150735
0,0595298148107697
0,0581007743043143
0,0586545112015585
0,0599229332042076
0,059923545971237
0,0610697495241254
0,0629811198161064
0,0591849406008044
0,0608049190782468
0,0615987515203021
0,0622402725126582
0,0610420947069099
0,0602767832320102
0,0607780292308922
0,0590269931790896
0,0618407531147511
0,0635349740013456
0,0622981404750359
0,0647763106586969
0,0600289026678356
0,0619584014820851
0,0673705201229852
0,0657138413208517
0,0682753544582583
0,0702505969810012
0,066087565138299
0,069332478780594
0,0685402191006645
0,0760520887204996
0,0715406533895754
0,0659401989451028
0,0665267985410045
0,066185052083605
0,0665374444705002
0,0790626499440271
0,0722895435884047
0,0674936535307219
0,0661742635783002
0,0697432171652338
0,0613335005845713
0,0764719674184874
0,0697546550434471
0,0713317766659701
0,0714958103729474
0,0694310929561057
0,0656678817874019
0,0717803856495018
0,0668313535045395
0,0757317849105897
0,0604875649797893
0,0677516734802231
0,0649716574756797
0,0694200973656944
0,0612177444919043
0,0786421902379678
0,0657819680174356
0,0723408661023629
0,0601719747656257
0,0752517565508487
0,0576840411527348
0,0813644252453218
0,0549515674955116
0,0869433863044761
0,0564101839879299
0,0903532920084834
0,0591027478248609
0,0895550103800079
0,0563466208682938
0,0912547433706391
0,0450238683276162
0,0854039372663064
0,0463739599674513
0,100231002954904
0,0556806855614721
0,102573100815387
0,0440880285611773
0,100011297583036
0,0497843839657877
0,104099996548754
0,0439227871218682
0,0941434325222518
0,0488792208847651
0,100132106015165
0,0561238299113408
0,0778703375095599
0,0693755779583673
0,0728166296070669
0,0755256804532684
0,064107431708532
0,0894530633019167
0,0534619993542238
0,0951821861725823
0,0529512032186329
0,0976398746199341
0,0504309822608674
0,0912203537570108
0,0583217444057371
0,0850216690456296
0,0668034838120164
0,0738377102570529
0,0714571761015421
0,0714339783557826
0,0724450425559767
0,0715522553555573
0,0712454441458947
0,0748224380259641
0,0667782892200886
0,0764053465438852
0,0682403715984908
0,0786489220004838
0,0671158978436538
0,0782617652796726
0,068002097632837
0,0767544011601479
0,0702951845779454
0,0742932093602761
0,0694419855212734
0,0751989164928912
0,0707460705983807
0,0764758168613548
0,069475757686422
0,0752742591085977
0,0700495178968337
0,0758199162704356
0,0721625094954903
0,0747932178814735
0,0729180370539332
0,0782384910639643
0,0695621749336052
0,0773988508427818
0,0717278499001761
0,0768360698880046
0,0733075136502656
0,0783887259822884
0,0728954728414451
0,0773582623393709
0,0744928527528174
0,0769313212551926
0,072966762583409
0,0796940233887022
0,0739933431736145
0,0785170865099312
0,0743268358785367
0,0807790829642862
0,0764942192578486
0,079921846391342
0,0723934108092739
0,0784417611758649
0,0742922358490575
0,0805384889658554
0,0742310186957332
0,0817338392374225
0,0755420225148029
0,0797229887198978
0,0746947880575957
0,0816116961547502
0,0769139468200282
0,0822182007450551
0,0785601870183814
0,0815233295809313
0,0771363995308151
0,0822228975505282
0,0792519807333206
0,0808189908198155
0,0772160226701014
0,0819401966801705
0,0779061559356303
0,0828282335834308
0,0760445581475372
0,0825971687315002
0,0794452776092108
0,0846939451689877
0,079627377401962
0,083571615811839
0,0789013958471269
0,0820163926476707
0,079455911036338
0,085033411637466
0,0777246564348419
0,0840816780632118
0,0801454366014067
0,0841208130092593
0,0811677144457834
0,0848777765500403
0,0812457613789998
0,084413331271664
0,0835143973904419
0,0861549525764583
0,0807232533657339
0,0845862818040619
0,0843688523429026
0,0873183462654835
0,0829597830931717
0,0872743390790669
0,0845254164552459
0,0870634678552714
0,0816879500044184
0,0868028210916523
0,0853002493352317
0,0879504448280625
0,0848147676245306
0,088023037485603
0,0853680784220018
0,0893488181125551
0,0835551101057311
0,0884174268252582
0,0857263262948469
0,0891571139718348
0,0855983011949849
0,0881603868616453
0,0852383516609748
0,0892915679951762
0,087363534483363
0,0900425434015892
0,0874395039502533
0,0895825762747056
0,0880168044579389
0,0912356481213169
0,0884004308011278
0,0908762436204145
0,086894898572764
0,0924712190867492
0,0874752141780587
0,0906771028360458
0,0897648558533576
0,0904787243306208
0,089748962978656
0,0892958608586365
0,0865509146047655
0,0953333664263761
0,0897132565609718
0,0937175943647254
0,0916645640353312
0,0933152322864109
0,0916348162994193
0,0960688319334045
0,090654960196001
0,0924917052963633
0,0911546098360467
0,093809154553787
0,0916296003875702
0,0932785916155943
0,0924130913106484
0,0972798272111038
0,0908326502064672
0,0935859116925816
0,0947873174030534
0,096520853548161
0,0907217842211024
0,0945051521459907
0,0926009850939165
0,094155137672284
0,0912574805937671
0,0982301539056177
0,0939501576206159
0,0973503377666729
0,0946329319490024
0,0967033217265359
0,0946856447655898
0,0973228590322693
0,0940637960251945
0,0983873957519502
0,0946904752850855
0,0978536718579541
0,0936239607477215
0,0997168746586914
0,0968587044342329
0,0972241428346621
0,0948021299780319
0,0981713845649209
0,0936007493587605
0,0980584470920552
0,0971499022861135
0,0958808903611668
0,0923886010186566
0,0965836539345575
0,0953850113699214
0,0996322296386566
0,0952169966371276
0,097629188807647
0,098144792443957
0,10009896082361
0,0958623801281812
0,0993918987808442
0,0963660653134151
0,0985053699858773
0,0961458334407263
0,0982110469087182
0,0977100738992467
0,100106433619923
0,0959362874227191
0,101691433884017
0,0975169852797489
0,0969563357459148
0,0938730022173501
0,100996673912917
0,0982079819773316
0,100013483275143
0,0950213160327925
0,0984220517918031
0,093299992292825
0,0974724870747056
0,0980496734918306
0,0991792255508163
0,0970114427624668
0,0980965429402851
0,0922688040690317
0,0981948771842234
0,0987543838920732
0,0983951775170503
0,096500249995443
0,100217423055512
0,096925568576512
0,099920899642692
0,0983515590765929
0,0971205542060066
0,0937691798135262
0,0973128504526159
0,0973231906326595
0,0993894062808383
0,0973870309664498
0,0981867950780945
0,0957347690343925
0,100195977342924
0,097807629654681
0,0992437749945042
0,096919242827756
0,0987370580288644
0,0964876852765261
0,0995230964971383
0,0965123977505996
0,0977893303269927
0,0936890203780937
0,0990434079302018
0,0958881315461964
0,0977664994776225
0,0953055787556886
0,096374990183989
0,0941259835503041
0,0971370139577922
0,0954316663393656
0,096526292279047
0,0938256638180138
0,0964509785422653
0,0929177452334446
0,0960108889733402
0,0947747575669942
0,09439100688294
0,0929534502798066
0,0969514876168934
0,0968969821683889
0,0975764255586195
0,0925922391480037
0,0950848420654965
0,0954694037605072
0,0958225541143376
0,0913141274303594
0,0956444050247963
0,0926558023308856
0,0946370748700489
0,093131085764882
0,0946287262349229
0,0935403507635545
0,094946526117935
0,0911846125612838
0,0924016078595024
0,0901710255446281
0,0942357813220997
0,0926871668860721
0,0942989402834589
0,0913961719429051
0,0926399553946118
0,0927772664610238
0,0921734510806103
0,0890053066934235
0,0922583759744705
0,0918223555250163
0,0925886591489133
0,0906070509084124
0,0917538233808498
0,0890186864339217
0,0916648605224903
0,0886072862622938
0,0918828355387022
0,0893076897637467
0,0902955757485605
0,0872607103061705
0,0878581784049862
0,0869961698008904
0,0908054557664724
0,0868171333779604
0,0910705637370686
0,0890084588058147
0,0907409307713038
0,0861088282737375
0,0879113366010834
0,0871190112140176
0,0873178446866862
0,0851162803621709
0,0886159778065793
0,0842146650197129
0,0895203174989367
0,0835329064094356
0,0874524646668366
0,0841104038979274
0,0868085228388462
0,0823494587315069
0,0902138328895046
0,0850837462364297
0,0857420330314991
0,0838085583609192
0,0851320890533771
0,0830664481704202
0,0840597473576593
0,081785898817968
0,0841984699809341
0,0826034756976542
0,0826841444211507
0,0817279134311875
0,086548726563512
0,0815953813010868
0,0816925044853325
0,0815205086568922
0,0819553963955749
0,0839885266774942
0,0826013260304731
0,0800768379934316
0,0804961039838005
0,0798248322545506
0,0829307789302807
0,0802927919627575
0,0778495934789661
0,0805759090635929
0,079033613439756
0,0810151556253621
0,07983087184943
0,0846602753872087
0,0794819912823168
0,0789047721363813
0,0791799270496459
0,0796422639604455
0,0785742236484056
0,0771113596490564
0,0802524171604045
0,0772475428497714
0,0782331520968064
0,0771346073367288
0,0762291741727004
0,0748634237308574
0,0766620167392707
0,074404545263484
0,0782381442922886
0,0763538435893403
0,0772506878529425
0,0730757162062469
0,0758774962930512
0,0750943272308015
0,0751106306561118
0,0741637266069036
0,0742515467048526
0,0749348225737837
0,07603007277938
0,0764879390577758
0,0753392553357174
0,0688184317713045
0,0740142199499551
0,0722818624254254
0,0752155053856643
0,0701426288519837
0,0758948983126242
0,0729910439546605
0,0714307263293467
0,0703538186119935
0,074552282085811
0,0721451077933484
0,0737563260599152
0,0681029179876504
0,0728351986320042
0,0683935962633244
0,0716196941925805
0,0694262898053048
0,0714950448986328
0,0691110946328443
0,0738991433098306
0,0678294284223221
0,0739045509880092
0,065999703298685
0,0744224520902704
0,0687249847269635
0,0770728197673245
0,0665029199977283
0,0700621110176997
0,070111807014251
0,070612145394623
0,0697565383139969
0,0685535142848765
0,0663982059446144
0,0703058232090869
0,0672470090216801
0,0687447791862003
0,0659549767668982
0,0678162734265819
0,0675695037265899
0,0694082260533363
0,0661279766389272
0,069256208235171
0,0677717584925597
0,0655453782353498
0,0640378711143742
0,0674116693295186
0,0669396560621132
0,0697209120705463
0,0603478900967435
0,0685717654147657
0,0689115712996469
0,0700376469642604
0,0710690444504177
0,0620048532191624
0,0689398522284171
0,0629222225916547
0,0680323640988808
0,0614822829672604
0,0688184874732295
0,0607386821509602
0,0671769698500883
0,0643740244717925
0,0636069830973296
0,0638194626792513
0,0620826966838258
0,0643417183339181
0,0622853142594524
0,0639793649334282
0,0636345162135294
0,0647516208538049
0,0628165095462885
0,0629426721880316
0,0619400489752633
0,0634730315508148
0,065719878584086
0,0628713023599325
0,0669626255110691
0,06259961323143
0,0653098517656003
0,0597087759719329
0,0652608811828223
0,0659658695777903
0,0669951994214784
0,0623856001139236
0,0618371425751781
0,0656822897736934
0,0620220996978501
0,0656411898523622
0,0609314888190758
0,0633840939023166
0,0621618418694593
0,0636776293639604
0,0593342770585098
0,0648464122334537
0,0590008270238921
0,0630658893563066
0,061391150092653
0,0624635932125924
0,0612238663604825
0,0621631207282518
0,0611128962834439
0,0625264761857489
0,0660473962574918
0,0663337623031386
0,0712351437953836
0,0605356287697237
0,0658942476286132
0,0579256428876588
0,0628825630332759
0,0615642592832771
0,0617064737610681
0,0620697314032813
0,0637496980878233
0,0622109269314461
0,0629077408195117
0,0626276678131101
0,0619670260378231
0,0635146901887559
0,0633083983378697
0,0603047252526134
0,0596760618591515
0,0640447525231707
0,0594076131330506
0,0623623521819849
0,0608892727076291
0,0672735854641559
0,0605677214029294
0,0676523305785407
0,0557860589050644
0,077875958568888
0,0568359839265917
0,0788456588169838
0,0568925698473348
0,0666586191382526
0,0609140258349752
0,0665697386306823
0,0609465634200844
0,0621280708057368
0,061076011744614
0,0641400480179642
0,0607172983933763
0,0659835982111708
0,0640843824388297
0,0632581987041354
0,0659912211716811
0,0712469317121526
0,0675683368360168
0,0679916913348907
0,0576508633788969
0,070721811174371
0,0652451787302008
0,0742568254858285
0,0666907729409338
0,0608226876958838
0,0700589883553174
0,0634908622855666
0,06557429655699
0,0639819458295158
0,0689926660820215
0,0689101368798024
0,0664417238311126
0,0626345554245714
0,0661958309641617
0,067078143589755
0,0624780506115129
0,0718845197811331
0,0655050636863464
0,0671362201282253
0,0685051537161704
0,0650265870156594
0,0689467853106303
0,0658586784631529
0,0704889668391945
0,0631790022002997
0,0715620822913097
0,0677023216395636
0,0688377896760241
0,0727782658357981
0,0690771497071705
0,0707633188048387
0,0704441395942779
0,0672525511565842
0,0766654959314274
0,0632003884552257
0,0811567869151519
0,0669062851233787
0,0831955487752104
0,0726220517445609
0,0717390024444416
0,0772805270954356
0,0680644934091599
0,0753535011131288
0,0658981626093421
0,0839158661316013
0,0681282400363737
0,0822528742654936
0,0611294081194101
0,0861845982689166
0,0622846550432325
0,0843086001144757
0,0722671952238355
0,0804607464913368
0,0724257475627018
0,0828412230504787
0,0719458694074749
0,0850041700085965
0,0784816548809028
0,0896494952877745
0,089385623454958
0,07631987837244
0,0842582939651725
0,0871678160245274
0,0734756897904157
0,0889779609595071
0,0749330736878918
0,0897485445054759
0,0736750141912077
0,0910429963949118
0,0861366602856696
0,0905504481107024
0,0890778794654989
0,0854573484378888
0,0853824741644751
0,0990568419617433
0,0845174660029934
0,0950858855140188
0,0847850402324824
0,0968018755187887
0,0841617455423655
0,111875084853321
0,0761098187908126
0,119687389942531
0,0891367648121203
0,109742780628522
0,0978392286747895
0,106320827410825
0,0984404098352775
0,104693480534632
0,105106909870057
0,107617552965547
0,0989753555268477
0,111863966502795
0,105473430082528
0,109062380666851
0,110331647135504
0,104952385064275
0,117125659428777
0,118738604740604
0,128619407314549
0,13249666218293
0,118655804998512
0,116918462106675
0,125158508519556
0,125574788571589
0,129112829433758
0,12013623938898
0,126180162927067
0,126490306362686
0,128442421914282
0,136578464333522
0,129905256219716
0,136871553494779
0,132925362451111
0,142388886578638
0,141382915180282
0,157457412607932
0,155631098867446
0,147132279314895
0,168736575423612
0,142628151927007
0,166749421656957
0,152083282260418
0,165264861878891
0,162586665354675
0,16962277681184
0,171419063176539
0,169517267771439
0,186679672299204
0,17633006794017
0,190697630447619
0,189618288476155
0,191798895224713
0,194160721389597
0,195671505364659
0,242026901849935
0,153917017659119
0,241399901581766
0,187953443986331
0,236822099577205
0,220084235204731
0,228774502214083
0,230252206736326
0,229105268522969
0,229660990062506
0,238272430092822
0,23918072343919
0,252207735449295
0,252571670221126
0,259777459847371
0,257009855676486
0,273876452565837
0,265111724438142
0,315571445409454
0,286322215982634
0,291176225773646
0,29089358179928
0,301880958938614
0,300536194441616
0,307221085649737
0,2974727739041
0,319978004530643
0,327089625412721
0,32558803106507
0,333325373096103
0,326409996369168
0,348182277139281
0,322160826988754
0,37089767903783
0,327808576932567
0,375822214429617
0,352735087570723
0,370323450804183
0,364305653091421
0,377721573926091
0,390407390730714
0,382141316330854
0,400990977420495
0,396761649969052
0,402988307724685
0,403550606185034
0,411543585415767
0,417986546157335
0,414146771198752
0,435951795961805
0,426821389349294
0,502515098562429
0,43799167668067
0,467340571536535
0,441388265284671
0,454351837029644
0,461177434987863
0,455947273102539
0,485471843103638
0,466757729620114
0,484851294668137
0,47701727093424
0,475629511567936
0,485387883755563
0,481544645312544
0,488319080685666
0,474287624342773
0,507325299591013
0,479047811026095
0,515642465177398
0,477101843276219
0,50991788379031
0,50279911921673
0,492327784429239
0,492497680164165
0,491476282845274
0,490235343699976
0,481616817912912
0,485123278634104
0,476238299991856
0,500635390632406
0,462352287496835
0,475848867443071
0,472570200641835
0,476669589465988
0,463614218834201
0,452809972536693
0,447962716417743
0,440259386221012
0,450528479595215
0,448859968985366
0,428085090531691
0,430825195511925
0,404935092100451
0,412121905904723
0,400739994225289
0,400779011447071
0,394206073192667
0,388469491137127
0,38144044664394
0,383812945755841
0,368061789069723
0,372376353822546
0,352981351878258
0,359574733502349
0,34926325617667
0,351491489746046
0,33714601490482
0,33581626470642
0,324499830563507
0,32563592057396
0,315193005086892
0,321861293889826
0,312033133939744
0,310008114456943
0,305705490494526
0,306117173442298
0,293541842575481
0,295426356743816
0,287437607124507
0,291480367433909
0,285859773235913
0,281223987142879
0,273553609848221
0,277032619244739
0,271904471944044
0,267761355182192
0,268828117006212
0,266670850059561
0,262996451898223
0,255945090441109
0,258605802141587
0,247261583228826
0,272532407079045
0,243100641043787
0,256883390593243
0,243384406778394
0,237449102249544
0,249658768390412
0,229673748446945
0,253846206247033
0,225968879535681
0,243587480541955
0,232128001325839
0,230193764543466
0,228542518279188
0,231955959964326
0,225970940368215
0,234569169549572
0,210130779310935
0,244474897226327
0,202457246183048
0,233863769113242
0,255087235264049
0,225652505995274
0,210057517446149
0,209931389864098
0,237873453757659
0,200898373533455
0,219074843644921
0,196707034885461
0,2153214697241
0,193869688928233
0,213062742927222
0,205722252685456
0,196795137760477
0,206583139263814
0,210963079905006
0,202782818967508
0,206604211380896
0,208677032230646
0,198307289316253
0,214431285596763
0,203078243972271
0,214082051236674
0,193368420800205
0,195790959955937
0,185433649690849
0,191744877763602
0,204772457943944
0,181355409885864
0,200223308792627
0,183127638000504
0,186464987872815
0,189294523707579
0,191569097867927
0,195459684255678
0,176513168926596
0,209192807864842
0,168572653959238
0,199556698106903
0,172899395883817
0,198105888331879
0,191596347248014
0,199876202050253
0,176988733250595
0,186468355856424
0,196262505570974
0,178819812469757
0,191733830802815
0,175360846216435
0,176320745443533
0,191192904159537
0,17370787733987
0,183576468030886
0,178174194086186
0,186176448353361
0,199869632325456
0,1839854916582
0,20979045305336
0,183520425500304
0,169273184518657
0,17243178962759
0,165563825154424
0,180330973487872
0,159809850476626
0,182848594911044
0,166726696914291
0,165992902011202
0,190274787980049
0,153735751303827
0,170993385766885
0,165328881287176
0,164756026753952
0,168575145348346
0,165509105153966
0,176117006018643
0,172467660470589
0,163888080108425
0,178670279207759
0,161385190874357
0,173095375268181
0,155846484689175
0,16914278518482
0,157971154404244
0,168258496128043
0,163700502175796
0,164773661523258
0,159828677719915
0,160862340255509
0,15710424359655
0,183937720417238
0,149155820645778
0,183123828603978
0,151063446186103
0,191119869189742
0,165899548015184
0,167664660113417
0,164855871824703
0,160291211961441
0,165725930636741
0,15913786241074
0,160149643830498
0,182733921983044
0,148231186455629
0,17367559317841
0,150739462416359
0,170408946974176
0,148243327626848
0,174186987117612
0,155007305271813
0,18276773179046
0,181653010433053
0,161518535439812
0,174804669587929
0,152411896788333
0,166299656101558
0,159180961439263
0,161303366260908
0,161157461997595
0,154922756768797
0,173593110769645
0,160736294050172
0,165371846788553
0,158697801044502
0,158457112584275
0,158516690137786
0,157573930374659
0,15972787839078
0,155925571680518
0,160738695721091
0,160137365500659
0,15064419943766
0,184351079229926
0,153365193515831
0,162692886192882
0,159740189672672
0,157445469896299
0,162135891100383
0,156790105984451
0,164582786826144
0,162190736524101
0,161633472280874
0,162625652905156
0,155079850752758
0,163384984378479
0,152950504770537
0,171740409296802
0,152749649304546
0,166472230054904
0,151332095669329
0,161202219089766
0,191554841945133
0,149469167188751
0,174940687061519
0,154807665756643
0,167000556001845
0,151103057967857
0,160267854460471
0,15497754065994
0,164727833673312
0,154419102222147
0,162831070221679
0,157891911273805
0,15872683574018
0,162154233860396
0,155119918881281
0,166195090840298
0,15853223850819
0,161005642365998
0,160241693176897
0,162474082717699
0,154410637726424
0,161014949140293
0,163373240783111
0,157899544662221
0,165877754299897
0,151929540722263
0,170926986871992
0,163538447113085
0,159739799014599
0,159545314528695
0,157792322383763
0,156215904517444
0,159330259835515
0,151772549255228
0,175569295867785
0,158463925004587
0,167394492387223
0,152571740273581
0,159268939334559
0,15484260298642
0,161172661559565
0,155633015342768
0,162940279809297
0,155407405093112
0,163273114264702
0,158070383212053
0,160694143158814
0,158343333597978
0,159070926413937
0,167656461679682
0,164833910435705
0,157015952031567
0,160668047669187
0,153652071422402
0,163936084334692
0,155152610056295
0,162275131523554
0,152981677361319
0,163996683027833
0,150400591663993
0,171543261046203
0,156528110352682
0,162552788228671
0,161081924499955
0,154216894631068
0,160203243146806
0,152879467830571
0,15803920136493
0,154447795744697
0,159986295993088
0,154807474881088
0,155270531207023
0,15555510765265
0,155452317915097
0,156037072592296
0,156212708900333
0,154385029762419
0,154746213517494
0,156381729748104
0,155291160390203
0,156318551460335
0,150348124243796
0,15651371403352
0,151052380482906
0,158955294733786
0,163087790850716
0,156977053134098
0,161975406921512
0,152850587254369
0,162306381535866
0,152317800313214
0,155755987424962
0,152710719836677
0,154222298738236
0,151470758790703
0,154783923118472
0,153219733522446
0,156341370806374
0,154017805749414
0,151425735938554
0,151338756745117
0,155766636795404
0,153333950751002
0,154654914717472
0,152552809773698
0,154144997389653
0,154256265390471
0,154645218189362
0,155847513745872
0,151139737120432
0,159892648328953
0,151329179345127
0,1561093937351
0,152801700916453
0,15439238061781
0,156010327412641
0,152797178313107
0,152758064072366
0,152828359961495
0,153817466429144
0,154202202647875
0,152459098594087
0,151664533279115
0,153353324155894
0,155801264403891
0,1524373736977
0,152294293625662
0,150211668681995
0,152141880007381
0,150217781472934
0,152216076585351
0,152116729335914
0,154002276244968
0,150226392958642
0,153269763138235
0,151375412144735
0,150868446023384
0,149710328944827
0,152358133402724
0,152263367252957
0,153559685445341
0,152299218103387
0,153947956270184
0,153297223037983
0,151743875691002
0,150105915265993
0,150581836947223
0,150883956876956
0,153240253563741
0,151398992708866
0,151658030010027
0,152133831762942
0,152726955175479
0,148562494901702
0,150457863450002
0,150442828654141
0,153405929643716
0,150663954202193
0,152294157031984
0,150839679591485
0,152104080302576
0,151951982409847
0,152009746604011
0,149260201488673
0,15075290083129
0,151412444340093
0,150634597232075
0,152494930009727
0,150794482288561
0,151278501115778
0,1505460685649
0,151561270723708
0,152083022729205
0,152167389818016
0,150239792494878
0,151108409866781
0,151069622475837
0,14930282823113
0,152599165530674
0,151385865575867
0,150448355107961
0,151693674159726
0,151109878955113
0,149666986448178
0,148577292648747
0,150842535839314
0,148991434186746
0,150659390784881
0,149639507053656
0,150896921573878
0,14981938431884
0,151129756140917
0,149898119664337
0,151175583691497
0,150559816662629
0,149732628901549
0,15009180323249
0,14801870119481
0,150391651947062
0,149760330568198
0,149815141222435
0,148643305082815
0,148832575969532
0,150765622252021
0,149486967313011
0,149980841266433
0,150652396115891
0,148824178165208
0,148503482347107
0,149591423127728
0,15095380351906
0,149894132317973
0,149435624867432
0,148036710269122
0,148727769667699
0,147404982276612
0,149441966460003
0,147439322648471
0,149456036810421
0,147233118150865
0,147156050073096
0,146996452893694
0,146707944328561
0,147321502065076
0,146821563205066
0,146670864661429
0,147155649780158
0,147990910172127
0,147241834632177
0,148415847496809
0,150052866712053
0,148125507001868
0,14797007060103
0,14817986853363
0,146231375640626
0,146801415009475
0,147913282530166
0,147698534279731
0,14719595793064
0,145364548149211
0,145193382239063
0,145007183311642
0,147742524909374
0,144891728265201
0,147053386667212
0,145744582875866
0,144267829648881
0,145842920608106
0,145051099787424
0,146515834983532
0,145312809202669
0,145107681515819
0,146420262315541
0,144389562704444
0,146231135482071
0,145721646230728
0,146171000882458
0,145252848478097
0,146499562952806
0,146048456540421
0,147124230106867
0,147386296683716
0,147803585702248
0,147847700514022
0,149504168573336
0,147437390272044
0,149193576958569
0,148866107222804
0,149254970265056
0,150892595605619
0,149746113878049
0,15117401462484
0,152461576175939
0,152345883815106
0,152952987000943
0,15440940305814
0,156132137851436
0,158216277541782
0,156659479772873
0,156947796004387
0,156149437132875
0,15687310100166
0,157378139922835
0,156650805990625
0,156956132026481
0,156467439230595
0,156867528729583
0,154833571374568
0,157368127831751
0,156327209397384
0,156906346053966
0,155226281084891
0,155849754191812
0,155000415590204
0,154389921272208
0,155188212563513
0,155545963506369
0,154353222462883
0,15369638603228
0,154731041032164
0,154128824987455
0,154468111061686
0,154690736040289
0,152164665298067
0,155240256481315
0,154089935654611
0,156029422352951
0,155053349993673
0,15596731382852
0,158249842316136
0,156037925765067
0,156108898310488
0,159330292824224
0,155900665218396
0,158526412163005
0,160136772595708
0,160768024147469
0,160172342729364
0,161067487900405
0,162793151310292
0,162281766520783
0,162316862208021
0,165396918679978
0,16389242480898
0,164163426035604
0,159796469671069
0,162759454625776
0,162456021540207
0,16274112682584
0,161682271485622
0,162760928503937
0,16128046135182
0,161839507489091
0,160741897880779
0,159956846848266
0,161255675153488
0,160222364594663
0,158889855984213
0,161745830704897
0,163554108571421
0,162618719227983
0,162880448408945
0,16501789421837
0,166626302041798
0,167992730112854
0,166883171244793
0,167381318406005
0,167668816717131
0,168979232028134
0,168913874266293
0,168760785216233
0,171382754781729
0,170254269774263
0,172953841916883
0,171804525082239
0,170362513382553
0,173587683254267
0,176415172706505
0,175421837109177
0,176942035757835
0,178678026609759
0,178399556059914
0,181148318117881
0,181533598898597
0,181810401812586
0,183061949262352
0,183570156349481
0,184768162457582
0,183683900665182
0,185549257755478
0,186647332826186
0,185649431370475
0,187884077940949
0,185584710519149
0,186822789262692
0,182970021883339
0,185713093334832
0,183421755710471
0,181813373762332
0,178963835673844
0,179656766137889
0,17793506861138
0,179402575791101
0,177232714689886
0,176955237648458
0,176725729175764
0,178560451323193
0,179659535282681
0,179313820744366
0,178028267836853
0,178211617962765
0,178382543445724
0,179268743023321
0,178476790839445
0,181896388393389
0,180548475134236
0,182038954932636
0,182739906831759
0,18269618279384
0,181364789111633
0,182437992810876
0,184536176527376
0,182101328049197
0,184160923453191
0,183887548650643
0,186015015308659
0,185512828734122
0,185990522416995
0,186548098465952
0,18609557161289
0,186623091952257
0,184489005171086
0,185564211944972
0,185840267494999
0,183092680771013
0,186313887109481
0,184910797023316
0,182979817109733
0,182982488632356
0,18343173944483
0,183904575416347
0,182950385900448
0,181971045900782
0,184874605098863
0,183568962600146
0,182054665893038
0,182388665190209
0,182039420404375
0,179997840835899
0,178101120091943
0,181064651984949
0,179171485064569
0,175866431483276
0,176680075308261
0,175060441118195
0,175507337300091
0,173321760351906
0,173067501243986
0,171980905681068
0,169263487437488
0,170352913012881
0,170131796960685
0,171948326323586
0,171209949066087
0,169013705097956
0,171581675797394
0,1724645903404
0,169306586437085
0,172071683684612
0,175172964825808
0,175570952329564
0,179643493283161
0,178297683617598
0,177923685039962
0,17758190991191
0,176239798154248
0,174123203594448
0,176137477032727
0,177341672110006
0,175809636468258
0,179069253608201
0,178953966876977
0,178357509523506
0,178907922924487
0,178044857605944
0,180394496569407
0,177771003086707
0,178856574866968
0,177423378394558
0,178048659270737
0,180347223816072
0,178194336447997
0,180573831325937
0,179533667638233
0,18028183918143
0,179042863453736
0,179691015589622
0,180182022428844
0,181637651823384
0,182094863078733
0,183977469063106
0,180240666725873
0,181795314234944
0,182168636574157
0,185090948922365
0,181863051617027
0,185036938648736
0,189337733634022
0,18736654030328
0,187070777849669
0,185108403698159
0,182042372386912
0,18856872700643
0,189120780471148
0,191933657176775
0,194375937291845
0,190788743063303
0,191187212058758
0,196329558039331
0,196125646697683
0,194988879736869
0,196645683436583
0,197808185544485
0,198031142813284
0,196575193179451
0,199172171982214
0,200656680592538
0,20180277382534
0,204085676520824
0,20248230861573
0,204212716623078
0,204626616804529
0,205592974271079
0,205007501327934
0,206748904694431
0,211438553200346
0,210382326217059
0,209706680915094
0,212615765768253
0,214541471479042
0,217190852220004
0,216950751304403
0,218307607830097
0,215697525846435
0,218910453668065
0,221042256503653
0,216382900793521
0,224645220930724
0,224197751520106
0,222118601437528
0,226951707997542
0,226298100312032
0,227290892674045
0,23023299558312
0,227972320712291
0,23503633948816
0,237046291900566
0,234351336522355
0,237780041778881
0,240594439355578
0,238747876443082
0,242704966021348
0,24672199208472
0,244677889671112
0,244678438722865
0,246631581588256
0,245775238319087
0,25081780259749
0,249577787596532
0,252479208246484
0,259878508970018
0,257316747028038
0,256923501803188
0,265298917026722
0,259337899033514
0,255884921319243
0,262055892877347
0,270435009685565
0,270367087188682
0,270486372876093
0,271403189892842
0,270841872091094
0,273142516665347
0,273600729583898
0,279604070469817
0,289324466306379
0,284185610478514
0,287083779970442
0,287887031141497
0,290309620521699
0,291915176000488
0,292450005891635
0,294548777559254
0,299177874175514
0,295792018153484
0,300857404286468
0,306834268269117
0,302423550044313
0,306155230429977
0,307350817280719
0,307584245585094
0,312169650748496
0,312137551851157
0,318931630534039
0,320745777762083
0,325262065786682
0,333154961095603
0,333491878740027
0,328615569257307
0,333289738184006
0,329162404187547
0,335855239091133
0,337388000945021
0,342064850832993
0,340882070747091
0,346231790053482
0,357564155327647
0,352983433802775
0,360109452482365
0,354528283809773
0,358869408425739
0,361730618498515
0,35625791655548
0,359726351818832
0,366870305635114
0,368389960876642
0,366741785280708
0,372849146415472
0,373331937703013
0,376869709827409
0,37551225567973
0,372961585619883
0,379530732487192
0,386630860330858
0,39321435655375
0,399166449764972
0,398712671909681
0,39633835098268
0,404960403407744
0,403649210029674
0,400107871826059
0,41120143722008
0,417400664172507
0,418041237028619
0,419078716058726
0,429098246517438
0,414874274583673
0,431662517006491
0,425500592079601
0,433275606677578
0,439044704703968
0,436562208472924
0,435654995558223
0,437271043769548
0,441173449368867
0,446229442381371
0,452171818104904
0,453788803526518
0,44107888427034
0,453266535727027
0,462009166967907
0,462900365192104
0,461062858800227
0,463464116178443
0,465369770109856
0,465709040973774
0,468464609378704
0,48491450989403
0,483847151269076
0,482856078952461
0,487020900849753
0,483925045875795
0,490977174180719
0,492304051004585
0,510422376259432
0,519228320141978
0,50523031423798
0,500131201606909
0,50356956164053
0,515322196399186
0,522549995549175
0,523115834416058
0,520220799027676
0,534480087421538
0,511735317904468
0,527491475999378
0,55075393853052
0,552115611461534
0,525940845456783
0,526874134049349
0,531002431738693
0,543019971177629
0,551025082770407
0,56548144791392
0,538003050854173
0,550540243220278
0,568421367997233
0,554387969955223
0,55686936366355
0,598339633214401
0,580143901249665
0,57054802931165
0,554840077922079
0,573520505974161
0,566930095826667
0,586635818610189
0,580718068343366
0,606616626847175
0,586005216650963
0,595154826548755
0,614495416584356
0,628393121927176
0,608160867788392
0,620921834386236
0,619830560387809
0,612968720838623
0,608762181788526
0,641587650701853
0,622630534629733
0,634889217919254
0,611398693193533
0,639364796805513
0,62195343577723
0,610969153594725
0,620350085239982
0,620668446953152
0,641365476629678
0,680723042716411
0,667891221189236
0,665788029536753
0,675726715630552
0,675195928594905
0,663847047082583
0,673889386817109
0,669127556178234
0,679889664437219
0,68104569025239
0,66698702101329
0,653321156500165
0,684319510215634
0,694880276673318
0,698460496969612
0,685506291137102
0,727663272962526
0,678458036317055
0,722725448415116
0,697801249436704
0,680673725028256
0,730429072470089
0,690585674066993
0,718643038192569
0,787963925384409
0,724750296342582
0,705342531644241
0,698770892944242
0,792227613289881
0,745069061918079
0,721543785289575
0,721069342779526
0,68159910662759
0,727914541653848
0,761798507131484
0,676521270346033
0,761010138373816
0,782100772201881
0,758761340037062
0,776080237969923
0,818714759194474
0,740415427224134
0,752258772171971
0,793012522654295
0,816432993179728
0,802640084633164
0,857775636613669
0,841294211089489
0,81344151307465
0,775886136466047
0,798896928252894
0,785909787327706
0,814460661966119
0,726559951132362
0,74697862230978
0,799505818978202
0,889524829958372
0,824655285612567
0,78022208029736
0,772187978009743
0,854201710274029
0,783956485570889
0,818590123555378
0,989167910860356
0,878558846243717
0,700732590664491
0,818656051935845
0,852657801144637
0,841608407263912
0,810123723561087
0,867274613030335
0,876972268092076
0,881646973044961
0,871234240005894
0,751789360037071
0,79090859115705
1,08419089765886
0,893081230312097
0,963328737819049
1,00041869027937
1,07618369742414
1,06082335571804
1,07125069810433
0,813216469599478
0,735832059122514
0,766540725349914
0,810025522587843
0,712498945626754
1,08246503062222
0,987465973099128
0,807153346100059
0,822591614643065
0,865117475419635
0,772722268854002
0,728599656866478
0,799706684387452
0,845965225816762
0,875495612268946
0,848917607167433
1,21839813594184
5
0,769314294183348
0,662218560738255
1,05437470754759
1,19251446572497
0,751725114432112
1,3719608978346
1,17758827790548
0,886020532924262
1,35568998222551
1,27756322198399
1,54149768255808
5
1,06401617490038
0,795359318802569
5
1,3400279483415
0,584530387463224
0,39285117427838
1,10090461184224
