3596
4000.36533379555
650.420452594757
1
2
2
0.0358522452539468
0.0418852676001773
0.0360632747290352
0.0479357628291302
0.0346390838632345
0.0402919745792103
0.0356410044029737
0.0454467538177556
0.0376361699271965
0.0474500648220039
0.0367974551695725
0.0480418398368431
0.0389538557990009
0.0425741597829488
0.0396133262709086
0.0380668477163181
0.0343797586511434
0.0441370342218949
0.0376955778355511
0.0389156435062159
0.0377948526219283
0.0409257937709204
0.0385775650669508
0.0399184537981844
0.0378424242938162
0.0468327401555961
0.0355767449600149
0.0516183598857661
0.0344127893172599
0.0424225637333891
0.0342732770148143
0.0402984101613934
0.036643950306461
0.0451813558112762
0.0358916179077056
0.0434703660844077
0.033646163037542
0.0438028883580309
0.0326637173199623
0.0409434321762172
0.0386392439303925
0.0414607386264158
0.0361687484779205
0.0356590983313176
0.030539959054056
0.0424435965570078
0.0352218983628293
0.0469742732845679
0.041073428186002
0.0379036033653371
0.0335377105484802
0.0450630688618848
0.0426693209805733
0.0475932153306878
0.0330905543450363
0.0427010392064279
0.0386832790346166
0.038303480929728
0.0309005988597018
0.0458614929026004
0.0373496330552735
0.0463762482262404
0.0358013419698545
0.0381134623341899
0.032716949769888
0.0379814451061118
0.0366934638490157
0.0416130825972523
0.0335445398968597
0.0334588613411065
0.0388024011908519
0.0371202791516417
0.0381583963506399
0.0431583636604758
0.0406575637090245
0.036250593410569
0.0358797294012577
0.0404021048293592
0.0333150813841542
0.048881432680657
0.0376594193716339
0.0338679721643014
0.0280165607007324
0.032439443376639
0.0405179970236383
0.0373244351097143
0.0381812897421612
0.0334181337358982
0.0386789098977894
0.0435193546479956
0.0334172884886616
0.0420658055409184
0.0385804663423055
0.037515247138933
0.040764384300347
0.0298304536226665
0.0346115459337393
0.040536823074598
0.0351642422109633
0.0311471478178398
0.0450537724054476
0.0356450471001223
0.0403489840911477
0.0386129103229791
0.032691502420645
0.0573635426782919
0.0193551710008726
0.047911840036239
0.0309484734715348
0.0387526300512751
0.0378174751331142
0.0357369100641183
0.0258476795657285
0.0302584053100834
0.0293635034214889
0.0306018823041015
0.0473107055964396
0.0395225049018414
0.0360897353205468
0.0330646791292916
0.0344937330165886
0.0378723132960897
0.0527746231323072
0.032199034367251
0.0313531669559231
0.03906737529262
0.0267644626963359
0.0289402741982337
0.0451496762867664
0.030570405158514
0.0355964887031625
0.0374839256402937
0.0354774968920115
0.0281787135582244
0.0383306953526833
0.045935918109695
0.0307466915183486
0.0388245095958914
0.023455605544132
0.0456020407888621
0.0355195580036327
0.0311755070523137
0.0303717003349948
0.0245693371303992
0.0325666721071226
0.0369416147091699
0.029715037078315
0.0407435416911788
0.0405574290084288
0.0291260603849115
0.034947053999999
0.0291376672808354
0.0376776390055559
0.0379872927281309
0.0243607489072223
0.00965334342589879
0.0661123947833236
0.0363651262178874
0.0521129906728953
0.0352947153182415
0.0307664711651481
0.0444203056615095
0.0333157839873332
0.0323393682761768
0.0270633039380966
0.04028661047646
0.026022885703987
0.0515804955546697
0.0291115893643442
0.0299341101420553
0.0345001108064057
0.0394561473974549
0.0146796260890771
0.045322056873762
0.0451482434989374
0.0207222868670178
0.0404263609439223
0.035081297170897
0.0255238584946106
0.0278814535097017
0.0433924349927131
0.0362850971686788
0.0299912223574047
0.0358362220769717
0.0334604142563544
0.0337964779696226
0.0351983613141774
0.0312639715582093
0.0369479570167786
0.0246882613620824
0.0272040081264619
0.0431936537277522
0.0501245959987326
0.036675903390546
0.0332487550186703
0.0243213722687262
0.0305948307080336
0.0540362130477622
0.0288853167798539
0.0377498675666315
0.0338684229993423
0.0358715051753705
0.0405061180551636
0.0343494882695479
0.0364147425342102
0.0273819327446782
0.0282256509585396
0.0395870010951752
0.0265897854242302
0.0398327734444552
0.0249656946913793
0.0319559345479294
0.030667430540622
0.0582915170900466
0.024182520529891
0.038666462380152
0.0314908361176763
0.0367740221913327
0.0429964085110144
0.0397696126729708
0.0323834364556209
0.0413718401031436
0.0306577888713902
0.0407182342532749
0.0280262723961152
0.0386028885230201
0.0323676400602095
0.0412911570195551
0.0338876542468622
0.0368931601266279
0.0299830249157053
0.035996276368318
0.0321128045948353
0.0379248502422281
0.0309003013392416
0.0239329244035632
0.044406640146661
0.0387376570306055
0.0294403470890694
0.0363724047299653
0.0383297818283359
0.036239227564264
0.0351228069878686
0.0330585160410791
0.0341619300457698
0.0330184474040255
0.0425457468440049
0.0462518928788851
0.028168524332443
0.0427817802035562
0.0269659854127986
0.0504191034215835
0.0301995812844742
0.0436081765413392
0.0282645320117235
0.0405772900932969
0.029745178543199
0.0531643596464394
0.0367293172381578
0.0372681461411702
0.0319937981372015
0.0523058248405975
0.0273679738454297
0.0363052505127349
0.0218210561562353
0.0553598768319962
0.0499156478115121
0.021888075708109
0.0430435323920897
0.0526993662471086
0.0343230500072301
0.0454828539980329
0.00762808507577871
0.074498588274951
0.058403386085561
0.0356632964993955
0.0295263580289944
0.0458604538393241
0.0399886822459709
0.0383291098832892
0.0402588624190874
0.0316139396835088
0.0461594589551437
0.034774208830535
0.0524573861764237
0.0469237289498645
0.0262333881510737
0.056704097193902
0.0321361534177143
0.0450797143886695
0.0311929679388872
0.0440225649432689
0.0340729593560879
0.0523768204556388
0.0319271328909674
0.0509137340553039
0.0326072657180799
0.0567018862576408
0.0388753310225257
0.0445795187858551
0.0364803664530138
0.0513933501532388
0.033963374966055
0.0428261977391618
0.0448441038787353
0.0420100276722707
0.0416599380179594
0.0419405129124478
0.0499457283101628
0.0611410329017457
0.0306825521238995
0.0519211078569232
0.0437965560616191
0.0501774239136354
0.0414427831314915
0.0442453993352943
0.041577937784543
0.0454733902022583
0.0408449164499123
0.0471422330077172
0.051661567683335
0.0483727760061105
0.0444736601315503
0.0472393651764756
0.0469804580730148
0.05267711914061
0.0529830604270661
0.0506938147208719
0.0471235992839056
0.0491518242570845
0.0492653766646138
0.0645363955892813
0.0490341978700366
0.0542894832710478
0.0651595350939041
0.0533436551553035
0.059245571262565
0.0535808648932136
0.0555922876316812
0.0581631081620587
0.0507225202512073
0.0550331167307142
0.0596371212780612
0.0626562887873056
0.0592302068972535
0.0649744140197503
0.0523653712728339
0.0702732968111963
0.0775833556364102
0.0725551383583989
0.059023139405445
0.0688512399712216
0.0570091977459105
0.0866374741066561
0.0574446421805332
0.0800696027832402
0.0676020190091551
0.0756808193769365
0.0744102070594877
0.0779485087659757
0.0722488966800843
0.0830308752525382
0.076001455360378
0.0820878746111727
0.0824221639525271
0.0840415617754224
0.0848500379371939
0.0821836420640169
0.0966065300556958
0.100914696444973
0.0897458271533102
0.0920931397494273
0.0936256085443209
0.0937986941028647
0.114734735345926
0.0917205712899982
0.115768001579614
0.102274069813618
0.112906086115639
0.108880450666805
0.103625817240902
0.105449627560052
0.110331877533313
0.119103108701772
0.117973147668721
0.119942062585377
0.120391912763873
0.126851661782836
0.129406624801046
0.125997152836431
0.130163312813779
0.136100531266283
0.129376704815313
0.137314342622895
0.12939481868818
0.137148034656706
0.137283335446303
0.166110936294411
0.141491730138101
0.161709002305809
0.142400548146526
0.164498130311978
0.151496510112399
0.168622871796578
0.157826741352299
0.157309919714153
0.167917237945894
0.176680783211979
0.172933317615122
0.175514712469415
0.176884577449283
0.184572161623116
0.175040820926066
0.184932871403877
0.190300931651687
0.206251142327348
0.191248163479018
0.201911948405767
0.192878992743499
0.213827064686139
0.196167827098891
0.208564461241464
0.202631156725354
0.218237730425656
0.223720769735076
0.227362258642546
0.223180343922958
0.226620913386655
0.230029844596837
0.226836363716186
0.237790854901557
0.238601337803715
0.232605397709556
0.245007060786776
0.241118787419072
0.254218148354647
0.262032652035973
0.259506008043194
0.258981617499307
0.273199768525277
0.263962498914098
0.279064175708871
0.272600314649565
0.281159686582291
0.269372651199393
0.288350360109337
0.288569593981299
0.295612149304464
0.29266153319851
0.298993446340745
0.30045673397146
0.309825687110091
0.314144691291646
0.316739376442338
0.317839955404993
0.323282438208685
0.327939052381395
0.322163330455284
0.324543132800698
0.337549855016272
0.340827130326009
0.346305448048742
0.332091602019058
0.360750636808222
0.37996252551585
0.380013182294956
0.362274520406144
0.361987295893188
0.37631165889036
0.372872092652661
0.387519921186785
0.393832779082627
0.387950910234665
0.396201818894314
0.407569090184929
0.395920390954088
0.402776994295251
0.41756688441426
0.412418577570925
0.412381060448311
0.414902178214458
0.426010769918061
0.433913566652598
0.430223803405331
0.425040190872455
0.427747720550191
0.452925445253631
0.452642643512319
0.456332839361897
0.461990954970629
0.460085413054152
0.464077881867221
0.483440810440852
0.493827820884619
0.470960145898053
0.483346459391028
0.510366599687179
0.507448223163435
0.504017693622798
0.513345165945879
0.511231131253728
0.522976902891553
0.513905603506578
0.509379169064991
0.526907500275151
0.541270930585218
0.562272816867417
0.538391796834559
0.51961651637976
0.538257998860297
0.584803968038565
0.578071857185769
0.56798837558267
0.556978870507522
0.578623423347211
0.587469604849703
0.573491218625688
0.596271472904236
0.615599955586865
0.605953155466459
0.605464477170791
0.606794312053774
0.624319422050819
0.646112685608684
0.659727201591077
0.623237143365327
0.630746326692939
0.636818665101174
0.659706699496779
0.637099095489087
0.644063758395744
0.641986363109489
0.646427121742333
0.663480871964858
0.67100206664576
0.665482656892876
0.682958331666582
0.668098409597566
0.717877223871668
0.686634544530625
0.647523055910552
0.687339810802881
0.688160379939605
0.700659497504498
0.73453544887626
0.738615360499178
0.758230088465063
0.733660862884871
0.74271525933182
0.751002079360355
0.758984296820202
0.760380404670541
0.744282056812223
0.753861309032308
0.769105409043089
0.767878982194002
0.781445607241991
0.78567444343121
0.815682818884619
0.806717293014097
0.8482390006621
0.811111438851604
0.816508208949452
0.813375639597539
0.771779817590446
0.77762320933255
0.848578453670896
0.818076549526049
0.77615343883897
0.813395337653893
0.843193346807191
0.858450790774924
0.940365160577054
0.884748646559438
0.886642042986493
0.896059948220806
0.88710412062122
0.855944436419043
0.868743035657123
0.873138259157473
0.933290399223676
0.912145695984586
0.938875169075105
0.900214267981584
0.885589860596908
0.87073602678155
0.948574304044234
0.946689675520144
0.920438834635483
0.940900935941633
0.952102255633414
0.993001777824412
0.968343533288139
0.945063359753252
1.0122318373248
0.929428147661711
0.977742132402755
0.983076146563437
0.958141657201153
0.955465195166643
0.9806533697497
0.960449087091511
0.977234937200457
0.978030936405207
0.991453629845817
1.02395862269744
1.04084091350065
0.950709843893266
1.00736208064997
1.01588539961218
1.05512302788862
1.0932124228113
1.04406357754357
1.02124022376936
1.10598791138745
1.10010591052025
1.13293973060516
1.03501832323368
1.00754041524552
1.03887545697135
1.09393061966093
1.03331247045794
1.11234640311627
1.06717996550319
1.07525861031869
1.11229221131266
1.09326065071356
1.05032719551748
1.07518539962994
1.10676259898478
1.12445584161386
1.08675627315334
1.10456544336572
1.12631836755115
1.16116378683393
1.1388659537955
1.1701887281675
1.16317767723546
1.11579136247682
1.13029223965121
1.20904176101776
1.09033184522131
1.14343204241773
1.14658691376576
1.21175874386264
1.13985119857415
1.18731187608325
1.17646504441188
1.15449132497583
1.15567896400948
1.16026813545428
1.1436018145114
1.20869738807343
1.18174926621252
1.26568251576853
1.21387674653782
1.31169636353828
1.21039828774556
1.2734436764996
1.23601702890171
1.27195547776495
1.18788057755813
1.24910681479102
1.28283196367703
1.33075772263424
1.23645320252065
1.25760247250427
1.25884970982471
1.23274631407704
1.21410459238352
1.31549611084285
1.23859022154501
1.26793600590152
1.24724747463434
1.21588866108905
1.14636756615375
1.25300347614098
1.26226333265328
1.27572999810171
1.24545505025415
1.24469454993348
1.28893226825905
1.28286801508176
1.29139226848208
1.37733536327046
1.2867710584997
1.314282621877
1.24874746123004
1.29007169075433
1.34957177870895
1.28518546097491
1.22564042544882
1.40792515841798
1.26406694091419
1.29742901690074
1.23405568035193
1.25916492455575
1.31087360939627
1.34087560098715
1.23992630958118
1.33355311459504
1.30284830939255
1.34960799461287
1.30471307218729
1.34495389769883
1.35120474005838
1.41229589645365
1.26694351465115
1.25831039501347
1.33326315038105
1.37147198523146
1.35892992742884
1.2861027490956
1.32017998532547
1.36522985624718
1.3085008139601
1.33981603411217
1.31691710461303
1.30283905504752
1.23551771163102
1.31532849204177
1.3259856461323
1.34172066191687
1.30054958022728
1.30560601778063
1.32253827155905
1.31245160414342
1.33167589985128
1.39479290988303
1.27791034387571
1.32837189350637
1.2582258008301
1.3613550465096
1.35344638245135
1.3181387913355
1.28292048665677
1.41982278440411
1.32805091493801
1.32531614794393
1.30063288895856
1.29677655036922
1.33542702754261
1.38548106018897
1.27935430442999
1.33962212973503
1.32466780303855
1.3455738776472
1.30353954361002
1.34049243465696
1.33036002949852
1.3043318570157
1.27840946223972
1.27927022897366
1.283103342497
1.37219663568351
1.29225231827291
1.31991572494045
1.3187745675973
1.34568038476079
1.27236479161692
1.33244321451216
1.34477169205767
1.34529230070867
1.33408704098883
1.39920075941649
1.33663810257959
1.36570230186255
1.32293993532181
1.34539781830632
1.288916221096
1.3307821502189
1.34888516967094
1.33320933514757
1.27640013587902
1.36443148895505
1.38613878872364
1.31066467827277
1.31734730436634
1.31964915257654
1.27467036852734
1.28809210586533
1.27608986029432
1.34880046853126
1.34223039516202
1.31736159796285
1.25842021083055
1.30343361174653
1.27219150849861
1.31488856230051
1.33332258109418
1.29143011678967
1.24641940261313
1.30427614820793
1.3031823260068
1.33037267329678
1.29294498928347
1.26279422317185
1.23165179726877
1.32883530147616
1.27739480194591
1.23539791346777
1.274467510485
1.33418748599854
1.24371115968727
1.28633856966712
1.32665399167673
1.31150710699125
1.19172257191964
1.20072314042755
1.23307007001203
1.23055426413316
1.2370260975933
1.27491459471668
1.23178793648348
1.28326284946358
1.2764987583634
1.23730671534927
1.244565067433
1.26913537570057
1.20494758085156
1.22868330978931
1.21953962807561
1.20753888811639
1.23565816453289
1.22129739818396
1.18317236054776
1.28550035947543
1.1974194597937
1.21747328222756
1.17464847958574
1.21142694914797
1.20614472762188
1.19730463926849
1.1856525993234
1.23782915138775
1.23607815269339
1.26501847729287
1.21255600240492
1.18466066032455
1.20879418300872
1.20857313062943
1.20911335608963
1.19125845906688
1.10712199308231
1.17103542702831
1.16194917519408
1.14825231489226
1.13330277347557
1.19016073298265
1.11927308411119
1.15274645343702
1.14132484783884
1.13224965631679
1.1473676229984
1.13660004237656
1.16226741316061
1.11757938963895
1.13501440003602
1.17144625940614
1.09744209317262
1.10462033217589
1.07581451682883
1.11499003581599
1.06921239413148
1.08741004455323
1.09120684302762
1.07895189383295
1.1081014660107
1.09342798985662
1.04217100830991
1.0520941205851
1.04982194534718
1.08565119939438
1.06360325447244
1.06032281735627
1.06062584566024
1.04487025989404
1.01757710272128
1.06177809185524
1.04996619363591
1.0487715789143
1.0340369003756
1.03508951465288
1.00973115522135
1.02045556823256
1.01398870380247
1.0165123253667
1.00322723456379
1.0032328212176
0.974707135261637
1.02039016191906
0.992759825038376
0.996260713674483
0.954359988834437
0.972274898280542
0.966437773186957
0.968076590279228
0.976061486213511
0.996766118463128
0.945993944463094
0.953314718694081
0.934582174121668
0.939870644199243
0.93370339503005
0.925980821967252
0.90852726293266
0.926839700422415
0.88488588795929
0.908529998831242
0.897488303873061
0.891562008528588
0.902223431492951
0.902203191014863
0.873047099011154
0.867273493142732
0.864476984902148
0.872552851668465
0.88477131494333
0.8592080196396
0.840297117957622
0.846377259803814
0.851202837186752
0.851939032358098
0.821887299238389
0.846783798401782
0.834633199103524
0.840170087401108
0.838673233061856
0.837658314831881
0.8239018216296
0.826707795582713
0.80004193885425
0.804529742725205
0.794561291281765
0.809978252651597
0.790554903171015
0.790984594635729
0.807592559419945
0.792721312212652
0.76174629878777
0.784562940370012
0.778999280050485
0.770699516073497
0.756983643213492
0.755726128972192
0.752873452899039
0.756572394934241
0.742942115669556
0.734130933963474
0.727993693787162
0.741177407058472
0.736800989153544
0.742711734476248
0.717757834083207
0.705680917116062
0.715095386475609
0.724468671029586
0.70838408172011
0.704824915736649
0.693813098587761
0.69172691002775
0.686963105000815
0.714197459051352
0.690999561526513
0.681384576994699
0.688508758497476
0.684063552654853
0.676421578359134
0.691912553966873
0.666260225657788
0.664723443747559
0.667078355698945
0.65670634349235
0.650945104224017
0.652979602852991
0.642503362348946
0.639883469910345
0.64432989743669
0.644926937011233
0.630003860506315
0.631410157532053
0.63226486807768
0.629623839222599
0.612751130683291
0.623982278543
0.61443178683513
0.611541705502689
0.607859769278064
0.610185072861143
0.607266821872364
0.609194464357202
0.604645787264411
0.600504093891653
0.592594445148638
0.599885116222253
0.589540008371601
0.585217098568178
0.568699026978064
0.583688450152283
0.573299775052417
0.569769868646593
0.569085050471777
0.568694006919488
0.561795346699348
0.55590265482461
0.558148599320332
0.553614861335602
0.548377193224045
0.550781379788962
0.537374082333845
0.535925743692463
0.528783827713731
0.534311707501967
0.5321643782661
0.525770178243458
0.527219302475431
0.525616233895163
0.515536228222781
0.525263783952863
0.516802984693235
0.511051321062969
0.514809409070569
0.50493225547991
0.503668336363348
0.496828401287494
0.495769468482358
0.504676229644337
0.492396349132917
0.486940868431741
0.487448980384511
0.489354063612224
0.487078069290645
0.484991277988638
0.477196734411752
0.477107736107212
0.468943394750586
0.466877217606459
0.474463662576713
0.46537280691901
0.462769277278102
0.461304338110373
0.463153213006676
0.454946525658813
0.45048072649261
0.446670870625036
0.443327991127446
0.445061835271933
0.441957353698783
0.440345526463238
0.439355338299422
0.441946757373359
0.429194677116771
0.431213412789445
0.432207991867796
0.424691453059883
0.427000110095374
0.42469307673038
0.424277027811581
0.418169836916523
0.41949340301038
0.423842296998108
0.417334279173686
0.414339908514567
0.412742077385841
0.406523637557663
0.408588631566379
0.406199326728963
0.403813291781981
0.400219996142386
0.392508886816903
0.399139178999618
0.402834161383697
0.396835687732628
0.39768820473853
0.396622934273582
0.398304085770229
0.396125959049445
0.389205272121128
0.393575572022412
0.39298590471752
0.398860644033314
0.395912640384322
0.389803065287221
0.399827642464942
0.389765834624264
0.387729601206087
0.398065614568602
0.397781078712555
0.399925488200286
0.400928360554758
0.397233688261381
0.397656990464012
0.395533651528008
0.39876067099018
0.40164874912763
0.40697633818553
0.409731192057392
0.398835618908201
0.405702274223512
0.408741865217421
0.414002650399762
0.418243245707409
0.411250191640984
0.413044554939001
0.424395478384872
0.415124838796121
0.41351670724182
0.424373271321911
0.427722697281002
0.423313173161897
0.427977854831618
0.421994659267644
0.426468109449694
0.435624442241468
0.442763123218061
0.433638590980076
0.438271438091522
0.435286571494632
0.442540317123443
0.44353976943993
0.444115828734069
0.443194652209523
0.448417952909865
0.446477809041045
0.458047886364007
0.455217287957358
0.45795034835405
0.46328720159143
0.465725327845657
0.466990630207687
0.473858904278756
0.477582236197833
0.48255258939934
0.483054682631448
0.483761952525488
0.476980695025739
0.491126297227224
0.491194995533626
0.497202514573104
0.498548932435055
0.506917342411801
0.502008328546742
0.521857760005206
0.511955259138564
0.510045412448203
0.514620596963574
0.512839660246024
0.512366459149823
0.523352472464106
0.523041828307951
0.519829971539579
0.50798326892961
0.521392545079236
0.514344122380121
0.521112190876873
0.519423123224213
0.510090657939777
0.516598433794892
0.522720047170277
0.515329803082401
0.518253801325628
0.515945231148256
0.513566690691883
0.516961557127525
0.526585973845595
0.5140708322601
0.507635799311067
0.509304284644903
0.519436814081732
0.512813106460343
0.510114538447849
0.513395756205723
0.516457743730128
0.513593659404312
0.514687734648402
0.515020038391769
0.516945265805354
0.510159180185063
0.517307872466106
0.516911015207045
0.508407175941056
0.503924046667329
0.511105328047043
0.510668720453487
0.509872973931187
0.520660650535915
0.518980920218584
0.510202994283821
0.515578345901579
0.51667909039482
0.519191789419999
0.51196597736439
0.51569455970192
0.521586204633692
0.515025246136651
0.509618880903343
0.518349707176217
0.51441393453356
0.507341551772311
0.51396738752367
0.515819881309068
0.515352160819423
0.511775722277719
0.509650951658966
0.507828698257343
0.504939863902216
0.507358847716486
0.496810657661994
0.498107701593364
0.491977002011293
0.488265839752702
0.494056655488199
0.488070549609813
0.493342399946858
0.481066416189084
0.47832763734321
0.476050767707935
0.474675790230416
0.480649337660744
0.461360702685314
0.465029769119415
0.464302488382104
0.458730370102304
0.451711420299137
0.455476767111643
0.446750513415954
0.446766317666207
0.440666129195128
0.431735393136293
0.431322522517318
0.429232779848753
0.421768627937648
0.41565606257622
0.409876996416394
0.409935912299823
0.413387318781378
0.409269977601369
0.40210765872109
0.399338281908251
0.395592179725643
0.393789648938708
0.394291034784562
0.391784254255978
0.389271522942317
0.382566936335996
0.385092691176382
0.380721299887249
0.377507148912004
0.373324409604418
0.372430492328598
0.372051174828188
0.36798881894412
0.370324618107652
0.357646161163858
0.363016595792242
0.357942610075817
0.359679307732614
0.355879166505332
0.349561741270746
0.344620868977474
0.344951660107508
0.346223698668362
0.347156044753756
0.343406692670548
0.339130925621381
0.339821323253292
0.33889740393522
0.332037801939329
0.331800342609206
0.331066065665073
0.328200289111181
0.325288608407687
0.325299095654583
0.316603351631788
0.323302634100285
0.326925384646188
0.325463731142788
0.317443882572981
0.316901404665848
0.31699368455645
0.311895957574828
0.314436344037415
0.310862840221208
0.313974415554006
0.309474379826847
0.303340200639931
0.303683984969694
0.308636225527213
0.301025217507423
0.300372931054509
0.300423039083274
0.296602814650287
0.299800113813037
0.300182180741632
0.293934513049324
0.293607611349337
0.291419379802824
0.293121105984824
0.293740000277914
0.291123545758403
0.28954156186262
0.286527211821312
0.290831531987663
0.288588394036798
0.284774420000537
0.280878491016403
0.282890791763608
0.279408755416057
0.279999818358444
0.27729455305266
0.276020443118956
0.278536160549177
0.27813955148018
0.272167362642663
0.274510447517587
0.274822717023193
0.276754139565298
0.27108973086443
0.267724228742422
0.269903674862418
0.269559233293801
0.268287012285666
0.266296741104833
0.264606196479037
0.264587887955085
0.262895509090963
0.264211866590238
0.260819042410449
0.264845588580579
0.265048461186815
0.261948508207643
0.261463918643253
0.262937474003199
0.257681231441214
0.256796241345043
0.260141952183715
0.255640177771246
0.258184878502255
0.257621614793538
0.254816338935461
0.257974195066499
0.255122217971405
0.256444377869599
0.250208918160845
0.251220483087273
0.251011463564422
0.251543762623907
0.248256870923343
0.245745174270007
0.248297911113755
0.249699313481318
0.245354766866544
0.24820057942838
0.249905879723078
0.246821406652797
0.245572017370094
0.244114790044072
0.245215884413763
0.243819025494674
0.247339278411163
0.24269563074523
0.243418779609859
0.244500871389655
0.244589739175473
0.246309473178336
0.245363517532502
0.240864086497654
0.241578749998984
0.244476887141119
0.240367102947202
0.240425568121709
0.241715355396174
0.239406500303731
0.237202528245607
0.239674085092796
0.235693372945943
0.236000072353372
0.234748557827448
0.238210400026729
0.235982494314691
0.237486571045081
0.236808180293607
0.230596120258608
0.232426102315277
0.23090729667072
0.231279919631524
0.229373989372264
0.227974790777541
0.229602917569697
0.225915813137238
0.227901270379719
0.225811404147171
0.230137726608867
0.224682398808973
0.223362524043363
0.226020750565304
0.225747803816139
0.223931121512621
0.2166562681496
0.221946482445232
0.220667572779104
0.218280582670347
0.222908664673017
0.217315071776578
0.217082421980278
0.216992599338735
0.216645226552187
0.216516655436962
0.216124473836593
0.214130986335856
0.214026723416513
0.213351381504911
0.212049185781658
0.213520166505705
0.212361523412361
0.209872167409218
0.210347277300089
0.208345528823242
0.206657819313796
0.204105065612777
0.206914309028893
0.202302281982426
0.201121219165308
0.201635780923736
0.201945675897553
0.204874573460549
0.203439995242566
0.199896578348566
0.196517527809331
0.200067534499132
0.199959824670883
0.200147633382308
0.200258672285931
0.196053457524479
0.190732484387886
0.195393956366567
0.192597640493257
0.191948795174008
0.192337466198593
0.19111365316856
0.18933505438321
0.190432439464134
0.188750240060413
0.184826244997788
0.18309167734417
0.183954471541816
0.186414605590949
0.186099389644874
0.181266157738584
0.181153993884298
0.179236709640395
0.181590996866612
0.179471717507548
0.178531861242611
0.175955305710767
0.180261168621341
0.173965508027064
0.173101657447335
0.17436337121037
0.172381041232767
0.174655730286725
0.171985310172742
0.170007327778281
0.171150068810643
0.171124675968248
0.16924457655366
0.167060264070076
0.165605790953775
0.166572886008172
0.165247660868087
0.164631642730053
0.161992715943656
0.163753339771237
0.164359543207919
0.160313971701532
0.163361796269109
0.159505115666785
0.160895960169764
0.160644901535315
0.156793216565959
0.158598864975973
0.157408578630653
0.159070323338326
0.155890318773748
0.156878528415853
0.155914985079013
0.152676731581781
0.151941312979778
0.151823626754264
0.153282412614117
0.147120760273703
0.14987578271889
0.151233404480247
0.149979156479858
0.151095263837898
0.147640901822008
0.146998364505265
0.145830153743507
0.143342272788278
0.150574249330226
0.147777304886715
0.146797960935624
0.144693746486303
0.144510931731848
0.142907614606541
0.141809026584706
0.14434989502507
0.141686851551224
0.138615652866213
0.140871643334594
0.142320989263245
0.139399646124994
0.141165067310091
0.141333125029218
0.139409450062747
0.140873100241519
0.137940623435223
0.137993177107271
0.137906202848434
0.135306005535458
0.136516246921156
0.136684607036085
0.136467192901324
0.136681600911527
0.136273184709417
0.134398628439795
0.134115903313373
0.135055754725102
0.13282891389851
0.132557969446305
0.132854211701277
0.133758443977777
0.133883748991135
0.131408879394343
0.130974810349336
0.133267870388278
0.131595848563299
0.13304161115173
0.129972370138333
0.132254681242393
0.129633866191824
0.129458806158306
0.129298678102341
0.125448622250341
0.125937489280392
0.130055807193078
0.128524475580979
0.127574422249843
0.128599638239229
0.131195534462916
0.126456806976067
0.126918409153262
0.128021767876058
0.128173555956907
0.125947053660355
0.126393716264181
0.125020457718984
0.126864355966718
0.125219691995249
0.125806376364528
0.124394121175173
0.123803837738837
0.122971383949442
0.121083436614726
0.124075904831326
0.123097690033923
0.120324081232961
0.124781770083267
0.122614687400922
0.122950871923608
0.122408049070263
0.118021880310747
0.121958324287747
0.119941703509388
0.118885127310801
0.118656272977808
0.116687629763277
0.117409493266128
0.118633124634836
0.12263046125306
0.118831023496612
0.118210208218225
0.116264738733116
0.117030007885267
0.116955718671302
0.117101396570734
0.115999967618331
0.116824925900468
0.118051716033272
0.114986624014563
0.11482334617746
0.114091630498695
0.114089928308832
0.113111353987259
0.116037599765354
0.117747601527604
0.114846381850082
0.112677850955104
0.113471015986346
0.114485894534635
0.110366745213543
0.111448901601237
0.114811144583641
0.109921521719642
0.108185532601061
0.11097688523646
0.111391280290947
0.111332956125003
0.114803690558203
0.11015051059464
0.106120774198616
0.109557324171638
0.109814873898058
0.109911758460971
0.109421694824328
0.106894557151976
0.107183299049757
0.105837982039955
0.107360837885302
0.108561582794482
0.105522137090144
0.108829201511029
0.10749893492293
0.104704531734834
0.10643946452623
0.103967448872916
0.104695262937865
0.102701662960935
0.103509342296028
0.102399383195198
0.102150482310709
0.102880573065637
0.102406446845477
0.100906003840228
0.102033782867411
0.100480406351191
0.0976865945247649
0.100786689038447
0.0981359557760046
0.101165991607815
0.098085125227908
0.0997986696004837
0.0982095822518248
0.096999670209487
0.101277245949392
0.0982364626407358
0.0969535930356897
0.0971749381324752
0.0970698662877865
0.094030612932003
0.0958146560140017
0.0955232402618814
0.0931760173366137
0.093279112303499
0.0936407947056756
0.0940579956701821
0.0912923183450675
0.0925261341901673
0.0908729672235073
0.0923256731403593
0.0913464043474497
0.0909804640376159
0.0886386474440825
0.0898290185481326
0.0908823198579115
0.0878172441276385
0.0918094407611058
0.0903304364120937
0.0860962795099769
0.0869505509899751
0.0863988273081821
0.0870483919843927
0.0888856201527252
0.0853852616812696
0.0843989205738192
0.0855209543868891
0.08780631445155
0.0865466010845484
0.0845378855493388
0.084443258934337
0.0859833070880905
0.0850716948841111
0.0846915382213358
0.0807069730375749
0.0823046702008358
0.084482753214253
0.0828137405859479
0.0829237744768145
0.0819071854085839
0.0804860143316119
0.0818104729348027
0.0808567617334878
0.0819629578416201
0.0813815993821183
0.0816864326008694
0.0800885032813191
0.0805425980818865
0.0810765726255906
0.0783514039654098
0.0787873701490184
0.0786130743006684
0.0782802937671234
0.0784764063418216
0.0764864298391506
0.0771446763527603
0.0781279482865687
0.0785694995869576
0.0767142560307802
0.0758740554759831
0.0760341630704847
0.0753957246500052
0.0750983438042714
0.0764972886739851
0.0754581556312304
0.0748661684985798
0.0730037435147339
0.0743819055697364
0.0755403033732723
0.0751798071360447
0.0735300110266844
0.074317555918834
0.0753707499069956
0.0730896553451145
0.072555673266709
0.0731498251411141
0.073281036937028
0.0714982678923017
0.0695879122161193
0.0700375763098882
0.0713149884675262
0.0720578650391336
0.0711718026315674
0.072762383934544
0.0710789961951419
0.0713573822402412
0.0710699748066105
0.0707381486947508
0.0722264783091202
0.0728091766756451
0.0688080122282144
0.0696444746717135
0.069407593192543
0.070211272363386
0.0694944332719225
0.0685294757148505
0.0680905615099844
0.0698508044467455
0.0667589279423092
0.0688074467273326
0.0688349106498672
0.0655088750507659
0.062486146427293
0.0697565419306202
0.0618631376776482
0.0626080522256112
0.0632252461346841
0.0682052834657547
0.0656980217804703
0.0687396409781963
0.0685505069362684
0.0653578744952163
0.0647950712795353
0.0676591459214887
0.066180217260864
0.0685559499578556
0.062362071852666
0.0683918981778515
0.0633817297631473
0.0679021865613497
0.0664399813991091
0.0692606515687439
0.0628741053789422
0.0665101570999304
0.0634555260180355
0.0653390831496281
0.0593905291291908
0.0708403519508194
0.0587986994681919
0.0687194228978879
0.0579811897649412
0.0682902394744214
0.0586795546764918
0.0698384444333103
0.0562013923764673
0.0712401481677507
0.057104232973347
0.0670895986150541
0.050173943692867
0.0715320279565682
0.0518217924663316
0.0754549220750836
0.0535990938853273
0.07458976161963
0.0492194290748707
0.0722992734206369
0.052796821063628
0.0788457376619989
0.0522936566899412
0.0724792791487851
0.0517640382698225
0.0784210916332289
0.0548320260669898
0.0652389603833487
0.0568710952084434
0.0684142709273262
0.0637419543220035
0.062564291586817
0.0680656698899788
0.0583649080166406
0.0681145955622631
0.0562368739784638
0.0711757721201559
0.0544261050569144
0.0692866871948434
0.0567343373189426
0.0678348017799
0.0572415887946219
0.0669602279370691
0.0576938120551591
0.0654982294210569
0.0628168645935454
0.0619604783366278
0.0651537231656765
0.0640654167447447
0.0609036332856368
0.0640784138592351
0.0603360359803203
0.0638755263371153
0.0603798762267761
0.0638618971168035
0.0608859940347416
0.0614963725566431
0.0610680608977102
0.0633862117530094
0.0629709485214317
0.0643905480376078
0.0616736768294223
0.0629701901887866
0.0595539557242442
0.0659940938867489
0.0614866359317976
0.0622184583550819
0.0600126741847052
0.0638012624369897
0.061849400787038
0.0646952258095224
0.0613205027850527
0.063747197150989
0.0619186535897596
0.0625282874192725
0.0606596170567949
0.0644379772134582
0.0617520488860645
0.0643198933662397
0.0628172540925328
0.0627798958816348
0.0610997323762474
0.0659182358423466
0.0619058399679812
0.062823805884136
0.0625433690586884
0.0632947177464878
0.06072912144709
0.0607402807221151
0.0625684292728056
0.064675071723025
0.062741839358685
0.0650882750179909
0.0625110119052247
0.0650443343321296
0.0628224149287398
0.0634919722141961
0.0601470186406263
0.0649614820817512
0.0614205274195182
0.0639039049791836
0.062664471336725
0.0665231265993429
0.0615899355302783
0.0631504437657537
0.0606433345110716
0.0636006506528971
0.0618301788290633
0.0640421459121322
0.0645204760046588
0.0645360783917961
0.0621373395525799
0.0636408688664541
0.0626724204956561
0.0652524283680335
0.0633571313793506
0.0632009626030519
0.0623781709440602
0.0635750985608147
0.0637977654626659
0.064095175459053
0.0630854658069143
0.0637668073525913
0.0646751161221921
0.06519147408471
0.062053188349047
0.0656679712260339
0.0640925022602156
0.0643314409089348
0.0639934615570895
0.0663131335760791
0.0646062238211824
0.0659888987326621
0.0661183902284378
0.0675438269772689
0.0636191487366053
0.0645135859375397
0.0655088099793933
0.0647567463864974
0.0648080594473162
0.0621651605769649
0.0658645806211728
0.065941771420983
0.0645045476074035
0.0673482244478511
0.0665414561853535
0.0674250841086827
0.0649014601816807
0.0683523277974591
0.0650379568357304
0.0673648505625761
0.0680030590194331
0.0671649791376022
0.0651760224015735
0.0681331474320764
0.0662575824037745
0.0678072875117795
0.0672420013073888
0.0689021763693692
0.0687840407963842
0.0677986373549176
0.0667225376746978
0.0694225199609769
0.0663679940774608
0.0668484505313315
0.0660785012627755
0.0705834574435432
0.0689841411985058
0.0686051862892715
0.0672939045970176
0.0681708128459242
0.0660555328429253
0.0676062065360307
0.0676192806506399
0.0695811170838406
0.0666666582167722
0.0687462950255314
0.0672820271982619
0.0708661066987836
0.0679893651932326
0.0686017304931071
0.0694538478014001
0.0693356096110934
0.068430468526605
0.0678866889453267
0.0679126685894112
0.0708757004137529
0.0700270352462432
0.0701238180935489
0.0687322060860475
0.069388053053785
0.0689475824588323
0.071092216138313
0.0710468927067669
0.070325056816885
0.0700976057286719
0.0724568880328547
0.0722615577661336
0.0721722055675451
0.0710111336124008
0.0729301800695731
0.0703642033024081
0.0737116279582453
0.0732404153305328
0.0713983022612499
0.0709122479091194
0.0711817101846851
0.0706321131050312
0.0706035093023605
0.0713351279766428
0.0739329811031135
0.0708937438379503
0.0719073184890421
0.0696388396760967
0.072937631559527
0.0715266972810289
0.0706133729531484
0.0709794857496039
0.0726446433451451
0.0721631215279195
0.0690895736249531
0.0719643709792964
0.0725743718334943
0.0683203077592509
0.0695220646811666
0.0720136604540698
0.0686346908798691
0.0682362321633755
0.0695983508610389
0.0686104377307336
0.0677983200824248
0.0699406686605371
0.0687065564737215
0.0678415206813719
0.0678636279535464
0.0663043830291645
0.0692610732054814
0.0691255184119345
0.0694419106961723
0.0669694258398423
0.0697869392850474
0.0683084961018547
0.0662458036678204
0.0689256414063136
0.067566828447595
0.0676885345942165
0.0675517288525638
0.0668221475354886
0.0678080821497176
0.0669866729829285
0.0687782181742299
0.0678136158589648
0.0672843967857238
0.0681277597775614
0.0700680212349594
0.0648956943585304
0.0661940115261106
0.0665625069771353
0.0660635686641071
0.0667190164382134
0.0666526450379457
0.0655736853325224
0.0650194832541801
0.0652822466672366
0.0673750244261325
0.066449755830557
0.0675701596964592
0.066707355151469
0.0652673240394803
0.0641609075777076
0.067225374432112
0.0643350191446908
0.0639020455776785
0.0664245844961716
0.0647020900379111
0.0651473655365525
0.0650795431656007
0.0640848247050203
0.0620269808998883
0.0642651206651778
0.0649375434724134
0.0627142806896226
0.0630035728472325
0.0640321840328087
0.0646238161379973
0.0653969536262937
0.0660213826518656
0.0659254108877924
0.0650718514474509
0.0631103611161177
0.065496618043006
0.0644917190568592
0.0652631709712348
0.0629510040535407
0.0651172759477566
0.0631938253231296
0.0647329234097281
0.0628193533616011
0.0614699655312163
0.0646124277318332
0.0650483004069942
0.0624393252519463
0.0630522929211549
0.0604328070887777
0.0622090452516625
0.0637091288966542
0.0635862597218199
0.0626759878845062
0.0612900587855506
0.0601886174337498
0.0642737911527604
0.061989135917241
0.0626418267473355
0.0643292527829968
0.0616258265107011
0.0612776371864343
0.0619167746166632
0.0641051416665098
0.0636286518987407
0.0624859189139286
0.061657556365616
0.0606188206526155
0.0592399759489214
0.0631346544990514
0.0603183618413003
0.0592192809801237
0.0607201390688851
0.059559896118275
0.0618523768551202
0.060335299314365
0.0621177678782085
0.0619603683925404
0.059974278870775
0.0608581262716922
0.0602471710043565
0.0581116753293309
0.0586657062419167
0.0591738758260549
0.0587636940908449
0.0582817726984066
0.0604655529967436
0.0595993064651306
0.0584698737255164
0.0588867290425822
0.0578928632435688
0.0566357581509186
0.0585405357831475
0.0571905632993511
0.0554432294172951
0.0557040106384302
0.0589967524338901
0.0543740829061583
0.0544829699828276
0.0525495246793397
0.0591002300923029
0.0552902189634754
0.053892081788382
0.0550696105634548
0.0554792555206869
0.0543643172455958
0.0551809654754395
0.0560312945576502
0.0538973702570712
0.0537865477703367
0.0536378072155872
0.051999741226314
0.0522869841163085
0.0525529623060785
0.0541838577523157
0.0509115643109134
0.0536222209262602
0.0538754669868498
0.0537099026105115
0.0517986407430979
0.0521295244853639
0.0516247671517607
0.0538148032047065
0.049773420921378
0.0511975368233001
0.0516124976308411
0.0523496888937891
0.0518515435952327
0.0507234491507486
0.0533865808792851
0.0529802807115629
0.0515143325889954
0.0494032028190978
0.0512972792123075
0.0509456623505621
0.0510002129326504
0.0523677004893355
0.0493671064269717
0.0500732920585565
0.0486036352646289
0.0501168066584594
0.0505583761580049
0.050341860114476
0.0504515081413069
0.0511066043532704
0.050685700878143
0.0497683511979945
0.0500032794746137
0.0494185246866986
0.0486286344509639
0.0493091685483438
0.0463070207480698
0.0497234081389791
0.0509294236533983
0.0484374205034976
0.0489904775663585
0.0481114393201123
0.0492777219322432
0.04765132332256
0.0484290216552306
0.0476159846159432
0.047770036461698
0.0483924273349792
0.0481502180898408
0.0477034752820372
0.0480355219372778
0.048822545671918
0.0484400428557782
0.048537176258836
0.0482300692947534
0.0467818492416919
0.0479966871987521
0.0469963404069648
0.0470945668040547
0.0483032284379528
0.0463801453091894
0.0470412155194297
0.0440199498857964
0.046477772659662
0.0472348920876003
0.0485033578627192
0.046539343168263
0.0467623869017594
0.0452161839410297
0.0470708070965635
0.04519642125671
0.0456818097038545
0.0448162810783099
0.0463112760191233
0.0466255800528593
0.0433603430420479
0.046528964016883
0.0469205862904417
0.0443315375610479
0.0466032193289592
0.0464449754732322
0.0479249077281344
0.0445153578737813
0.0454665767797363
0.0451773686310454
0.0473952774208313
0.0451257505175883
0.0479982958555483
0.043394240316568
0.0444916803037968
0.0454012185362883
0.0486041121037386
0.0441913198108309
0.0472100481166587
0.0453337578105441
0.0457466104373285
0.0447278937335798
0.0450725254573081
0.0456121619762308
0.0483186052459255
0.046334434632207
0.0458146586087607
0.0445879643618411
0.0459907838691365
0.0466887828708053
0.0457384372430208
0.0445712159286933
0.0454800586249322
0.0434861207399561
0.0457774470798968
0.0463871534587356
0.0466347210408258
0.0453868969350002
0.0472365528572803
0.0446345545380524
0.0482487145574577
0.0458249088392008
0.0463727125138189
0.0441712504260702
0.0444565518339445
0.0450297777941501
0.0450563688678176
0.0466832572729924
0.0434662772954047
0.0463444349832947
0.0460396042595532
0.0449627547599453
0.0437585764866024
0.0450828308781649
0.0432344159573552
0.0450536300997344
0.0473245414724026
0.0463756128010934
0.0466646934238045
0.0453416457653488
0.0456999976183993
0.0447066950366216
0.0447800250639286
0.0448880833428851
0.0464226939795316
0.0458392361803937
0.0477237895174581
0.0455818476338339
0.048919250623312
0.0484947339796737
0.0482269207135281
0.0466525829560622
0.0448021599102023
0.0461252109913776
0.0439997995936291
0.0439740673554816
0.0438035302622627
0.0456582106816346
0.0434167429580959
0.045858735020336
0.0447456836023416
0.0470025291885666
0.0453236359135885
0.0446492233717339
0.0452880112756709
0.0465951773104831
0.0441387928270549
0.0476794488175172
0.0453336760977728
0.0474995708743289
0.0436031350549789
0.0502895927781852
0.043901021078119
0.0469569054442037
0.0458748468518929
0.0530181623926949
0.047546619120463
0.0450620290419377
0.0461329112683542
0.0458406701993668
0.0460193588150394
0.0467302209759263
0.0474274105687739
0.0463001191374929
0.0466568679277896
0.0467458909696098
0.0485754844355806
0.0474912521368617
0.0456139151403743
0.046153187491923
0.051650120208422
0.0529224386214962
0.0492846135382828
0.0460037857704568
0.0493109199754122
0.050492880105453
0.0520648731284535
0.0443190984270334
0.0506568157896871
0.0466659488148176
0.0495705431842128
0.0463305364839636
0.0519051591715941
0.0482965839147719
0.0489555314808001
0.0505691560604755
0.0471321168099388
0.0488431419387675
0.04955126356057
0.0499658300456015
0.0496698337756542
0.0503681325727896
0.05073843885986
0.049706918831946
0.0526887911244948
0.0490124383309388
0.050897672309966
0.0490784210994308
0.0508077967908674
0.0534473350072298
0.0516776951428164
0.0519248112635836
0.0515868933727646
0.0535974539396132
0.0562357840092669
0.0492057705316279
0.0537960260990265
0.0516154941493397
0.0520467038130517
0.0497159619250353
0.0547800147078739
0.0596275212607119
0.0537846871395965
0.0606365641592859
0.0505541915191797
0.0574428029958438
0.0518191924432983
0.0591790748667599
0.0533183103712438
0.0598649952461796
0.0512319876257298
0.0572082972953009
0.052229790457582
0.0560149483072581
0.0549575637901121
0.0563297152093168
0.0566666986171032
0.0552268168256502
0.059261287488484
0.0588854395741116
0.0567668384146661
0.0566325283806713
0.06349508709664
0.0634925500841199
0.0617259118376146
0.0600176279862365
0.0624386972609759
0.0636229492111187
0.0584690317933184
0.0635485570546251
0.0612091133548851
0.060629457147268
0.0596878437251791
0.0669553481287873
0.065028654018807
0.0622523825586142
0.0614495619982389
0.0650799179829809
0.0632074729086882
0.068844756811118
0.0634230446757394
0.0696230202147566
0.0638133637335122
0.0684611891431436
0.0655376868071797
0.0752244236103133
0.0664704824827421
0.072079685170608
0.0757406481935189
0.0720864094618142
0.0749080243367447
0.0721109182204085
0.0783795283141902
0.0778435932621636
0.0760586438905854
0.0757242561867166
0.0799519077915975
0.0823827962930341
0.0857142299869029
0.0785045841300459
0.0841423305926427
0.0769547273723082
0.0824386962885397
0.0988359855482914
0.0960752506464977
0.0875365876771908
0.0930345668328357
0.0938039186502544
0.098756329861206
0.0912293075233197
0.094783898182497
0.0949835847178703
0.0967213967666102
0.0992987219741204
0.0981722577468803
0.10202560207408
0.103674955116987
0.105242779578332
0.106612335002697
0.108612629149397
0.113396411630698
0.114128042870755
0.118807246082457
0.109552749391396
0.120622081435088
0.117763835976345
0.115753250110539
0.115584447289853
0.121110736123093
0.121923578112094
0.122795856697953
0.124740352840743
0.130438220639431
0.129407614158648
0.133091069026558
0.135903715236467
0.143710746509023
0.130406254188696
0.154614359899268
0.137509937421926
0.172718458716476
0.145791368062883
0.161502554268209
0.159523402962382
0.185834364887041
0.180011392555016
0.180261293735028
0.182861110912942
0.190577119755141
0.196808908126711
0.20835708033666
0.206895590951726
0.212935851471335
0.225174565094106
0.226196596692734
0.217777140946137
0.258154441795335
0.259496119228999
0.257376940277426
0.260547986964092
0.271727030165643
0.279486371321534
0.284609010445286
0.290314764280093
0.294910598299667
0.298004155938669
0.320047243636647
0.326747045312909
0.319362657058063
0.336498249185704
0.335313246238329
0.350686017086915
0.343461006133119
0.373260362231842
0.366512036773748
0.376607991608771
0.38327047730797
0.389873434585919
0.398300580470123
0.407548510044617
0.420447258309033
0.411899357386737
0.420757132013318
0.429592247957529
0.436533504902643
0.443142024479256
0.44367445212498
0.447189135141192
0.452676681571153
0.49240058018832
0.497671390123521
0.477781226185009
0.456915887105882
0.447795174092643
0.458054501513968
0.472830893243365
0.47315756721702
0.480667945710984
0.479874408295781
0.472096598297179
0.466559796272006
0.466358003216184
0.471133847158593
0.475187922683426
0.47203178951991
0.477190849827895
0.465472159801526
0.478265025133311
0.467591948502327
0.505278767391594
0.47352218852969
0.462004545982425
0.470928514186191
0.467341767914142
0.466772623737456
0.455444592884884
0.454177121996836
0.455769047501579
0.458995700697831
0.445166114589366
0.443910282704564
0.43798531918227
0.446615993366599
0.436022275631282
0.424541858864894
0.42850381772077
0.426043812701397
0.413395978255546
0.402903246931844
0.432425201527612
0.417860621805128
0.396787838494604
0.402497266811584
0.397882381176061
0.397351236050516
0.398978265680626
0.398669476240211
0.400991300835805
0.393987085652197
0.392539119881116
0.393728721868339
0.389726074084499
0.388937244811813
0.393136471440616
0.388869490963334
0.389853178396094
0.38996235966485
0.385545865748808
0.385827531625988
0.384624392818327
0.389032138483927
0.387685884977409
0.387009335024364
0.388665865301935
0.391355956022961
0.387756131527029
0.387886870440752
0.385346204049967
0.387078863823318
0.385524744171839
0.384973765628875
0.385283933359892
0.384664799186925
0.382514591473526
0.382504637583855
0.387428935044372
0.380333740261911
0.384127356911249
0.376662140552615
0.37870844804833
0.368033826643944
0.372703336131001
0.381529326528021
0.382258104352083
0.365486981251826
0.366674794716986
0.362995799409449
0.357774278922266
0.358797102884078
0.364566898694331
0.365062941444487
0.349267604722506
0.346184391308225
0.341804325394662
0.345430894056151
0.346167070413103
0.337654083576025
0.330146229710423
0.327888717989915
0.337768995427285
0.347882732542913
0.34468561361181
0.349756314012377
0.333276442187458
0.315149278373846
0.320595446024858
0.325143832619454
0.319016002358933
0.308288314110162
0.316856908656537
0.308674443815152
0.314081418780219
0.312017378207313
0.306481155541634
0.301630532239286
0.306278348901642
0.308612517938552
0.298065849786837
0.295312760504194
0.298476957967722
0.288238621026928
0.288313432056273
0.306880056823995
0.292168603108762
0.282028073625041
0.275413972927959
0.273249668404696
0.273151776114858
0.275404433061393
0.278957714521863
0.265597061286803
0.264319834098289
0.258578667584501
0.258872428776597
0.264096873453714
0.252031753551108
0.25839319725333
0.244076170244206
0.251874194453184
0.237156449945503
0.249810319421786
0.252796158734337
0.259931390068562
0.246051463611967
0.239688692245714
0.24398013157214
0.242828788600059
0.236786474815672
0.232256836472539
0.229333896745699
0.225965272823458
0.227404991550056
0.227319009067286
0.218168819668985
0.223344317362225
0.219426513381915
0.214311704488594
0.230816449684586
0.231888699790487
0.219341965408293
0.21554524231037
0.212673293063726
0.218501157425052
0.211229311133435
0.216128340027882
0.213571243695035
0.220557745354508
0.216282563547445
0.222628244293633
0.225182750686905
0.220355795489018
0.225140399338273
0.225316726679132
0.224514725559478
0.234165178792139
0.23927999970113
0.236844481297288
0.236646647876179
0.243836716287736
0.24630203554114
0.244060304107336
0.250789311909525
0.25418692684148
0.259203703006469
0.265708397099998
0.269192840593221
0.274604121103858
0.279689997465507
0.280325804869201
0.293142688599992
0.300248684250267
0.302119749428758
0.304754054365948
0.322272181383511
0.324772970360071
0.334088802139811
0.332450206366712
0.34003423185474
0.34687365118157
0.352697786699645
0.349312266863295
0.353771483018191
0.366481868158359
0.372247333250176
0.369742620679824
0.378308032501019
0.376336014599729
0.386196853828508
0.387944669160294
0.392196346745035
0.393849519240365
0.409939231440923
0.398110885890843
0.402721437570374
0.404011412715815
0.404958254869007
0.413446395230988
0.408927624993539
0.407869710843949
0.418172867172104
0.422473707322278
0.421249396859102
0.417370611127539
0.426718892779723
0.42439398378858
0.427606022820971
0.431009155417087
0.427671548455283
0.432904725504667
0.434562577414832
0.431592828347514
0.434471291626994
0.458970539400045
0.454792011046126
0.448947533547798
0.453166808460495
0.453133552212993
0.461872341563772
0.465339661941742
0.471162077046663
0.471574673468727
0.470952268774086
0.479624178241582
0.484260025209821
0.480475940009488
0.481143489153453
0.495172573774609
0.493637606364491
0.496096859609396
0.490967655727471
0.504686443533825
0.512109202103905
0.507459921761121
0.505837318859556
0.508927835299411
0.50387679152889
0.505014269085659
0.508305730518423
0.511852164683059
0.509753751286928
0.514117450155995
0.512867285610026
0.516100450435547
0.513601427424258
0.504154229472274
0.515278845994878
0.5131594129568
0.512987649012412
0.507924494908353
0.511194469283521
0.505799564351395
0.506757165107934
0.520271947207989
0.502306536147907
0.502708653180243
0.50007669414998
0.501783807519705
0.506026254910875
0.509081609247866
0.509427424876886
0.495879903797134
0.501478999669882
0.506633200958065
0.50369330436732
0.506277019975432
0.510314523529577
0.511260202393507
0.510768279715777
0.513949914357243
0.516903520285546
0.52653888760957
0.524423122134813
0.526799430615568
0.528760930865416
0.534168447694922
0.531304655457465
0.531217859311068
0.530272648868041
0.532701860374437
0.531539528200802
0.533727545545656
0.530460377969091
0.531673296874933
0.530072170056878
0.525029970617299
0.519805333589829
0.517729120405137
0.515645402727289
0.513765227648517
0.504653143389101
0.505117321771459
0.503548107256054
0.494255919496181
0.489821928980603
0.488723307600814
0.48137306488397
0.478074867393496
0.479734207844057
0.477557385249163
0.469756674537567
0.467687950673384
0.467566396306436
0.462469157123357
0.458507222343331
0.462420587578586
0.456170615332465
0.4577762765709
0.454489390835187
0.457246715122805
0.458087876539775
0.451820917685292
0.45388314389186
0.453499765768146
0.451471517144509
0.450344345027965
0.45126097369993
0.454918889450324
0.452996687965271
0.451525144509617
0.448945165467345
0.453083874571827
0.44612813605178
0.447198125603878
0.44790457232958
0.447470638585474
0.444998979912331
0.443598137428838
0.446997143398111
0.442786599454592
0.448636975751844
0.446053709235975
0.44412445999691
0.445603080219538
0.448880659053861
0.44421106167875
0.44857921128671
0.442400169691063
0.44785745566608
0.447735116800278
0.444918631295025
0.446296677875244
0.441259856028576
0.44542487015226
0.442465755820026
0.447222925516456
0.443639898027897
0.443611634309103
0.445042692317646
0.441021263891372
0.44317669610152
0.444528017087444
0.441364049397384
0.440199142414154
0.439834284171534
0.434033219662797
0.439288129747013
0.432692964071322
0.426240352783993
0.427722284057186
0.420038550046305
0.420938186738442
0.415103889614658
0.408404742269265
0.409086918188204
0.40393039839888
0.397399523251021
0.394800477985519
0.394917340668327
0.389992532191589
0.388103657660164
0.38822971455304
0.382766998953888
0.386416799346636
0.380344933043353
0.380637170716149
0.380748816112791
0.379947129078191
0.378071780283291
0.378559001290793
0.378524009184995
0.378668271834076
0.379345316996499
0.378579366618641
0.378586087349097
0.381631186888519
0.385322072509235
0.383705050328788
0.384683070896256
0.383974404123837
0.387209774346666
0.387003535552454
0.389902710821874
0.39247334145755
0.393284454299359
0.397413406583732
0.394137605738682
0.397434894203013
0.399524538545787
0.401603921983459
0.403667488852592
0.402130147428605
0.402004736471435
0.403192808082008
0.402385510927254
0.404681747610677
0.405071996853045
0.405859502831973
0.405198608825137
0.402420232119472
0.40148156940101
0.39940745927153
0.399309300780604
0.398276552230788
0.395089731496479
0.394391970948982
0.396289512541535
0.391448524488242
0.39337863276188
0.388079575582988
0.389453373760137
0.38879156834214
0.384838777068207
0.384522279898982
0.381345771527626
0.383799033791257
0.380079850083244
0.377470709270978
0.375742423154952
0.373348917963373
0.377523181174741
0.370237593575516
0.373962955820361
0.372327460973068
0.369337266363903
0.366520831479921
0.368846637441342
0.364285696536012
0.365676509407911
0.364602692500527
0.362791585635059
0.36197622966391
0.359633606482409
0.357534721586599
0.359276279291566
0.354447679925516
0.354229508617938
0.35300625716846
0.348892045501413
0.34653714366402
0.343845909742572
0.339789903940099
0.338799303327594
0.335321862787161
0.333394735452291
0.32947989784767
0.327119471359
0.32509468424722
0.326074412965273
0.324311679630803
0.319622971972723
0.318326491311034
0.321718239880443
0.319923966062329
0.320647644990562
0.319682425563997
0.314970172714268
0.31334883765678
0.314403055163839
0.312681640967485
0.311602076941088
0.30890849290401
0.305677269963203
0.304190069609912
0.298598637066314
0.296428110054991
0.292111489227725
0.288179102780833
0.285426154165189
0.28161149098044
0.280740450974337
0.280075377227049
0.279474190677401
0.282878716701092
0.283128538210052
0.289247257730691
0.295621986990043
0.301763862100801
0.308026924254744
0.316342133494361
0.329485146239414
0.340785718535218
0.351413088023162
0.366175926885698
0.382432148360895
0.399457299234864
0.414282939195833
0.429002388890964
0.443091540214723
0.459377564421417
0.474013066326512
0.49296812370129
0.503335239065477
0.518526591024503
0.53166324131041
0.54297399593609
0.558832424701167
0.576456781092733
0.585266681815143
0.597926916666711
0.604690944911159
0.621521839190101
0.626833156700791
0.635761068109607
0.642038708732389
0.648532032741906
0.654146826508659
0.662327123206838
0.666084302501216
0.670483645704322
0.674818978967786
0.676557522178465
0.674766493079634
0.675012190985094
0.674243399483786
0.676786298704793
0.673648893613792
0.673074474162622
0.678423563779218
0.674402236765879
0.676396366753738
0.682152559245352
0.685475002247817
0.686944643787984
0.692475863827902
0.695658259295027
0.701764670469464
0.708384162100018
0.714862296476995
0.724353702913994
0.732678735133565
0.730171392584714
0.750359398833388
0.751363320123201
0.765054953792274
0.772765636323693
0.781760407033808
0.793203229298513
0.805030481828348
0.8168584509155
0.836276160007884
0.846434715092431
0.852423346666729
0.853592991337118
0.876027779769319
0.876079061533015
0.880488932675979
0.887505093985759
0.882122374498317
0.883635509483347
0.876071661046166
0.879493963032839
0.871900521632575
0.868417864328819
0.863689142261654
0.862195168457837
0.85643947562435
0.859606869114281
0.859763731894145
0.856648384998413
0.863852259778117
0.888440686257935
0.895981632599779
0.909802738948587
0.923912951311123
0.940808076291367
0.957726523119029
0.966941190547037
0.975307289276214
0.991525728319017
1.01824181742715
1.02891571102323
1.05381245309607
1.06584696519947
1.07304907440906
1.08344245020118
1.10967446047378
1.11179464715725
1.1387662997418
1.16509294891574
1.17436720457316
1.18905321490059
1.20987937270408
1.24565108598613
1.24633727100774
1.27576817564588
1.28664203282204
1.33046745277292
1.3275575154205
1.37677485243197
1.3741621935208
1.35960246776282
1.40183560990096
1.43194050828522
1.40220855357274
1.42462808413436
1.48213618084561
1.45244179371444
1.42357748598037
1.48094754367596
1.45567431477632
1.45252828465051
1.4250029729115
1.47119277724535
1.43164155307492
1.44279506207535
1.41759671073267
1.41621579645917
1.43351627897143
1.39528183480039
1.40287363852449
1.41969775457124
1.40520787429167
1.40544209006534
1.41135051125987
1.43298752729253
1.4375606027173
1.50648269508277
1.47426102616243
1.50209795014902
1.505628732394
1.52976121264641
1.51893158195598
1.56981960786637
1.54728163944501
1.61772863267971
1.58001306426933
1.63420896420478
1.55744275489471
1.62161000780974
1.60542600815646
1.626063039434
1.58808942099485
1.63787115977869
1.67461436602995
1.62389725251894
1.6280801588362
1.63284792452668
1.6598081791081
1.6957190170704
1.65331094344492
1.62339579176934
1.63556269202336
1.67535068410647
1.67007572554706
1.58125513685593
1.61051415285683
1.6236167097811
1.6757224237402
1.61241347182205
1.59974189598036
1.60593688643338
1.5984801106141
1.56690504742904
1.52518041336574
1.52679736412423
1.45871970027606
1.40978367323041
1.39341056754338
1.352413212521
1.26344378517762
1.23075151482679
1.18854862243454
1.16288431161824
1.08164729534227
1.05869524957427
1.00998909803101
0.982254521272702
0.947811959769721
0.953915397447365
0.914181908900448
0.915605110155764
0.90496102763438
0.905655638007441
0.897648691833818
0.889851521903672
0.882097267709803
0.871742257099368
0.856228319919873
0.859948064721772
0.846793630792471
0.827466059250125
0.812552710663765
0.792784722156812
0.783603006358939
0.767839326691953
0.752020332297599
0.729642119384606
0.707537662126367
0.690603642819467
0.668809673392798
0.646746430016366
0.622826627360601
0.597599808554414
0.569750668055993
0.544029303825987
0.517817219949871
0.496597267726112
0.467849880135753
0.445871794723994
0.428628320112731
0.412814596911909
0.392391611514946
0.376579722299792
0.364649215598729
0.350753708046785
0.339375169903811
0.325273979498948
0.318397196872433
0.311771236125501
0.302000089769164
0.292696045764202
0.29348036492923
0.286365347198348
0.283246537783129
0.284048753179649
0.27666041734062
0.283138188668119
0.278351535478692
0.280997186140977
0.278485347953577
0.280430328907437
0.284111521481222
0.283016643984932
0.286978569803032
0.287053398575737
0.290798657289589
0.291663823437341
0.292771055257974
0.292602035034732
0.292672877392595
0.291424343323676
0.29069801324583
0.284384112819699
0.284409765627717
0.287304845261136
0.282738048659691
0.282403516007262
0.28160626881574
0.27847201314503
0.274130329156888
0.276404251454962
0.278130637021308
0.278238035243192
0.277306393137866
0.2757101213276
0.274480463816713
0.284650647098912
0.285922269573604
0.283699976197065
0.28894620585728
0.288481286967113
0.288887976007842
0.292753428012198
0.299491426514479
0.301592662117775
0.299377963768505
0.303778143150563
0.303513334043256
0.307973653357895
0.307428384932253
0.311707136408137
0.310267911536216
0.315331766953921
0.315095498464261
0.311041078388089
0.313119997173927
0.313764611291675
0.311397468709525
0.321486550282122
0.317945208530649
0.32300862214553
0.327688609442828
0.336016793323234
0.336468787609106
0.344948114183977
0.352118972070773
0.364943136080375
0.368821602502963
0.384201339149339
0.400302807634047
0.410966815020908
0.422474717387709
0.428862891505954
0.425648130084482
0.443196693911084
0.443894289347811
0.444657919223
0.435108419834962
0.43854217552193
0.427035253230251
0.425584456262073
0.410098036324825
0.405750443089377
0.398958129474898
0.397228810149934
0.396231380736638
0.38875250496929
0.386830903209528
0.391854049389377
0.391064761929825
0.391080178642537
0.391689783222466
0.38742405040588
0.389064013088008
0.381085785280361
0.383529180066308
0.399215780363448
0.38104388708865
0.380607819635678
0.374434463141364
0.368862429348025
0.36142992524662
0.380277915835668
0.355502428690595
0.366704848083227
0.35980940366934
0.360698351988492
0.34709511388853
0.364185666949692
0.344554277930484
0.345546505791326
0.341113164130183
0.341753608014114
0.344110556102324
0.340277294387156
0.338484441128797
0.343082594557396
0.340533362078082
0.334275455335677
0.330883602247618
0.337143625874728
0.326415157579935
0.320868771242488
0.330975294404733
0.323809000453526
0.328004725049255
0.32728501627621
0.328324942826223
0.327227459360153
0.319176938938289
0.32370028169262
0.317973037603342
0.329188021944831
0.314692974110562
0.309737242552008
0.313062235433766
0.309879541132309
0.300438810274485
0.316453739663789
0.318586864773884
0.320489634598073
0.309638207621797
0.310021845077076
0.312169941650634
0.307143173661311
0.308951484001051
0.330735401745932
0.323949015624421
0.319143936379503
0.317985832409175
0.330036731023758
0.324170231269099
0.317115148612758
0.318502229693671
0.320085964516467
0.318540738395026
0.331847179681649
0.336321060524552
0.348476562490897
0.336294613562685
0.336781724324596
0.340697606155994
0.346756303879761
0.341300240887343
0.351352677893119
0.355637336094478
0.346533882703614
0.353191472991268
0.360306218739605
0.354884357725312
0.369417033485244
0.384547027664582
0.371606619484218
0.37566111726534
0.395935430318346
0.396819694862867
0.41242893451075
0.405763858529145
0.438238420384975
0.426860945543115
0.447469359313491
0.461728840878435
0.468839819845044
0.491447930311125
0.507355769524193
0.513501802476789
0.513178614558353
0.525102211244538
0.558323492187592
0.548542946218025
0.567045937122323
0.537995749947187
0.597160656945169
0.555432580081522
0.57286416510428
0.558805883387941
0.576657813932364
0.546724494616635
0.582146161321091
0.560336570588336
0.574812319778313
0.538104329275266
0.553271168721162
0.569213159971198
0.549501597616506
0.537724276827594
0.528921385556448
0.51630245677538
0.534508004651251
0.51928737055165
0.536923608921579
0.544145937933281
0.51875895421752
0.529530020578257
0.527564372129
0.53113505101562
0.537069115776665
0.527115948781625
0.515377790986676
0.530537580972144
0.49915678552288
0.465725781599757
0.515208183912489
0.481588801453095
0.51980140111043
0.483325291594133
0.498904254783645
0.475733346323125
0.492632224128863
0.473017803559498
0.498983723527306
0.461185517099583
0.511670732647277
0.529819867047927
0.543030035164304
0.498681496729948
0.476513849911605
0.501040846646793
0.509001049534511
0.519884696199854
0.541189652149699
0.534971208506357
0.558256401593018
0.501512622765835
0.528161053354814
0.492832413549304
0.500256979343166
0.497977087101834
0.523190918655944
0.519255113836542
0.577235542386576
0.516340144166013
0.542292498517722
0.485838327359094
0.606686538493744
0.57737572891216
0.594379173754834
0.535679508696892
0.626377821002319
0.542085341146714
0.575941177994119
0.535249537240602
0.561328192646105
0.520640975568332
0.613341815670513
0.587145441371388
0.646269969682196
0.602863664101443
0.693670716880898
0.705672189910925
0.746042129134982
0.599238561457496
0.722774103473805
0.678453970952459
0.7598882021579
0.703334973669348
0.789686110518311
0.676667393448996
0.763183317496883
0.581579359136617
0.712980764368997
0.687360384034149
0.714388720059901
0.579747204233617
0.646662844487305
0.676643155665026
0.666554616058761
0.64068707309976
0.747113771505974
0.551425699323139
0.680456310454353
0.577329990330034
0.730566656136274
0.753059176879992
0.66204905277929
0.643047492751308
0.855625665805646
0.71086303354825
0.652032030655149
0.651466591723857
0.599960420728216
0.55344436823355
0.691573655867684
0.582224062778678
0.70126119562085
0.572079018965029
0.660598331020056
0.490572470826183
0.643926782859306
0.626849344253965
0.756440386159259
0.709518972536959
0.769858325799878
0.631430473010502
0.843745534997769
0.686519100263548
0.901352778218443
0.337385982197168
0.738397432042267
0.722507455764384
0.903834877175481
0.536280630771799
1.13869669839701
0.592597174176031
1.29450782707606
0.603049955067269
0.807187783100214
0.474509085682543
0.545777159434015
0.484637413403216
1.39590013453542
0.407546972008044
0.822106670256593
0.765038349705894
0.773697320027049
0.410883388864838
1.00678970311038
