3596
4000.36533379555
650.420452594757
1
2
2
0.0298685294961919
0.0474561929707132
0.0294634315650704
0.0442370297950388
0.0349943334459084
0.0492253386455054
0.0298269363174935
0.0503021382408214
0.0275246297768957
0.0545754890584317
0.0317884839726572
0.0451324045686797
0.0278040855318241
0.0475045603258724
0.0386322463813791
0.0457710609360717
0.0218575050770522
0.0449706942165248
0.0343583285515542
0.0513842093001045
0.032791751161476
0.0469540232066178
0.0309833946289011
0.0447786534133606
0.0353760611774229
0.0501723375217402
0.0324693122142453
0.0556860614383476
0.0271451250178285
0.0475936099909515
0.0318901900786687
0.0464458536129839
0.0286553074356386
0.0497808764524161
0.037210568965323
0.0485922073294604
0.0288896531848282
0.0477786428069941
0.0266963289801428
0.0418911169111625
0.0345481389186899
0.0484755190021416
0.036331045259265
0.0417388729439645
0.0330582928564974
0.0477988345634512
0.0278479482469796
0.0485202864677701
0.0344848866347152
0.0452015190672728
0.0326371340531564
0.0473070781800519
0.0436185609626406
0.0523326601266328
0.0271195093211399
0.0470975811244953
0.0340762960797007
0.0470858254051357
0.0298972483537527
0.0473775872435423
0.0363551126780261
0.0539262763915119
0.0239578527140479
0.0471339894266632
0.0283227848107262
0.0425141936192116
0.0365374646163668
0.0483270615270618
0.023929255744896
0.0453520059381964
0.0312430126978799
0.045974978538905
0.0318131236428796
0.0421637770520854
0.0364717253974591
0.0413068208909867
0.0281244785708781
0.0473445687990263
0.0251048399984054
0.0476347664289554
0.0318350529174201
0.0461549023043283
0.0262920804511566
0.0375784223498934
0.034183640494677
0.0549285315380191
0.0270778087267375
0.0419867793237352
0.0353025362117903
0.0519901270690502
0.0274839922133813
0.0472690616173417
0.0289848350718222
0.0382114874960969
0.0340911943253117
0.0424460546867881
0.031916936858233
0.0408106448695867
0.0268348958174161
0.0400169313590014
0.0418819746123375
0.035339186247086
0.0579870322532468
0.022560648282915
0.0324897688038006
0.0574172806631572
0.00368568086483882
0.0758697901929425
0.0288275414476857
0.0505708290998091
0.0256108222643969
0.0428743094655182
0.0147660731552109
0.0490811622895616
0.0137468392833235
0.0476137806637058
0.051144348823368
0.0492854897741889
0.0330509796215287
0.0444407057882929
0.0172666484514838
0.0433568286290586
0.0572185759987716
0.0302684000619691
0.0349874431360197
0.0400114214010036
0.0116675152643528
0.0504222566723386
0.0464535053594426
0.0336171772401823
0.036604563973896
0.0374187299888843
0.0347387143400464
0.0192787615983474
0.0515016976074741
0.0404027903317634
0.0324266920628713
0.0356345989318057
0.0201055738502403
0.0780766392167416
0.0346043109145667
0.0411165936264112
0.0192192087064108
0.0281204451750067
0.0415804268993633
0.0433426346595889
0.0211769084023009
0.0417453000313018
0.0409353440073221
0.0369484940297963
0.0378295348482205
0.0316331451043659
0.0367326609487632
0.0484407530625786
-0.00668989963590314
0.0228335993747594
0.0684756759547751
0.0241637413677561
0.0904625201616403
0.027807606966289
0.0333140684710821
0.0382698321448744
0.034702489087447
0.0341926506910964
0.0298433824641851
0.0350105569367371
0.0218368168026367
0.0570489246341089
0.021455017070544
0.0405350740248772
0.0372561409681699
0.0460026623481453
-0.0099006715294667
0.0767614352166273
0.0412491290122301
0.0205970899035173
0.0483535674154589
0.046132144228198
0.0214487714579264
0.0235140810766378
0.0470094728502805
0.0373356992379502
0.0353868567171203
0.0338347081317653
0.0256632193896774
0.0370709423980359
0.0361066264453943
0.0343535907847759
0.0398142187190916
0.0212961867538543
0.021416817776625
0.040952969313827
0.056867190063172
0.0401898547789785
0.0392476503501683
0.00496226751870539
0.0343952342593714
0.0694345072846303
0.0284426892209595
0.0381813557871491
0.0268805654643455
0.0338237535270503
0.033014520843023
0.0335688111654116
0.0338411277462771
0.0107623201841343
0.0444153328462734
0.0477328405217221
0.0263341322939835
0.0363142373090655
0.0272127316585907
0.0225985931610541
0.0461831154704917
0.0666666375814568
0.0188493126787446
0.0420580417357374
0.0180971551736197
0.0419975150599167
0.0400921863072765
0.0373055922213108
0.0289295904939847
0.0401790090959947
0.0287089295677798
0.0452406199275313
0.0310096053847108
0.0415717041897112
0.026867869113955
0.0399932162344989
0.0306930262300983
0.038861794183556
0.0350212257554461
0.0392637232258369
0.0261390173384041
0.0422645328809111
0.0183468980868369
0.0306057659872778
0.045432862189651
0.0372403711600251
0.0344771703705423
0.036620276145908
0.0312751654851274
0.0329443232340275
0.028953454365475
0.0292069038789942
0.0297815413262599
0.0193893905858844
0.0604893418086992
0.0429758266402633
0.0358841938733078
0.0347493338207168
0.0242315258980628
0.0508686944183501
0.0291329053175346
0.0447848133299967
0.0302197104870712
0.0428614540809263
0.0149126771982167
0.0609377548632682
0.0333721747185059
0.0309279857485939
0.0321478987535603
0.0588908361762087
0.0243686351875846
0.039608080560977
0.000643764314599047
0.0883691373753235
0.039600920746631
0.00434880870456568
0.0582609229144264
0.0500009622006771
0.0268053516762918
0.0463044025082382
-0.0301095287489818
0.0945662166990486
0.0628251074950672
0.0439992665726275
0.0234494569686439
0.0534166801046587
0.0333152429330219
0.0425132071993644
0.0333615709856729
0.0317173254463094
0.0483231920778877
0.0242492993670993
0.0714742112207434
0.033662226731631
0.0312772833828985
0.0641078516634038
0.0346252120499278
0.0494808762893576
0.0337081317450602
0.0358689977305454
0.0197253375054061
0.056846018053345
0.0279899883245717
0.0577984600493353
0.0169262878868566
0.0620073921244683
0.0340107046172616
0.0489297661094583
0.0280178686046656
0.056059656509285
0.0258051078823042
0.0441248151521841
0.0303531511647662
0.0412297713007305
0.035067305789904
0.0298898782141964
0.0557063067600544
0.0584293213120715
0.0148643638032746
0.0610449071566057
0.0367090385100156
0.0500526173455974
0.0291547960597379
0.0460948805649287
0.02554818765475
0.0400144413274724
0.0212986876081947
0.060316082037621
0.0433672224236945
0.0463509605680225
0.0334923487156116
0.0394754432397002
0.0367498135821893
0.0472802065951799
0.0393852015410277
0.0424161741919787
0.0351906032329455
0.0341468144389904
0.0294937901073416
0.0754146380200439
0.0217629242770107
0.0575719756292818
0.0639893221848325
0.0432523071547163
0.0509815157073911
0.0466790208014664
0.0481605291305858
0.0520731834236437
0.0456632180521347
0.0470941256479508
0.0422610580631561
0.0602848711572073
0.050438802881161
0.0466321719654558
0.0337797877836285
0.0548095369662929
0.0711376591163224
0.0707531842979635
0.0551848223590424
0.0438957481644435
0.0521702078670184
0.0847094274496604
0.0377335301494135
0.0931503982860374
0.0462244736743583
0.0701719430322354
0.0508225775141957
0.0673837021780351
0.0483382599244181
0.0748932153185572
0.0473389629665161
0.0734172565007878
0.0592873031390067
0.0711442132537487
0.0613322566661119
0.0597825192365646
0.0819601426473639
0.0885299308830371
0.0633351301639941
0.0799329416646653
0.0556952395262664
0.089457147364173
0.0829780423418708
0.0916212220811937
0.0974970803643464
0.0674959519676615
0.110793039246158
0.0808839839577022
0.0845079400709365
0.084397330829607
0.0814641150446153
0.0884840599271675
0.0925398795680687
0.093279790986911
0.0927263382339076
0.0986523036033803
0.0956506677614494
0.0937265201284598
0.0955691256034446
0.0946264858786265
0.108532433926946
0.100692758445357
0.0977429448849403
0.106087128412712
0.102186168671962
0.132297040996924
0.115927994322993
0.124481105202023
0.103340127215384
0.130807725442308
0.108301736991825
0.13675483238185
0.109856820837978
0.126616055384018
0.112937072652719
0.151686264444053
0.127698675751764
0.140732844448254
0.141814442705266
0.136719451542644
0.131255807054986
0.146305175700073
0.143886727062773
0.171043509786266
0.142777885174951
0.1565634153879
0.141480289127887
0.17402885414797
0.133603350861051
0.185027866892862
0.147734581339002
0.171009625162471
0.149986868416776
0.170723133262383
0.148987283292553
0.182312459506623
0.170177921736952
0.17979204522257
0.180039589676958
0.18689699869113
0.171369592009664
0.193878761828762
0.184528807752382
0.194921089775924
0.192433465586792
0.192905134932216
0.200794360452889
0.209468642831055
0.198043682549666
0.221042229535804
0.187689793824771
0.245529587154397
0.193083169139025
0.222143600701407
0.210737608008301
0.2320183830301
0.215769883477987
0.233205906536826
0.216136717626027
0.243066397280067
0.22387556441796
0.245026387707902
0.232337729726603
0.259663951548405
0.241152434973387
0.251813143116588
0.24491166537337
0.26157419828921
0.256921126401792
0.272202225623676
0.235726479471182
0.287241646106888
0.272605703409447
0.305304962814825
0.269146450177666
0.303696665206074
0.26326172569069
0.295219347222876
0.281383752171696
0.316824620576826
0.284992840349586
0.31435431063227
0.293270374224041
0.315277919361475
0.305018487065569
0.324794286172134
0.311108996585865
0.334014432502749
0.323766571336461
0.342828512462873
0.318975579379762
0.351868042186065
0.334834425547701
0.361237985059125
0.351192313099475
0.3684822991298
0.342271600111658
0.366239665197826
0.343229421218833
0.37673561019161
0.373669415247069
0.391072081161475
0.361191451182907
0.382717787725002
0.3691659480496
0.396805150601605
0.372923927742638
0.409593227468506
0.390329645344048
0.425139771286605
0.392540954720799
0.42386488869437
0.398048352554433
0.440179316157339
0.428705365388963
0.460346671822119
0.423279874139922
0.443422651035793
0.41517226091171
0.464495770475589
0.440962856470796
0.456324023330284
0.444970091937182
0.474050324207959
0.436324179872787
0.475432787305517
0.463039010646848
0.496060644082037
0.471660743282002
0.489058920934858
0.476161488517178
0.493751261207745
0.481671740306587
0.525807472290067
0.493900505655529
0.519819819640066
0.503310368650709
0.526230458797777
0.49666385637466
0.535523853595539
0.509024069981422
0.55248097999434
0.544247915337672
0.542899319241062
0.53419116180025
0.575772346169759
0.538739372493003
0.574137062739585
0.553929733896309
0.580185281622032
0.548269335924417
0.597171405831442
0.554541716288242
0.594475597559232
0.577496460006271
0.599579912856903
0.596241658207716
0.639546287480407
0.57074832411809
0.624063238421836
0.610944172685639
0.635862470593141
0.609518333793403
0.678144292454863
0.617978612818519
0.650751301586402
0.621401356710375
0.654364971799475
0.652580125833754
0.704127257618098
0.635867646125331
0.669121424538677
0.649060335215659
0.674065876562721
0.6545794233095
0.677309890085145
0.649152344326127
0.700799222545176
0.67554998383759
0.696916677005708
0.674770623738474
0.719932582777694
0.690258920183886
0.729299388769394
0.711991038668423
0.749246014261553
0.689081973972234
0.765084514725707
0.699412381046486
0.723191327303066
0.730055537257856
0.770608150623446
0.749758408635204
0.80128222347423
0.725739182626098
0.797877710727339
0.74618812049649
0.806434326088196
0.791790086381616
0.780834419189181
0.758696790475465
0.815218320286594
0.762751030126438
0.819928290728424
0.780109309131763
0.792136286428131
0.772634137862082
0.802085352347209
0.791390149074365
0.830133115959737
0.781674443720725
0.82946321705039
0.799499200452749
0.834896907170625
0.815663047615378
0.88099791618156
0.818547198718281
0.868307689998369
0.825249004528468
0.876455024904874
0.850176718451779
0.906341920185092
0.841943030315385
0.856101308083345
0.844214902730987
0.913656817345625
0.86499054529604
0.9207175392799
0.860118395689948
0.909439374404513
0.863632699483569
0.887708476965078
0.882465246364957
0.954516434468962
0.88522334243822
0.923417825501763
0.873132283625965
0.935629661583178
0.924381152769769
0.955660101932898
0.860009446008789
0.918265762156056
0.940366016446379
0.988587611687789
0.923834204095813
0.944187556627263
0.867461191628809
0.949852057531879
0.921084089179364
0.948127862491664
0.90745211653754
0.99105983129576
0.968711696745999
0.993284133480962
0.950733284558883
0.966907253719404
0.923320931955675
0.987852009508287
0.942643356696028
0.969108921039581
0.934187872950436
0.987862617634211
0.985073467671465
1.06235295198372
0.986504563252148
1.05611266557189
0.978632822684517
1.05526584946413
1.04211805342143
1.00552711367091
0.977543158883772
1.02836491544581
0.981023526066871
1.0116948908012
0.996408377861871
1.02688131233819
1.03520388395482
1.07163495757195
0.997481204924714
1.02585783345988
0.994810525223901
1.0926526022112
0.988350458258256
1.05395534011156
1.05100438785477
1.07827986425411
1.07543299889276
1.04836668654762
1.03064001143155
1.11115166121315
1.02657008983394
1.09824157375291
1.02620463574379
1.05402604211061
1.0092521252514
1.10655392816225
1.05327419909461
1.1038398047948
1.10090249711683
1.06085235245565
1.00517374084129
1.10799950627577
1.08921500908521
1.04629273909086
1.03981641875904
1.12338305745725
1.05851918082709
1.13518410573724
1.05968201070164
1.13523051451349
1.07291635086231
1.0496047956034
1.04965575388885
1.1123480205413
1.05488005010803
1.07421538153706
1.04744386314593
1.10340002000958
1.05584571895217
1.1242445245646
1.07206691250873
1.08508677330284
1.07266385828775
1.08998523962707
1.05756817279312
1.1385165535728
1.10947019081774
1.11051753654314
1.07075243168503
1.04381699828421
1.04187392482037
1.10481200044617
1.09778712380324
1.16804319256194
1.08626493152949
1.138072119974
1.0545090845104
1.12331557121438
1.06363446142066
1.14282899524608
1.08214659806296
1.11098034702272
1.08300002192663
1.1087946024917
1.11243896292176
1.15066257264961
1.04370197356481
1.07528841230225
1.06085993507294
1.08042388498919
1.05897088117621
1.12324288924105
1.06261163942984
1.15510345977052
1.08083354750081
1.13311728374377
1.07270356615021
1.07650017206135
1.10933689914888
1.1205119661097
1.08675608186527
1.11025939374805
1.09611470336728
1.1211211915222
1.05704996993028
1.10195219183875
1.05822120996935
1.08382347791088
1.05178714672975
1.1568803960951
1.06493067480022
1.14872158286701
1.08610199173853
1.10158774299851
1.0980959760792
1.14908440729257
1.08604369512187
1.08991547688888
1.0315488359799
1.08129829023489
1.04950045668888
1.08470570033176
1.03109475510108
1.04470521605208
1.04234936198337
1.06407989763394
1.0767126601458
1.14106676611397
1.03374205835553
1.0763903912593
1.07981292099676
1.08739290333606
1.0675952970422
1.0637866941848
1.05231022296784
1.10082114780325
1.03458047305814
1.08181024805466
1.01974551603252
1.06508281621317
1.07527685913047
1.05383090546945
1.04381096189506
1.03919071323809
1.0113243665302
1.05619701902486
1.03115777750605
1.06695236969794
1.01164711840198
1.03596113822573
0.999628661649602
1.02584855140846
1.00337295543266
1.01385990093971
1.01225697217619
1.08925010586471
1.0032420121951
1.07107859224011
1.01646606517711
1.02884723237292
1.0071974343498
1.01708503368946
0.988357467738504
1.00066858882345
0.97690024809895
0.987672580284486
0.990595351786196
1.02202406277483
0.985825381315934
1.01496511798634
0.979887029330497
1.02132183846485
0.955155239210975
0.976621544469344
0.981555936448749
0.973426800718136
0.956607678164075
1.01475069115353
0.97594839317845
0.980592698794166
0.95488224004944
0.984027550134094
0.962247452907833
0.975381324412562
0.947090070062083
0.948064479805116
0.895113166733695
0.926466766641027
0.956376265487525
0.952993727426408
0.907501051216798
0.977236088194942
0.933871067727612
0.936382848275956
0.909984707284899
0.947419750195981
0.916482810046971
0.908620483552264
0.908787796351858
0.921228372393231
0.902901074491847
0.942629491864136
0.906315293852684
0.915537360440007
0.873298684826702
0.901211806594854
0.880378295230591
0.887139263280128
0.87626942949036
0.896402967723743
0.850309430585091
0.860251353480168
0.854776702609966
0.888511707920247
0.84920848351576
0.879508181048802
0.836889417354898
0.848647562151095
0.823130472026594
0.852079881411975
0.848866905803371
0.85459506216554
0.843264953705726
0.847807765357715
0.820568776479826
0.823413519625868
0.797764363772479
0.82452872805056
0.804542219534181
0.812450408785725
0.787179482738612
0.794715120324942
0.797791555410695
0.803857392769547
0.783718284664106
0.795863670443293
0.78462221248828
0.782556824682633
0.746187070496307
0.780995041998427
0.761924624651172
0.778926131744484
0.758718492081568
0.756706840937404
0.757973077734898
0.765201310259761
0.735990718847622
0.764381285022093
0.737957580221591
0.732073066539026
0.72355654846615
0.739329143398913
0.718949846506445
0.717256254016712
0.691710241273031
0.718531058914463
0.719560265743994
0.724767531400433
0.718388094526866
0.714780769714984
0.683467640045595
0.71391656495497
0.698437958567752
0.688722550599382
0.685998347232978
0.689052436423197
0.676918758882949
0.681181989113104
0.660627520564075
0.679197094696653
0.664618242359604
0.663993233485199
0.646444772123658
0.649255786409794
0.643136681236034
0.649732137771449
0.647123823788969
0.646297328220302
0.636369571727325
0.651500540955809
0.619555853321401
0.63817675745776
0.618356546787039
0.631483005185198
0.617940649900023
0.612324944028322
0.596586013539605
0.618654148133998
0.605397919395696
0.605461853452669
0.587455964578925
0.591278877503486
0.586413716039987
0.599364164705588
0.579673358494474
0.582138970455944
0.572919858133379
0.582172762221841
0.576597466949357
0.585405554041801
0.567662074671481
0.573581523438886
0.553561654415356
0.561290312169747
0.5504335048824
0.565674368194493
0.546257256990607
0.55368128279003
0.547266295481628
0.547176367031316
0.530055827458666
0.540603455646836
0.529186643450297
0.532890569766409
0.524086481330565
0.53229475919365
0.520859155223169
0.527971960688582
0.523135002419957
0.518519693463307
0.498638616841686
0.508425522734109
0.495802627621479
0.490640948430764
0.496369954026953
0.509153775797352
0.491706587491953
0.504364336019363
0.488460022259232
0.498912112846916
0.480600161291674
0.486024077669232
0.476306388281093
0.482507763038182
0.469278468716267
0.473225259176099
0.465016496658006
0.466647823747346
0.458777224144757
0.471575983617567
0.459719087116972
0.462766563443606
0.451720685934852
0.453274651826962
0.450039821797512
0.454906490272297
0.444940076664045
0.443554674121916
0.439686614973674
0.439567988113573
0.430099327706881
0.433378977160704
0.426432063170736
0.434765350167286
0.41884059202861
0.43342402366279
0.419485418286107
0.423514525038398
0.413923808749677
0.417894815082047
0.410111414541494
0.40613188470102
0.407363434708555
0.415857704808895
0.399160298034134
0.402461086558284
0.394013363730789
0.395518881835353
0.388135318456695
0.395664566788517
0.389266467617723
0.386786276958872
0.381701598687762
0.390443973711415
0.377003611368813
0.384254995440409
0.368502643944768
0.376084183295517
0.373166107203076
0.378399922985865
0.370497095212219
0.366588353313289
0.367342213754933
0.366476655179612
0.352144162806958
0.360986929958316
0.345778188972237
0.356039262999016
0.349658952097749
0.362403730750647
0.347304740210258
0.350348121271717
0.34067271357223
0.347010811482009
0.335905849509268
0.34051133220266
0.335717617606946
0.341112181154165
0.331919481461583
0.337993804777109
0.325734324205492
0.333139625629746
0.324548969025159
0.333935459035594
0.320056451793132
0.327663465635264
0.316930529663742
0.327299177480174
0.316019739162039
0.317785228098044
0.317421191501436
0.316163005023555
0.307922866317426
0.316864942887083
0.310306400537985
0.310979109559702
0.304446283334874
0.310611479077521
0.308186787231639
0.316467471623895
0.306915877292628
0.310725027120902
0.303000021741915
0.308463062659311
0.303570105054489
0.30934766846953
0.299222022342903
0.307616900422758
0.303230289032137
0.303621751832184
0.296812177558666
0.308726589878485
0.300284414143693
0.309570217880254
0.305716761849962
0.309028937328596
0.305596881178773
0.311346580257254
0.302768254427601
0.310039201651451
0.308945110553066
0.313625716680531
0.307120952723594
0.318403999663567
0.31579982563027
0.318328147455617
0.3167943565043
0.322012450422895
0.315007291675009
0.322025077065058
0.314633153264016
0.322614505158516
0.32447578152974
0.327411205914823
0.321171851348458
0.336813151431784
0.331232816135646
0.332192564553399
0.329732723501218
0.343131393521527
0.336367769166869
0.34100088392044
0.337064567442415
0.349852358818702
0.341671016461367
0.346968441878559
0.337899581078897
0.347262764972967
0.349884373245894
0.357726761992861
0.352751427496215
0.360251275225251
0.360397244598765
0.366929437903184
0.354356513666562
0.371445824090706
0.365516325593535
0.374395460465586
0.3730657069601
0.384146078240975
0.380107074869837
0.385426857910295
0.384146825416177
0.397183956704688
0.392294055457063
0.405182263490229
0.399271757741908
0.410054134994944
0.40515119278846
0.403759189811134
0.40547160232578
0.411910228979506
0.408170500346012
0.416904594524739
0.410117592963563
0.415100401697249
0.411601693491155
0.420882079559991
0.412872728761449
0.417545651886864
0.409252065352053
0.416999982624218
0.413422803513077
0.425975578195153
0.418501521369341
0.416378690119573
0.408988144551178
0.419647465119932
0.410812933323475
0.41790106353339
0.413986305682925
0.428437613982835
0.414889686014272
0.418359081759134
0.413438834567189
0.413471899213179
0.410891016306044
0.420765806045566
0.404295322623954
0.417719065829017
0.413349186518061
0.415421932878163
0.417051969803095
0.419027089279029
0.408918830414937
0.420018729725012
0.417459133745016
0.4200966024837
0.412206582382104
0.418945036933078
0.414620345603842
0.422028005361663
0.416540393908124
0.422073522783399
0.416835996181994
0.425326207182522
0.422255673732074
0.422511486016866
0.420869022779528
0.423897601298128
0.418907226054258
0.42814232997263
0.417452379247714
0.427426354128024
0.416398676410443
0.42494128187588
0.418345316225116
0.422135004022614
0.417190864984457
0.424080424308653
0.4114900881896
0.416732519768932
0.408675147875056
0.410306403507751
0.406640183627355
0.406733415669124
0.395990291472881
0.407201190931608
0.40275211381748
0.40857349529143
0.399095468572862
0.401610958078439
0.385937100010734
0.389802837095242
0.389722502253245
0.39189111441864
0.380582432817443
0.377260794671281
0.369705675584496
0.379176690355822
0.370759718099792
0.371948043370421
0.357365611072079
0.360346186214932
0.356655367139249
0.354960701572356
0.350182112108482
0.354559769074257
0.343138070162694
0.342890235970764
0.337400821233973
0.337249822646408
0.329183053107601
0.332145500695879
0.323053785499797
0.326116736776567
0.320217958198557
0.317976301154284
0.318572882531351
0.321916871690539
0.310452010774103
0.315069823634999
0.30858381896107
0.314659400097357
0.304307083386066
0.305010197969204
0.299196149970657
0.302716009971165
0.293278993067437
0.294975623886839
0.28762195661643
0.290540712409006
0.289862855104381
0.290080425203
0.28033015721731
0.288434940807234
0.282123982830981
0.278502678411594
0.2762194428627
0.277950757510968
0.273990938286086
0.278014321967681
0.272183058053437
0.274294453767855
0.27048186391431
0.275167603500972
0.263945656460836
0.267569912020397
0.258997119543457
0.264288050913673
0.262015584649161
0.261231009222141
0.253034200088883
0.260242579509264
0.257137713220182
0.255327913879804
0.252951876799783
0.257450020897556
0.246264142854445
0.25109577702074
0.246201120527372
0.251700873824696
0.246945080487942
0.247612835359806
0.239574828935812
0.250426468362722
0.241269319308148
0.242411569444588
0.238582927656649
0.237065704954144
0.234388826515033
0.240910817302173
0.235023044867353
0.235376994586786
0.234114568096702
0.238393355772141
0.22694380832931
0.233002100452485
0.232459313856381
0.23239109443366
0.22777082315538
0.230593201071866
0.226330261249301
0.228335541684774
0.222627711950362
0.228446245127309
0.222471280707469
0.225771263396476
0.222441647305443
0.224478830487096
0.220202832344593
0.223471289871063
0.217418512413725
0.217279832414044
0.213972793143268
0.217239431300024
0.214377019965925
0.218981448028839
0.214950358581154
0.221041898594859
0.210631342472073
0.210491014592624
0.208599848930759
0.211290946370976
0.21020910454022
0.212213718148171
0.208980672890462
0.210546778407476
0.205675017663914
0.211406243947764
0.207141175733999
0.209672267465455
0.20336640722748
0.205860336539656
0.203736231418613
0.205391963287704
0.201533699767619
0.207559216664675
0.204766980964198
0.208535678560431
0.202353720970762
0.203943501332196
0.199907789641545
0.20396651338513
0.204031862082409
0.204124416708015
0.195223221709059
0.202143431826962
0.197934523628818
0.199877064966124
0.196572536861952
0.200221351585844
0.195791157760553
0.200946277551324
0.19554898149994
0.194296909637074
0.192684205260194
0.196728296254333
0.193809929510439
0.197402782546855
0.193560103241714
0.196319152211525
0.195542008272201
0.196798727966072
0.191324438108509
0.192454845130209
0.189742951545026
0.195326724666752
0.189123904766618
0.195974093622185
0.190558791376
0.192979286150474
0.189328728996555
0.19011260485117
0.191742596047519
0.190212792949855
0.185072939402697
0.190935198174245
0.186587931938048
0.188575642283477
0.183621028985859
0.185908006012847
0.185286667317147
0.187983423091493
0.181503175578783
0.185965316068762
0.184839370900431
0.185130444486272
0.18009550226637
0.182815542663628
0.183922020174351
0.181457082060618
0.179922442861609
0.18540018111356
0.179659591690887
0.177615853873683
0.174041624826577
0.180391667843125
0.174643147499595
0.177305125562558
0.174491919690596
0.174742347140912
0.173154585067854
0.1732994011644
0.170116514302428
0.177153514134793
0.17208440583157
0.170967264000849
0.16925604680993
0.172319064422715
0.165563525254142
0.170993342441207
0.167193017942657
0.173087046290656
0.16748240540196
0.166226616169365
0.165248453873094
0.166740259051548
0.165944536159658
0.163682087819637
0.162173831034662
0.164514002020773
0.161763093904968
0.164670926930111
0.156645472839306
0.16008978049227
0.158310936404191
0.16018133414662
0.155496593145396
0.159913967492963
0.160199319230681
0.160762818174569
0.155128897278393
0.157477199223761
0.149646522450077
0.15640627044566
0.153900787600502
0.154668463110859
0.149022152342839
0.15309857283777
0.150145537980194
0.152992662669438
0.148127462941502
0.146248067867622
0.146697493156385
0.151896748921707
0.143532416666314
0.147434178886614
0.14377278945866
0.149382222716739
0.142339429808933
0.146826636031155
0.142424030155875
0.142514875009567
0.138109056409673
0.138931680909614
0.137691994103507
0.140528942158732
0.135679304108721
0.140186596872549
0.135392884100104
0.136643182301455
0.134802328929656
0.134323566313934
0.130834932844233
0.135941293327447
0.134112294616532
0.132486575666057
0.131187585380194
0.134774878780948
0.129980514479739
0.132875080040527
0.128276242458229
0.131530924489465
0.122256085010861
0.127340156988977
0.127352956848988
0.129140674915925
0.125269700954981
0.124687418902816
0.123816001487853
0.126841512276244
0.122476661693864
0.124513955837735
0.123205141632922
0.125477323756037
0.119611424850807
0.120383048005807
0.115914066751072
0.122968256671169
0.120222418324103
0.121272190287929
0.120012161919789
0.120025992548077
0.112763835465491
0.117812898816182
0.11646844672961
0.119237528476681
0.113595911176435
0.117139273875624
0.115138375007588
0.118299672955672
0.113661397638916
0.113251006249879
0.110551099487478
0.11465871003273
0.112952201105604
0.113459001621789
0.111483328849087
0.112367926025216
0.110113898071493
0.111329793150955
0.10838861225935
0.113610027952713
0.109063553493097
0.109955348409985
0.107874822991524
0.111492895605421
0.10587075627448
0.107341888185508
0.1093782363094
0.110234008439518
0.104895389598398
0.111673335409134
0.108181393776503
0.107987697984361
0.103503724711355
0.105316034949988
0.103318124125819
0.107337223031637
0.103810266285283
0.106312461792017
0.103400095167346
0.106556193754646
0.101617195971988
0.106608869605166
0.102079342973583
0.106200838985994
0.10123598243821
0.102856959180689
0.102133820092946
0.10438079847358
0.101938857213794
0.102168257484758
0.0974217548821497
0.101948996533244
0.102436439393549
0.101382118513572
0.0996937659226719
0.102207641118446
0.0993715529682215
0.102546240423683
0.0985509115530194
0.103498377106916
0.0990054314087433
0.103578265700448
0.100589583547389
0.0983361092984613
0.0979033598525366
0.09985081535772
0.096832139246143
0.0985449902483741
0.0988963495708829
0.0996779583876612
0.0954275368149197
0.0980302628854563
0.0970202170203669
0.0999597818978765
0.0942401759237234
0.0952228262829672
0.0967159070198073
0.0959349108416276
0.0916455512591909
0.0946492921673908
0.094535777419901
0.0947839573151957
0.0925450851526948
0.0972755572129775
0.0948223846633916
0.0947637675732413
0.0891832617885812
0.0922255508136782
0.0932518239607257
0.0926307100646953
0.0911948095543573
0.0918420134839976
0.0908554105598833
0.0951120259169767
0.0910818084585197
0.0931361033425366
0.090920980114029
0.0933253587565704
0.0908045490585523
0.0938218196859069
0.0892597838558677
0.0886064658651557
0.0871651109765875
0.0924909708753429
0.0861672978624511
0.0884817116509694
0.0891397589358335
0.0900739443615151
0.0871922639651181
0.0902197832048357
0.0873977927601836
0.0877462800906754
0.0878122522587006
0.0873347464189693
0.0841964268443542
0.0893396581933403
0.0869580760808728
0.0870544540772259
0.0857577716006732
0.0877612012978288
0.0867850836592913
0.0845359639269349
0.0850934385963922
0.0894635125765953
0.083250815029203
0.0885221148768833
0.0867452068785508
0.0834160573832529
0.0814332893718208
0.0835623601622705
0.081921012642422
0.085539630158211
0.0818731005616559
0.0806424476077273
0.0820216449075794
0.082960058307813
0.0794302480926542
0.0822634264936313
0.0807634901138262
0.0802236625637385
0.0774949769058355
0.0801720093697686
0.0775650824101005
0.0809318514636672
0.0780735487687231
0.080017563225751
0.0771971022710594
0.0778877095784896
0.0762714574330862
0.0771909493073935
0.0744409426571693
0.0779232208914614
0.0751865681553619
0.0765125847661691
0.0734352116005828
0.0736311983934907
0.0719322116071829
0.0738460083947166
0.0722799053989264
0.0725578296804431
0.0702076465013438
0.075690837144399
0.0714828803488383
0.0741524237174423
0.0700897910882146
0.0721899968810929
0.0704177156466667
0.0723981008550954
0.0721221442275594
0.0703711587779732
0.0685959692292885
0.0708534899108158
0.0697120330197179
0.0704867894846821
0.0688224369254814
0.0718004956609582
0.0680050012793449
0.070598847763926
0.0667305939440961
0.0682060260014539
0.0665204834370276
0.0683719767209602
0.0660814507667663
0.0659260892497691
0.0651537888843507
0.0679677352060905
0.065440011927215
0.0638145069401477
0.06347535248853
0.0679650532650169
0.0642938778618853
0.0658083975145734
0.06585675380779
0.0660135106801509
0.0627346444845787
0.0654380399875395
0.0662819849086736
0.0646859075573581
0.0623015602257601
0.0638275293500974
0.0617574281927914
0.0646329060976579
0.0616275274177711
0.0619518579163017
0.0605234089380508
0.062656397937869
0.0616854698461572
0.0610198743881255
0.0600690064561811
0.060379582290498
0.0609850910578568
0.0622048183570876
0.0592544297827774
0.0613700636392015
0.0587106101920506
0.0597523790727027
0.0580061124848184
0.0589314052682675
0.0588745633647228
0.0604329882631542
0.0601349063156498
0.0605570472228916
0.0565735435564282
0.0582349720877359
0.0569967166929776
0.0589708358052061
0.0561534526700563
0.0570364790965035
0.0564195379112402
0.0575012038739075
0.0571497072822282
0.0564526830565434
0.0529677592369359
0.0550457078410957
0.0554904885450487
0.0582850258866063
0.0572067848156464
0.0546076994131202
0.0553466376614815
0.0573471514115692
0.0545902862498951
0.0574502837669312
0.0559288010477258
0.0549420756758413
0.0544817410687096
0.0554392368830733
0.0530224349484824
0.0564734436575806
0.0535556867920567
0.0549814981129777
0.0543279728964998
0.0557684064633607
0.0566420756170723
0.0524811988699909
0.0417952124774148
0.0497204135153773
0.0564160663463885
0.0521866535785164
0.0474916000447805
0.0475833189055674
0.0504823520500453
0.0560516125798214
0.0508995381986693
0.0524470602735736
0.0469361248362562
0.0512937126420178
0.0513144463828897
0.0505514606892252
0.0487525755701547
0.050568005969078
0.0518004142654577
0.053133551527579
0.0494050863848018
0.0544771093876502
0.0542191790659599
0.0519122104429133
0.0491546507654246
0.0518316042159178
0.0487578411833169
0.0492995422286026
0.0554041344006144
0.044346658934036
0.0556176935909316
0.0441362333606643
0.0522064436676599
0.0464629315974037
0.0586412849332668
0.0474155992977683
0.055179133029085
0.0386246947953056
0.0498799703707949
0.0312771989692796
0.0565387925452487
0.0345774373966585
0.0664291983214602
0.037613843143573
0.0681749653057433
0.0244673976181518
0.0675756470148945
0.0276874739534734
0.0774798452169276
0.0267381851505436
0.068750673703834
0.0186042149565332
0.0807414586183153
0.0254537427547194
0.0683932104376681
0.0242046809817172
0.0730535719711396
0.036290604080513
0.0599377448041159
0.043986954610903
0.0534366165406647
0.0484628735413833
0.0456544702528398
0.058678078938652
0.0373088677563884
0.0601097437909407
0.0385897316828574
0.056535971220441
0.0403273425000898
0.0568594419310019
0.0431431765000962
0.051746644225521
0.0466595517790712
0.0462578170580156
0.0512061360782411
0.0481542508739132
0.0486891553553942
0.0482312751844295
0.0464567766982621
0.0498040957491614
0.0467801803939969
0.0513099344867811
0.0455997966883279
0.0491998426757478
0.0456809189663173
0.0488133397799028
0.0456569924143195
0.0484633278256667
0.0453789791411148
0.0500786498631945
0.0463283626160543
0.0507159654776878
0.0486250816419362
0.0496394326785748
0.0452505065059771
0.047540319514421
0.0461761734630762
0.0493037170727917
0.0462090457522849
0.0469111210518456
0.0458793064501347
0.047564259911397
0.0467761732093071
0.0516292829423186
0.0469822921220513
0.0479306937291342
0.0453812271288806
0.0482541968649949
0.0461695326280669
0.0502204525433506
0.0451435118993955
0.0480634477493144
0.0477447754473236
0.049279779112761
0.0472419890643082
0.0461018478001777
0.0463144692103189
0.0493840188893331
0.0468308001476622
0.048835353264635
0.0472143030721311
0.0508115898519631
0.047700884323727
0.0480627989706736
0.0457951636075584
0.0507150597169848
0.0461651985036609
0.0496080261781692
0.0484865135911169
0.0507774386508949
0.0428632968130562
0.0477731157728497
0.0463034033628933
0.0496297192456554
0.0453854835858972
0.0500107809111285
0.0491633938809163
0.0496061359601971
0.047247205431112
0.0493159285444964
0.0448008511288504
0.0485727122156396
0.0461932874771059
0.0482136732107013
0.0464007461209944
0.0481616904861127
0.0485859459212984
0.048558887794451
0.0481437732527185
0.0499191461747841
0.0456756122651434
0.0486305270385504
0.0456966679425231
0.0484548560440734
0.0476042186509
0.0486325978293317
0.048267002318248
0.0499252556856866
0.048451859401914
0.0501028478915269
0.0483366831212054
0.0508052172929979
0.0464267288753201
0.0497824128416369
0.0479367442871392
0.0487430129341954
0.0468676400191841
0.0475954123579825
0.0493363728374026
0.0506385590870547
0.0490676832466789
0.0494640989632907
0.0479372915015216
0.0506703434067968
0.0485512605491871
0.052237435159548
0.0474736935714713
0.0490030686465435
0.0507375794116818
0.0496269403339551
0.0471573811616291
0.0510969638332451
0.0486511711959742
0.051957126029674
0.0493549355084141
0.0508766194024867
0.0493144253534062
0.0515120862919703
0.0502498672073411
0.0527772345587138
0.0489870920486407
0.0493278287403723
0.0488448978952448
0.0524565634931374
0.0492723369821467
0.0508343340163234
0.0499637822153055
0.052848291475871
0.0493974695940895
0.0514015288941655
0.0473559071955299
0.0508873010631087
0.0488600105487399
0.0505864242582108
0.0494469864330957
0.052488276055557
0.0500487412755891
0.0513869755337298
0.0495683064745137
0.0519547176245318
0.0512412004077785
0.0499896999358393
0.0498690683231743
0.0512244462888225
0.0507332548675222
0.0554148547935298
0.0527627528763029
0.0513049454378663
0.0500352636133668
0.0543622989478718
0.0527919172522058
0.0529163145448064
0.0515493305311054
0.0541524574937678
0.0527959416589034
0.0532837142312051
0.0510683470614852
0.0537892672027389
0.0503384931715008
0.0541133630886649
0.0524780635652904
0.0526990620601658
0.0519292830905721
0.0532181376223593
0.0516789243203695
0.0508542657059955
0.0519307288563893
0.0554888879493736
0.0521082036230879
0.0554227206098097
0.0515561477693406
0.0537824436493243
0.052209205313466
0.0541478187287515
0.053050642848318
0.0552525760126163
0.0521654632208989
0.0510940103175356
0.0507316071136688
0.0518835998749214
0.0491822851500269
0.0512728653821098
0.0529761499928244
0.0511787269980455
0.0504656605591505
0.0512698451233208
0.0498991856173025
0.0503397054188394
0.0503810138079407
0.0514214888359034
0.0485013406343974
0.0485332274469224
0.0474462337471326
0.0499682747670274
0.0492530607466296
0.0508542971738199
0.0469265355619721
0.0515161928357158
0.0503316017835643
0.0497058444543577
0.0508309928557819
0.0506244721665984
0.0485112579863393
0.050371596884072
0.0480892721768854
0.0519273692689925
0.0483413671309455
0.0498135576289409
0.0492680547476662
0.0497432978421092
0.0492105548967099
0.0492148597297592
0.0472189826172532
0.0488208647120533
0.0480816390026239
0.0494110147876779
0.0463389708485344
0.047539882824962
0.0488644482531157
0.0482517892676885
0.0477276172815973
0.049064170303408
0.0483762047198649
0.0483522380439
0.0478527323152864
0.0481839910367193
0.0454782085668838
0.0493333059362394
0.0460697629825008
0.0478407777891854
0.0473351361782515
0.0480738285573282
0.0469387317050399
0.0472375868353922
0.0458139002056256
0.0481823043030974
0.0458852673362415
0.0460247820870529
0.0453870826185933
0.0485299787269747
0.0458966369198518
0.0464678966219018
0.046112986579542
0.0479334988204149
0.0461215574350032
0.0462180444231636
0.0456191298406561
0.0494558460194156
0.0462000717407704
0.047256080778416
0.0450967591289545
0.0482650062666648
0.0448142694686179
0.0479081584472889
0.046164632537274
0.04522109181937
0.0451210306924789
0.0486920379144325
0.0470290709807728
0.0471184313597718
0.045307795806541
0.0478758802605384
0.0473019527655389
0.0476154862138096
0.04623517416406
0.0449830319686766
0.0445867787988134
0.0484094112637081
0.0444129291232582
0.0473919068886401
0.0469494274998412
0.0454388275580299
0.0451429091286145
0.0467397431015071
0.0450433559201105
0.0471936328847919
0.0457898371101828
0.0451763171114743
0.0434194880347334
0.0431735626996199
0.0457891134807914
0.0456276671586283
0.043038752846041
0.0458801446602791
0.0433069894835131
0.0457690587430179
0.0452954723180186
0.0482464597859805
0.0457186961048805
0.0443543806666895
0.0442010575703691
0.0443619216441488
0.0429846334231477
0.0441013914057546
0.0416391436697227
0.0439054968601131
0.0423311153619142
0.0439506907905712
0.0418436854236419
0.0437788787689532
0.0435254504427749
0.0436960071559121
0.0417895670106713
0.0430275260832844
0.0410510944758309
0.0409044966674432
0.0402716690630841
0.0436883269903717
0.0394585007210727
0.043251961589658
0.0398931670423393
0.0436019214742185
0.0395406389201023
0.0417565683037654
0.0401915388307604
0.0435618006552082
0.0413180325162021
0.0411378675297558
0.0413162101709637
0.0409778839446757
0.038638135857478
0.0419194792307417
0.0377571740575587
0.040496472031439
0.0386704575989898
0.0398554763488997
0.0367810442226385
0.0376910057460407
0.0390258411909349
0.0411910707771972
0.0369389833123013
0.0400360314216832
0.0375401719550051
0.0398831346183489
0.0352089437198342
0.0416320995269438
0.0369869568532144
0.0440802811899359
0.0401719835341193
0.0395526533375791
0.0405906385391547
0.0395764206730628
0.039591679641909
0.0354548056989266
0.0380619843868943
0.0365406487924066
0.0382550006669228
0.0397063203997149
0.0376050408968404
0.037363303134832
0.0365362371792398
0.0374375419871856
0.0357206356610428
0.0390305955248315
0.0362593501346268
0.0382782379933641
0.0387767183773657
0.0375229745108906
0.0366397027823024
0.0379530182157139
0.0366001957605795
0.0371103335074848
0.0361705286743361
0.0383786371058395
0.0418227547005386
0.0380404866481813
0.0363115175965206
0.035390700416454
0.037498407913672
0.0366115225593484
0.0371669997200541
0.0361330549504198
0.0341324518928198
0.0359733997538134
0.0360578621702277
0.0364148014200074
0.0353951523372984
0.0380496911063666
0.0361753717337838
0.0357109251929255
0.0355482810817133
0.0362580234490481
0.0367480245080613
0.0347439838311309
0.0356204511263775
0.0356589302926649
0.0353047462816651
0.035763488441518
0.0328581940447146
0.0355056045931484
0.037878952067412
0.0388179694997503
0.0317875170902086
0.0349203907484571
0.0323205755467942
0.0366834520945437
0.0350063128788053
0.0354047687113307
0.0317208103010161
0.0357341495749041
0.0355674769917641
0.0349498059098829
0.0348808138776658
0.0359459248813842
0.0331386822841732
0.0365987058801157
0.0330052298638077
0.0361199074715593
0.0328316766493791
0.0363168385409182
0.034434379101734
0.0381788792556597
0.0376293344145697
0.0392934635530166
0.032214742846379
0.033416332659818
0.0325435964686545
0.0455919454766998
0.0303118292844236
0.0391495437394418
0.0325642475808201
0.0366459051671933
0.0309380228230027
0.0354228520608183
0.0330906317418366
0.0371746110378237
0.0350589027805406
0.0343298687001422
0.0355437297582826
0.0343859702417374
0.03200787646354
0.0365699984028974
0.0342069761417961
0.0345338449747743
0.0329025788156202
0.0333893220252584
0.0335545320620763
0.0363664968155431
0.0312082406957471
0.0364978332153166
0.0328408108032026
0.0388785940670946
0.0335144556852654
0.0361835691641763
0.0316145657557862
0.0345868201051491
0.0340473322888046
0.0366850119526022
0.0363909310881109
0.0322302350640126
0.0342323194512857
0.0319949338211317
0.0343460571794354
0.0321635604346418
0.034883532133348
0.0325827131131341
0.033962538865418
0.0352946137396626
0.0346685006665669
0.0352377391418445
0.0351742234193675
0.0348702562712622
0.0340554611420922
0.0358824297708278
0.0343303796490577
0.0353276856214909
0.0325323838141159
0.0368382057931334
0.0347595047391444
0.0442815726872358
0.0357239829524282
0.0405560546352021
0.0363767795804066
0.0335493326543148
0.0339256265820478
0.0330093247600885
0.033528724423245
0.033126495570278
0.0346515951995795
0.0322945076329004
0.034119676231397
0.0330460010236299
0.0347582014543796
0.0348197851239749
0.0335847422138009
0.0333503751548958
0.0371332084200623
0.0324970561601195
0.0361825708449471
0.0324854076209408
0.0367105308436854
0.0306401523079708
0.0425492929076561
0.0287234411278789
0.0370730813239174
0.0265016403778332
0.051493697903348
0.0381220237680725
0.0355432544483247
0.0361591183049429
0.0330871132776377
0.0355435387691879
0.0331961983845026
0.0373844726506386
0.0340929578219137
0.0338493836271198
0.0345799620307551
0.0362891228259963
0.0359861331113429
0.0341967000064926
0.0336543423476341
0.0424308743199198
0.0437277655702064
0.0366965846163618
0.0357798873662109
0.0331501312595649
0.0413895574520603
0.0437473704542257
0.0319557029037036
0.0421045673208324
0.032514772238137
0.0385734366366179
0.0323759373401605
0.0397423959820647
0.0366493446386811
0.038077909275195
0.0345204005446959
0.0347081792102478
0.0350968409962636
0.0356162631371668
0.0373636163694779
0.0372818229795948
0.0414600871863402
0.0417730386063567
0.0340770393050333
0.0409910804037415
0.035603892037585
0.0390714636393021
0.0360474704783975
0.0397295778851546
0.0377260522870827
0.0416726314136919
0.0394426398198776
0.0370948682471946
0.0423640032193855
0.0426120375300411
0.0351404383797349
0.0444660580964643
0.0359323645166464
0.0417735650883653
0.0276063880892242
0.0474804391082461
0.0490447546792022
0.0388547458747048
0.0496563284127694
0.0343848348162186
0.0457447922553109
0.0341249185905424
0.0437705355841809
0.0338495639807911
0.0532112211780578
0.0324218362176306
0.0463380076046017
0.034469595965961
0.0471473480686704
0.0404370507588191
0.0441289028578335
0.0405087052635733
0.0423315687689227
0.0419715606811376
0.0458782992748846
0.0388908435536092
0.0420247444067172
0.0571006916420604
0.0461279045761778
0.0500798094815214
0.0431487321604365
0.0456910636458315
0.0543777888568892
0.0382941536851249
0.0487851691405919
0.0432234249974282
0.0464299072054037
0.0393781826703816
0.0516577210882461
0.054528690788565
0.0423216884859369
0.0462210483715073
0.0480697519176301
0.0463101619646541
0.0578024974140956
0.0421720537885088
0.0514122014781694
0.0405751953008847
0.0519445556290943
0.0390071621990808
0.0677269043410288
0.0394908145626329
0.0572926970819433
0.0558565792531521
0.0526473346253936
0.0553385760521267
0.0522899769292758
0.055473211088292
0.0585960282026611
0.0528673363448953
0.0507589907869088
0.0535270295686961
0.0622708011127233
0.0631803966644833
0.0525281284482853
0.0624342117858825
0.0478474633425353
0.0600387753272392
0.0858776805989021
0.0767014784576867
0.0642179635004007
0.0657099089679714
0.0658362030061468
0.0739706350652451
0.064313118522407
0.0684935496455907
0.0670222867037757
0.0658841602613512
0.0707231443430553
0.0711965237978402
0.0748776036508375
0.0718157107973999
0.0744815576731125
0.0717726112028879
0.0790600121537493
0.0910294078893361
0.0852990290796185
0.0944725744299547
0.0734110714768529
0.0951570763214005
0.0810754025055976
0.0850695531630719
0.078101469590806
0.0869407390580949
0.0851197950443784
0.0853932175972244
0.0875311751736562
0.0911462331892713
0.0956521811720517
0.0930603942290819
0.0989472501543625
0.103732144341491
0.0828423724160958
0.109274274947199
0.0861020371637467
0.146937132658255
0.0881685588452916
0.119053484709853
0.0935122565828269
0.144893430152429
0.128207605508408
0.11957712604869
0.123451700301998
0.131086737310796
0.129408406983152
0.141386592755543
0.139745257868454
0.148927064957475
0.145429432537372
0.152289928712736
0.1320868015876
0.192145644348368
0.183660567888883
0.178880711105351
0.173004691690626
0.182565251303417
0.187586581654058
0.192001136846664
0.186955675186454
0.197971226290297
0.195944055725999
0.22151512053881
0.220485074394629
0.203312116584318
0.227716197121618
0.21506325269992
0.245712651051677
0.220770523648988
0.264789270399209
0.238065128088956
0.253035739141239
0.25178675664263
0.259721104148404
0.259741850556461
0.269152095857648
0.280595898632224
0.27230559544542
0.279274318384429
0.281102872175938
0.281743326424591
0.289943749003944
0.290576753211703
0.295237024286597
0.289037599413793
0.316888785781493
0.329312815569812
0.33001600060582
0.297218081095698
0.300904313177269
0.305011305704241
0.309262069674391
0.32614448881631
0.305240510819151
0.325307402965128
0.309503667608536
0.305589284225894
0.311755156031725
0.307935676783429
0.313815428031647
0.30513912153474
0.316505275176437
0.303998621547825
0.327387610144472
0.306585929194212
0.347758448354451
0.321291439666843
0.313989440265901
0.310952066160038
0.309273071245935
0.311555540070248
0.304914500578147
0.30709879402223
0.310249468479741
0.32028474380357
0.298171375901001
0.304061648409037
0.300325931350649
0.317599127352501
0.296536399783664
0.291892582380679
0.292730047792742
0.286383524057761
0.289517334358729
0.284822597669779
0.308696663243093
0.297371464538222
0.273604608049641
0.281554242724317
0.277041836423643
0.279224016765034
0.280453926409455
0.285168443912738
0.28345985330215
0.286412115583302
0.28525219193337
0.290093712636153
0.275998715211497
0.285845247671177
0.280180810658451
0.284010758661695
0.278241604220558
0.286961039394209
0.283629753987871
0.282835514184979
0.28504335536744
0.287096124232132
0.2844095725392
0.285433118937022
0.287341937161268
0.292211285872039
0.284075682190194
0.288764373346783
0.283900345524751
0.289300990781254
0.282958186792387
0.286509465794616
0.28284258829404
0.2803250744783
0.277420240412057
0.28208965225956
0.280393540031553
0.279211794190916
0.278629066669844
0.273782183264311
0.277660079910854
0.271360538233503
0.277967736677465
0.269015025657283
0.290636035460875
0.263038331467457
0.266369357735676
0.266472947006367
0.256632932444334
0.262719897013138
0.25804100555255
0.272725532701755
0.249131491682057
0.250624499953909
0.246601138914625
0.245871728301739
0.240529350543677
0.246132823708783
0.22618800204838
0.24032995301661
0.218562237682457
0.278197085058271
0.239024717814404
0.264738511812506
0.231589428714895
0.219113395453971
0.223635113678535
0.228376393180599
0.226802388370834
0.208216568755577
0.223713501224669
0.212319291462003
0.21966678928121
0.21202570446237
0.210957066372759
0.205223793564537
0.20284044283181
0.215196087591432
0.20718660668643
0.200256068810007
0.209082137948315
0.208926949975012
0.199543541388067
0.233257774585699
0.204141163295156
0.192596132105563
0.185112920812307
0.185992596550288
0.189049035721134
0.189711831507796
0.198471594919665
0.181155065171706
0.183577760957839
0.172091956753383
0.175570557706226
0.183961818505537
0.172595898345383
0.179418550260824
0.165521645940655
0.183462049189546
0.151334940650792
0.184567658796245
0.169836609106854
0.195454167225984
0.170335888318674
0.167164303679156
0.162903098702689
0.174016717678488
0.170257240482452
0.163228591346236
0.159258641822507
0.158960935571312
0.161073776312504
0.164630696620569
0.146402792986636
0.164339673743525
0.160654589735319
0.156257888832869
0.180812397304751
0.170096057755439
0.159141685410667
0.15636735261821
0.149419778654834
0.161766355332782
0.150610847085105
0.163025731822631
0.142778925782342
0.169359680826266
0.152981424796957
0.163665250932791
0.175928360516398
0.163071535986823
0.164727773309465
0.165704983585902
0.165915063591794
0.184457846668165
0.18574591860932
0.183311283375471
0.17173153104449
0.189224612606927
0.188368914890103
0.185604037224652
0.191683100051701
0.191074118053523
0.196936602275392
0.201539486265021
0.209996976123557
0.210182773469187
0.210954797042036
0.22035787461067
0.225908796511489
0.234603949443102
0.235500920807063
0.222019225427241
0.262282992171669
0.247111059095521
0.263738173624876
0.252475222800629
0.257761318346079
0.267305894416303
0.269447899074633
0.270473559245799
0.27676503537658
0.284077751548713
0.291144843676232
0.278719400687748
0.292563350113153
0.2846241603361
0.304507874436302
0.294114225328101
0.325441382121808
0.297883629973298
0.33083154046323
0.312443926777846
0.31052052336724
0.314375947195662
0.313422146341096
0.32403092461401
0.316835263394594
0.317494110339298
0.322502010204748
0.333044633566943
0.33128720232111
0.321642681122421
0.332212963732953
0.326625369733614
0.333188220772752
0.337750079265824
0.333739330690998
0.336988497849218
0.342196561042138
0.341223514241482
0.347000733149238
0.356421332789785
0.372959085597326
0.346209640078805
0.359335428277907
0.355025484832934
0.360824593019666
0.359368371539819
0.369182986512628
0.375920545290167
0.370168905448993
0.374356427789081
0.381415558940447
0.375950473086311
0.388837341505676
0.38476147768433
0.399209688888546
0.380766071071627
0.398179769635499
0.388739301213109
0.420269110675739
0.400501207627198
0.402661465911937
0.407123444914819
0.395976489621157
0.401699366420973
0.39737123733136
0.406771191297135
0.405141596291752
0.407061367422144
0.403915022933157
0.406059405891061
0.400832974416852
0.399500297258236
0.406265787133739
0.410545384684721
0.407995202345754
0.393986065409942
0.404481782523928
0.398211143645857
0.399737634328078
0.400724427228099
0.406864474382929
0.401772029014643
0.393338935998271
0.398117630008718
0.40412269727317
0.401021977488069
0.39584140064352
0.390486363345501
0.401625196889606
0.397692852488911
0.397598251619507
0.398450759620394
0.405795133780629
0.409792793710261
0.400641195129344
0.406788881846429
0.406482902020678
0.413207623536038
0.412450781630877
0.415841103795847
0.413171963901303
0.421579864501934
0.420714546511204
0.419520804519467
0.418579236900823
0.424073763007714
0.42288839187847
0.423056569365476
0.422878806058834
0.419418535037891
0.414220936047973
0.410382537616743
0.410563763972827
0.409626134022539
0.408485705223092
0.405291233148436
0.396134609936684
0.399358532597585
0.400657364006835
0.394131395070867
0.383405175842111
0.392144664112299
0.37841502248698
0.38058296736073
0.375677293611742
0.374455320021877
0.372298027382202
0.368836112223579
0.364962117912026
0.365938615134729
0.361862626432813
0.362609418473778
0.363914849783442
0.359975322242112
0.356194519457951
0.357532748331299
0.357388853875806
0.357395782157344
0.354488304812231
0.357369756580657
0.35212043819151
0.357904634855427
0.353611324725129
0.360827882527806
0.352499719372293
0.356845120093972
0.356664807144261
0.355297186513798
0.350054184135495
0.352073794607568
0.353044221050133
0.352631231628854
0.351967868920509
0.351893519285455
0.351019195447023
0.351497680722921
0.351848098997734
0.348947010036793
0.351698270646353
0.349461731437843
0.354378703003567
0.34452034445405
0.347360924325901
0.350199191881864
0.347868061326232
0.349893341241132
0.349266272022789
0.347403076328145
0.348321103191528
0.3534265444762
0.351028651373781
0.352695668224497
0.351546891665189
0.349514524040673
0.346570617109854
0.3499510807838
0.34965764072736
0.349816687043771
0.345264731980421
0.344897987014446
0.345408169042102
0.342343546784841
0.34180937663534
0.336193406885969
0.33610831198087
0.336065969346977
0.331213646221063
0.33048336254032
0.324602621478851
0.319895599183557
0.31715025341866
0.318899725559425
0.311473867405237
0.310932469323757
0.305359058160202
0.304146703844186
0.302877618064311
0.299946356188425
0.301063659095339
0.300028523879593
0.297292954451222
0.297813751018723
0.296687655621955
0.294750952939789
0.292368047483114
0.292576172616499
0.294829509304296
0.295796482918577
0.292631029058056
0.293559919231028
0.293675769190276
0.295494916262626
0.295470113443317
0.299086547699306
0.299097570051939
0.302500408818381
0.29956707526247
0.303911867656694
0.302937918344189
0.303394518420491
0.304521206428664
0.30828511239596
0.310126709601045
0.310862724668616
0.311569462261274
0.314877674708137
0.313725760020893
0.315413173591969
0.312514192927151
0.314208884243671
0.313363995136359
0.315901426666881
0.315178488561068
0.317078721437081
0.31463203133955
0.316130502018444
0.314419576772572
0.311226685494223
0.310611958832818
0.309218305644164
0.307945145385867
0.306833483850507
0.306434144548124
0.307984291314839
0.306143273687432
0.306429522153058
0.306452297609887
0.304468004590959
0.301068628815409
0.296893493407182
0.2982089673304
0.299718929140406
0.294961381315697
0.29487867966704
0.294149084881746
0.291437893452768
0.291085619595528
0.289102677003076
0.290086296059657
0.289610990726352
0.291708213808508
0.287520604924048
0.284936116949737
0.286364499729215
0.285715374004612
0.284960544444526
0.281666075542938
0.282285540768179
0.281254591827942
0.279790662138574
0.279600322576492
0.277957565411207
0.277385020156034
0.276441278499155
0.273976812891497
0.272089679608118
0.269746766706632
0.266728187435964
0.262978889238326
0.261882976585036
0.259761824702242
0.259829256478429
0.25633559301074
0.254146226589706
0.255308530764397
0.253590693003268
0.251754762847501
0.248747830843375
0.251022024123025
0.249698756087065
0.248045917314624
0.249547351906215
0.247754745503043
0.247781198997416
0.248530867383571
0.245680691040365
0.243105876727999
0.241619739391136
0.239053374596516
0.236783742586679
0.234418532519147
0.23260876532709
0.227138705309609
0.225531227586834
0.223283725359937
0.220670427498998
0.220999889042483
0.21860258082884
0.219048808361169
0.221940237326235
0.221951281222613
0.225536210388127
0.231577098300281
0.237826385766142
0.244076050267795
0.250624267049579
0.26177586978376
0.271430141341501
0.283502978937412
0.292606764043229
0.305764340984162
0.319399176238658
0.332884885810874
0.343642803040193
0.354998319293044
0.366171038260471
0.379705128755094
0.39286680474571
0.403340163335505
0.415303844216246
0.426336077530624
0.434761532343838
0.450028947398545
0.457876009276437
0.471902775338348
0.478818022026699
0.485476568140802
0.493449054798869
0.499646133931777
0.510577395929431
0.51653171692682
0.519788695097345
0.525079839096755
0.531359320352281
0.531800110888844
0.533111503563462
0.540987172144643
0.541917560449796
0.542255265960312
0.541780322817395
0.545184161293096
0.547089384277348
0.54595495051037
0.548846296467472
0.546248384196952
0.545613250068589
0.545712797491462
0.550400915307826
0.553520461678528
0.55088724479371
0.557018651268949
0.564119854125658
0.566252375434138
0.574828198309097
0.574317942287881
0.58314931294069
0.589509084918128
0.593020931189135
0.604737673518398
0.609836024789757
0.613654025773632
0.621028464028042
0.632165409010787
0.639558592515836
0.646727881893563
0.656799166678921
0.66897155354383
0.675835487698157
0.69033552583357
0.695532556720269
0.704270150817042
0.705297606332439
0.71091423669656
0.713981457116506
0.710876405533685
0.709125474424721
0.702679612284913
0.713112297721925
0.703378137554406
0.700091090546784
0.696631793412998
0.695935165696671
0.69537412998249
0.694695694448548
0.689550981107878
0.70111090059494
0.701042649736845
0.713325092002757
0.725220689407319
0.734634927507881
0.747037597287702
0.755313097385714
0.767281905728294
0.786732626618118
0.790291423388969
0.806346072153379
0.814390748733425
0.831547331769868
0.84001003496169
0.855239992603478
0.869934113480698
0.888182213830985
0.886876355185802
0.909820790350001
0.916733574479161
0.939666637897238
0.950572951488209
0.971856417080006
0.985920148936909
1.01624006518079
1.02245814145381
1.03955425643397
1.04274991265608
1.06379070061913
1.091513336644
1.10519102651513
1.1153435576426
1.13854425215465
1.12425026968049
1.14371022166071
1.16030447341059
1.18124522498475
1.18032916246729
1.1868149380204
1.1753855528013
1.19316185420326
1.18153787867334
1.17824858574129
1.15750179252543
1.17877857710086
1.14912522611261
1.16816861207678
1.1502084083067
1.15633268937437
1.15078589087282
1.15346731086942
1.14995035614771
1.15834091815722
1.1438784123998
1.1743515542289
1.15696942159554
1.17781648923806
1.19451101833436
1.19175126910283
1.20489728575608
1.21957772715943
1.22199046931972
1.24249343957804
1.23048369118937
1.27022269070078
1.26679674566313
1.27134296461821
1.27181792216761
1.32425268903397
1.30390033262956
1.33299846664261
1.30649806420234
1.30754387013382
1.31505033293613
1.31473723774517
1.34223649101457
1.31691266620548
1.32438708425128
1.32337069558012
1.34953105033571
1.33400294309317
1.32797643336038
1.32589763960104
1.31895559490522
1.32706477561997
1.32244559429985
1.3245674333336
1.30207204838265
1.31948198226812
1.27865469681641
1.26794997309146
1.28698513991013
1.30527858441093
1.27298713377379
1.27553266748063
1.25219732148974
1.24457675955963
1.17890139672703
1.13415169424421
1.12373796141877
1.07852902562365
1.0450566219672
1.00102721348408
0.96889152512473
0.930707132074162
0.888984206572487
0.857986902895127
0.82485245805575
0.805537168047957
0.784056492746595
0.777955912591255
0.751639597951995
0.746471301583904
0.735325657863911
0.728647435160217
0.718948214923566
0.714600239254384
0.709240328153705
0.698784475845441
0.687841988683771
0.687072057651711
0.673884603267521
0.670753242383494
0.65874883140539
0.640565100759181
0.628851103225871
0.623559645781725
0.608822598433211
0.593067820248606
0.571399820355035
0.5588669063941
0.537362209035727
0.521107657380672
0.501135174999682
0.479756307469303
0.455867407544044
0.436336581944956
0.413429163180916
0.396785421158816
0.375553128188353
0.360446037555669
0.340763630043781
0.326289125953953
0.313873776230191
0.295221841072177
0.284495656718721
0.272700898142904
0.264884628981737
0.254317103885209
0.245259697930156
0.239308501390175
0.230564366171984
0.226283456884957
0.22189905740973
0.221526340679459
0.217710376509258
0.213686298331479
0.210962536349074
0.213335352021066
0.211854873670708
0.210652470920895
0.213343351890546
0.211319159660699
0.214301316503015
0.217533089281922
0.21973937651403
0.219724438209971
0.216909864722223
0.218141811012668
0.218545861429711
0.221742033909028
0.219361168165266
0.221765414204944
0.216715683450871
0.21801754414241
0.216358867921995
0.218441530560845
0.214281890264697
0.207487056501588
0.213317159773645
0.207728953298255
0.204912220088792
0.207364673733856
0.206737168549385
0.207508534971266
0.204986093712771
0.204332806836238
0.207960816092499
0.214945352566671
0.212542398019437
0.212643861525597
0.218626787488671
0.217696477063533
0.217986658222616
0.222468040645346
0.222849353648173
0.227079492666168
0.226951946760179
0.228197141190822
0.231054984287807
0.231794580723682
0.23055953522463
0.234562545112626
0.239479717886702
0.241299299518382
0.234809131900983
0.239873330500582
0.231714797055939
0.238884858366438
0.24148783987237
0.238610140506009
0.23740618235172
0.247678493181609
0.252156580512737
0.254236504876536
0.262996625951165
0.263394489412682
0.268112521317605
0.275302694278656
0.279932114076133
0.296014068729113
0.301082013418391
0.312473692042552
0.317124072950383
0.323036911294336
0.338620963603711
0.337893249340622
0.342083010556923
0.337849081382123
0.331378895735155
0.328684968570722
0.323386002554477
0.321415686421153
0.312261092101603
0.306115937882699
0.30703113182034
0.297692857410955
0.293800754582025
0.292773952719464
0.288990780148328
0.294370316630801
0.289396568287775
0.295084321434962
0.294174583222109
0.293576661703515
0.293750831130701
0.293368938333755
0.289746095093423
0.294374392508144
0.288806959658909
0.286887618138995
0.286494052095694
0.281207391756815
0.272277729454788
0.275801715118297
0.269630266829898
0.273611196354187
0.265340579091261
0.264254687710979
0.255581706866677
0.254681739266509
0.250853303582586
0.251642215033688
0.257913631901769
0.254221600570039
0.247005919918579
0.250930097917042
0.238821938262878
0.248240289480025
0.242569876432188
0.242060932652447
0.238449377107843
0.239834665538167
0.22957013914584
0.242950985743055
0.239971454236022
0.230227488786185
0.225436004486193
0.225261193722266
0.229953304631713
0.231435269480497
0.228274991529639
0.232468542469921
0.225710056041104
0.22695206518786
0.219801973447656
0.221256222609788
0.216195197700236
0.221605566467689
0.216027850266936
0.219104108532574
0.213026538891907
0.214482901772731
0.213857560913948
0.21537095850501
0.213646579987061
0.209418753417452
0.209839726435531
0.223959768361267
0.216787780232844
0.216755131009801
0.221662324174432
0.220803597114453
0.221157156644438
0.217295882757329
0.220929622984086
0.224900382248155
0.217320607034163
0.226868402561521
0.22637277107387
0.234205701076276
0.225093155344699
0.240392978819187
0.225170765215228
0.235931117391303
0.235142032147888
0.242226435810891
0.24500098425221
0.250035989452333
0.245255116417757
0.249292754670218
0.248036790486697
0.254079874898263
0.270365944819993
0.266545142165732
0.276443122137924
0.286018944138316
0.263096615777433
0.287768280909467
0.291056894027873
0.30893658288669
0.32248914286733
0.320121609543622
0.322603207839846
0.341719517016049
0.349024632797826
0.36531078001134
0.3701346714571
0.369398567583341
0.38346209323267
0.392947171874068
0.403698009574288
0.402057955218465
0.430173386317129
0.420987212319073
0.400919115727956
0.434636385291963
0.416441798592025
0.41096179246678
0.406342845669606
0.404354671061136
0.398701626124785
0.406695860768321
0.414063691586024
0.417606528276508
0.392952998819963
0.390175734510005
0.393835426696672
0.391404105004792
0.379670664005457
0.383668731699112
0.363545724309315
0.373787864421656
0.38300031104824
0.38971655293797
0.355458279791668
0.379316302180873
0.365446294722934
0.363173033219612
0.368256841581019
0.38078152855364
0.378409703055073
0.356612515583721
0.349264343628786
0.344109550178015
0.332380221776933
0.338109835683371
0.33988808788775
0.338239286911764
0.347371781978335
0.347886635896643
0.332674807614897
0.359119671567292
0.341830810747531
0.348527484684654
0.353214654372996
0.366072556703935
0.341340154202787
0.346304283984609
0.363230162242553
0.357516141373926
0.358820143538754
0.369736820021174
0.358668833686383
0.349999423055093
0.352194312686843
0.390864577031928
0.333776033767436
0.352861422287646
0.363343496439578
0.365345491363669
0.365561952155696
0.383139326439949
0.396703670599885
0.381058779098328
0.346376442558618
0.375446978442235
0.351059502290883
0.422443121420511
0.399682956013742
0.41025702019667
0.377426325966887
0.388544952534248
0.425948802567681
0.446806842210271
0.409136202958874
0.440215153783019
0.400457887827622
0.444295002247678
0.421253853379368
0.47779279710567
0.460982943679751
0.466535460699858
0.418173259969794
0.449486907146542
0.490265168691158
0.448842474759802
0.453999735152698
0.510608121765192
0.508317502867122
0.535785850335213
0.515865710966199
0.440412751831838
0.495418315492071
0.488956431693131
0.444168423961286
0.499243856737555
0.529786027407178
0.445586821713814
0.509084971386424
0.484833002485258
0.433321499577081
0.469848958975763
0.471083208290267
0.469316108945213
0.478446130199435
0.435811281522579
0.427353430481719
0.441070852647339
0.470243667911303
0.476802294995898
0.483261643292427
0.441462297031394
0.461592941562587
0.494036158548138
0.481152662000641
0.455517351392945
0.371928882291017
0.485240341076209
0.431099225346726
0.460472563700852
0.449047909756589
0.471626382060721
0.490741047286526
0.638182728095664
0.517661441108001
0.608712860242648
0.473473560627083
0.459581485579622
0.359315292776803
0.637804901613748
0.611513245617298
0.483756909176294
0.536250001120458
0.486803111921605
0.476299082673895
0.558913044172712
0.341486851324714
0.551894934004433
0.360456229441169
0.442275492672814
0.345666211490988
0.651989239326709
0.512678906856752
0.805843360037835
0.527213093297131
0.714769731053729
0.396583208309998
0.720374703390418
