3596
4000.36533379555
650.420452594757
1
2
2
0.0538457607044144
0.069562850041183
0.0564408280368237
0.0749007677850901
0.0589690451518522
0.0698579180695331
0.0514992556525162
0.0731620455587051
0.0565833541047895
0.0811662500319466
0.0547522337521435
0.066703812257895
0.0527861103003901
0.0704529074214831
0.0602307790112085
0.0645542742670804
0.054771080089043
0.0685771857490148
0.0530902636992559
0.0690114224157547
0.0628690615114705
0.0715083399120093
0.0585093450808518
0.0642809682044818
0.0591431809922868
0.0748458899472615
0.057851976225138
0.0738520899377377
0.0471679511228594
0.0784087513559609
0.0581266883222496
0.0632254837782908
0.0556007009948326
0.0734061065651949
0.0604394779746228
0.0790381129672886
0.0580588826014554
0.0694690790604685
0.0478103645161949
0.070456722438501
0.0658152897979231
0.0734947424214346
0.0615420754601441
0.0722767392394407
0.0558778857559914
0.0784912352437497
0.0544132247844388
0.0749499780031331
0.0590029039114297
0.0709900748571548
0.0602548752021012
0.0661640399987561
0.0628372671247816
0.0793146814014912
0.0511248304953562
0.0807656536382194
0.064416810251172
0.0706568046908089
0.0568369303772779
0.0716112994262242
0.0667310649918964
0.0803432567292937
0.0539510163416226
0.064971030530444
0.0536422948897106
0.0698745838046111
0.0593827047861532
0.0731712305514546
0.0482973789836338
0.0670156650880022
0.0536652186721117
0.0784911910512145
0.0687088423010405
0.0690504772426111
0.0660813673330418
0.0727129444389039
0.055388469948983
0.0701105466006181
0.049160043810488
0.0739280503202429
0.0680397460663498
0.0712696095285268
0.0532200620976147
0.059721696324654
0.0581065802976749
0.0804983605255595
0.0531001416913531
0.0700129413960622
0.0636694863801098
0.0746998010417942
0.0539358111401767
0.0768157131474209
0.0559222590815096
0.0689131814777988
0.0560198599635457
0.0662185595343511
0.0569584919808699
0.0695540671536597
0.0526188048919057
0.0649359757439364
0.0466058322319416
0.0822090742885757
0.0820723210075796
0.061687712683069
0.0719957057514138
0.0817493429763854
0.0378178724639313
0.0990479533574954
0.0675323466108711
0.0731067633830607
0.054058671993723
0.0619683177133966
0.0450406298234451
0.0699158144523159
0.0391086056036415
0.065436683838828
0.0772427227856731
0.0801322431798869
0.0563201811009603
0.067875109112012
0.0303000530757061
0.0805558203965438
0.0889326628939987
0.0725675204517671
0.0569040666636286
0.069512060760909
0.0378082152892291
0.0849586451963368
0.0770509218459999
0.0668118231203743
0.052097142892963
0.0698345072450211
0.0463241218997351
0.0463970554455112
0.0770029688476574
0.0786117610698873
0.0511897044084101
0.0566055549373596
0.050765843366301
0.0972467489749862
0.062477890064921
0.06905244662792
0.041656282765224
0.0569958104174569
0.0712072220887179
0.0696236871460949
0.0438958486411551
0.0915607874285444
0.0610925089976295
0.0622130682441535
0.0520926501273143
0.0584275452943616
0.0586296909985945
0.0721941084802982
0.012050556749179
0.0915028667677512
0.0834387270605589
0.0872124133649256
0.101191357482721
0.0690559683223753
0.0542280100636524
0.065113324164244
0.0554782960178636
0.0598626805692983
0.0538531997607699
0.0569284803428644
0.0568147261802216
0.0889067909736349
0.050393413147473
0.062009009810327
0.066991705833986
0.0759877480583283
0.0292636225269787
0.119587019751794
0.0672265258189896
0.0543968567268023
0.0761367375488826
0.0782907560955452
0.0369671273786383
0.0642889203685456
0.0745337226604915
0.0710521162075919
0.0562764894020147
0.062593241037896
0.0462130502036095
0.0704948210743242
0.058557463292796
0.070872814235718
0.0597279838016177
0.0439646335811991
0.0389872924631203
0.104119555038241
0.0845435235471319
0.0727236272731279
0.0545740859404186
0.0340283769228963
0.0584222325970774
0.0955002345824182
0.0536616654460385
0.0655185770492235
0.0532468929462398
0.0669425038986211
0.0532735202045128
0.071252931502763
0.0518549852382015
0.0397547336740178
0.0704752054871477
0.0833697703664782
0.0555870826955907
0.0656561524068648
0.0509983188999026
0.0433855047474265
0.0762271684963801
0.0969610931086984
0.057919811432197
0.0675330902111943
0.0459522374249641
0.0818476582610415
0.0664029575797089
0.0707116297351757
0.0501989763508727
0.0646869664762195
0.0562399197215864
0.0701340899382822
0.0547785936550409
0.0709863013594096
0.0535668553769124
0.0705476500342707
0.0522011635984053
0.0630805667190057
0.0602143364766709
0.072216384925259
0.0540019113029454
0.0682194145639781
0.0432627387128756
0.0695817603095158
0.075183018433013
0.0721573906368649
0.0607390533649635
0.0633359521963484
0.0563910885678062
0.0708395072732381
0.0548048259807289
0.0715022774165093
0.0507291198002413
0.0598689127870084
0.0785896809540926
0.0799371545430274
0.0608122315847826
0.0604934234478009
0.0642382549298588
0.0847002462901109
0.0650111791022856
0.0678416793209592
0.0637378605932785
0.0606348933084695
0.052626596186743
0.0997392107927425
0.0655339617889963
0.0680715219859195
0.0718288539348121
0.0798269783635601
0.0625842315680794
0.0634739424401276
0.0379811601847156
0.135041130203327
0.063518826563115
0.0533163140913645
0.0979878207682098
0.0880215909224204
0.0700686734238544
0.0654806725043838
-0.000515300082336477
0.13021955388607
0.107946612270988
0.0812893936529064
0.0596057433990169
0.0863221880047779
0.0638088983562244
0.0864756767134394
0.0647387296757525
0.0825176708368285
0.078795537194474
0.0949058596624278
0.097045887290888
0.0640251104243057
0.0779883427390528
0.100673367910208
0.0692677447580785
0.0854793681635126
0.0748925568795408
0.0733693967933279
0.0674687301203156
0.0932658886425058
0.0797962095119733
0.0848423653366719
0.0676616412057215
0.108680612053596
0.07476971848509
0.0825168987113196
0.0736687147381471
0.10017703387412
0.0698587092664219
0.0835747681530629
0.0726187783442677
0.0984965976433652
0.0682219169000896
0.0770718015016032
0.119176661405076
0.103621839698511
0.0689448341804528
0.108866213856409
0.0876981966335058
0.105493777910537
0.0823840772305738
0.0948008321726914
0.0805714749578247
0.0858075626904281
0.071564071622408
0.119456398456111
0.0952158505090523
0.105181745282421
0.0893428742349978
0.10548775365171
0.0914528587730852
0.114110721222957
0.0991305600035433
0.110210483382417
0.0995813664030701
0.100654957217361
0.100467662002192
0.135967262099545
0.0873234421661118
0.143252656492737
0.134148446300137
0.133344193270974
0.121392478450857
0.125092312888258
0.115084250990563
0.129744964685431
0.120308385744981
0.125158436394735
0.12857540811598
0.156289533813267
0.134061904485879
0.135800694948746
0.111341498214233
0.174566634841344
0.176187331730286
0.176082164544608
0.144554594438419
0.13684391698683
0.167649788196698
0.175342019552028
0.164799011670739
0.200645527313731
0.162797606678811
0.180967416335454
0.160998880065433
0.182238502627632
0.170048096032862
0.196097207575775
0.167881037462886
0.199763461885506
0.188824739351697
0.199877435012645
0.187540308321856
0.200160635822842
0.222524077885548
0.233118376675322
0.202264302050126
0.22092095531084
0.195117062094125
0.247680949394214
0.224799254159064
0.270958762574446
0.243216745048005
0.267627703081195
0.269706259117564
0.263869454125328
0.238996106551178
0.255743182528957
0.248863248745201
0.270485942743673
0.263002858857002
0.280795840437529
0.263389203019495
0.288242141899892
0.272528804199706
0.289134112892375
0.277862487436194
0.295893811590938
0.301679561865131
0.306361412737571
0.302249430296441
0.306094757264965
0.291336557740016
0.355562429243304
0.340356663105387
0.331471479201149
0.315385155547645
0.346502907665822
0.324395419985698
0.341381595500604
0.332673346185498
0.343574325773842
0.337642969760033
0.404512531680695
0.359129121500616
0.391255266446413
0.358097797337484
0.366651655719025
0.367586019237039
0.384822774014501
0.378427281232597
0.425872665669495
0.389598845343551
0.399853592202574
0.397153139024877
0.433210008213432
0.382900582488093
0.447732123623057
0.397916010570586
0.42280607206064
0.414567759080965
0.44261373072338
0.410797626597309
0.455634803246384
0.438164032939052
0.460698076883833
0.424194013597461
0.484480372375364
0.444526087369196
0.493781738103164
0.452041028938523
0.50005834589714
0.477451979964975
0.485444098559503
0.4778596451498
0.496575193863452
0.48926543466603
0.52643405572557
0.491019808680872
0.536196894569517
0.484818868193792
0.523531548963865
0.503872061528515
0.553993557192378
0.508924231115617
0.557861195664911
0.539675127498298
0.578287729572422
0.514884271026575
0.560997184498235
0.5406650942016
0.593486486270545
0.551036450513796
0.579043873881418
0.548712519275259
0.609863429792393
0.573545036885546
0.616892584300588
0.563069461737668
0.654893561562692
0.60082123748295
0.64925214602669
0.576395109672464
0.628043655248576
0.626306539637898
0.621618926255083
0.611311116883105
0.700408520478706
0.627669163649935
0.661457840412144
0.618381402355756
0.70413881317906
0.653595242033524
0.6903698956079
0.640283142951649
0.704106065068364
0.670905720786743
0.729690284045749
0.682652709555975
0.787829723065343
0.688800115265114
0.702440704938602
0.742216639779709
0.793338244368373
0.689335593461176
0.751192485612355
0.712592542508611
0.774334746851974
0.708224724513268
0.777266632215649
0.721517142580796
0.793249272643234
0.742325379974529
0.794747662467801
0.762428785267328
0.800812495528658
0.756419261133844
0.822164350961245
0.741581310999233
0.84453143531535
0.837563596479518
0.894696316691968
0.817988490268982
0.89366773130732
0.811788920552946
0.850496217966763
0.827493835857041
0.901804439380418
0.837515696521168
0.905358434901522
0.808546507450782
0.925585455427661
0.818592175265684
0.921094334766876
0.842736024948579
0.93154970316988
0.885479338728838
0.968785036531111
0.873854345047053
0.93790711745968
0.860518381279634
0.970028181586619
0.875737088252875
1.01556707673772
0.963534772796721
0.969850008144147
0.929360160067194
0.94397192037072
0.913169810183029
0.994203075818456
0.96459193154565
1.06309840187793
0.923355827149265
1.09641806828718
0.909706391410457
1.03864810217146
0.929118824594467
1.02192996535505
0.969766176299012
1.11902130787584
1.0055405650043
1.06166155774934
0.950534008517964
1.15647721995205
0.946358732022994
1.16210719890955
0.991427728394813
1.05920655687742
1.05759270261881
1.17996798192591
1.0464816652953
1.10406156507945
1.03776454297715
1.10837186143663
1.03385747224623
1.14965649047076
0.996698200440781
1.15345847914683
1.11375327314013
1.19704026323197
1.02829854497085
1.24176623710324
1.05416233757478
1.2171860879479
1.04589957746209
1.22339955883406
1.03785536287314
1.32250492542098
1.17931134825137
1.24662960358063
1.06514683323446
1.32109270287361
1.11448463288904
1.15389868182314
1.0891532309726
1.24071869407173
1.14211116310239
1.37731907762601
1.13343960335756
1.46440342892901
1.13080505935824
1.30263856717249
1.15170800281485
1.31053077938663
1.14577795569411
1.2914240290001
1.21818508318555
1.32087194687006
1.23425684990165
1.45182160163957
1.19091694207987
1.25055616547342
1.21482406973308
1.30441686069113
1.18780457297537
1.27973924046716
1.22624337719203
1.29878885556551
1.19547182758033
1.33809346462095
1.2217618556394
1.29843442521162
1.26994301759981
1.57381684250037
1.3561094286571
1.43462620147872
1.21942999048171
1.45821401146843
1.32228612554602
1.56721935166411
1.21681942279934
1.65154121335645
1.32383314351465
1.53041577364754
1.3121194511061
1.51110754036795
1.27354231941058
1.42927151012585
1.32124584091912
1.9425779669341
1.33545401702911
1.45670948676333
1.34742917710999
1.57323687598533
1.31693817591009
1.6878507071982
1.44658869544288
1.58138758476946
1.31922276100357
1.41195703181365
1.3270435265776
1.51241620745467
1.27536550512306
1.81569389541534
1.30299390505298
1.51665341955546
1.38966308135652
1.53489095511809
1.39948426435152
1.58093919386611
1.37506508840648
1.6514029336463
1.44282050748767
1.72831097616101
1.41233635388214
1.59908340099715
1.40077699420573
1.46812012273086
1.3269488323023
1.77819787164889
1.56786836215177
1.81268732542802
1.41509340881304
1.79538236879114
1.36464702904808
1.87548480700723
1.52091003737623
1.98889193151221
1.43105470494129
1.57016034908389
1.46009726566552
1.70737400293752
1.56253389047258
1.66269295620536
1.53822975183285
1.69526792035389
1.51519969192811
1.52625330086656
1.45335416370238
1.88592720425501
1.43659946097029
1.92618701401416
1.43574100884535
2.10144638425052
1.3886050446387
1.67363218785762
1.3898914359932
1.80732786023296
1.65767388310535
2.14832013515446
1.44287623245788
1.68666997880273
1.42850187524375
1.82172019398304
1.39889096848009
1.57646174209289
1.54804105296965
1.88598747794293
1.47833931843348
1.63001789204861
1.51356054673939
1.71749007632992
1.55233762433271
2.09907185898601
1.43186476419354
1.77288822180525
1.42508916569792
2.18892314501734
1.4968851414088
1.64156869958273
1.72031800045578
1.92303010640035
1.381377841305
1.84035674120428
1.560399652549
1.73123127849771
1.83175201232172
1.73155597775194
1.54271759658365
1.71530339174775
1.55991916356159
1.71706605861606
1.5627195201699
1.83821627619868
1.52276223870676
1.70369461595167
1.43130458193701
1.67305747230465
1.57986499397057
1.58808145428192
1.54534505544017
1.55475253425793
1.5842805457834
1.7202653166765
1.45369260794656
1.62473448036558
1.55623547995368
1.74680426607053
1.54526161667689
1.75467407310495
1.46656339399329
1.87028755839795
1.57358255893954
2.22006948319237
1.37287209839057
1.63883161586021
1.61727381694786
1.71296157568195
1.65077853910231
1.69732225309562
1.44275056253081
1.70076908617805
1.56139751407114
1.64185550816608
1.59476040676187
1.70135110469792
1.62918032711213
1.89754167355164
1.55800556366056
1.95576011424491
1.55393212883036
1.67867565657242
1.63460031744143
1.77733417916764
1.37288216112124
1.60945415613836
1.57784273692122
1.70875476489933
1.53054375206279
1.83193044368341
1.55207214424955
1.67309665679129
1.57572432373939
1.85513439976425
1.57465379701766
1.76631344713835
1.44905023472835
1.62163775007678
1.54267080505237
1.77437346585716
1.67052551578796
1.70033357042283
1.43501437997834
1.84891796487593
1.58498775834905
1.77251667184214
1.47015869722065
1.68815687609659
1.43763893661657
1.76221378490903
1.47248703657381
1.74039427700885
1.52326174519948
1.75530679832596
1.65662530495343
1.88405049818051
1.7550190990719
1.89354416891476
1.47259835966378
1.63775319296043
1.57220992267839
1.91200657540528
1.60450709346583
1.7220420219459
1.569943759183
1.61207934296684
1.59410478679077
1.56003512396582
1.49729706587883
1.77668246772882
1.49385735758098
1.57656159978568
1.57749265497338
1.65069510389083
1.7196751631458
1.85612681433033
1.55694397323964
1.70853944078991
1.69148422451544
1.70332818340059
1.60960605878438
1.6731155241611
1.48555102146177
1.72118244012887
1.46559889483961
1.74626078618454
1.50710534885942
1.74681769971827
1.56812077466731
1.76410548682389
1.50414603570755
1.76099179766796
1.50474109202488
1.60486718590676
1.51928564423364
1.67765083845051
1.60921857615542
1.67340502580522
1.48692198914477
1.60153892658439
1.48534857684634
1.56001242023415
1.51505141753858
1.56935547481087
1.4763547284974
1.74654300680677
1.44949412977571
1.49301224929881
1.46780821458464
1.65117499646939
1.45807720764907
1.57924737015574
1.47347761580028
1.48533544613851
1.46905394740138
1.55843031603892
1.47855098390613
1.46327482290894
1.43873159897598
1.52749528578014
1.45185322784675
1.55507505437831
1.48669537368198
1.57261188700336
1.38918003641895
1.52588701702456
1.48332147044978
1.55409036737566
1.38515017167615
1.46941400450541
1.39775414063899
1.49009407723877
1.44103112942369
1.53435736781202
1.47989371637236
1.49672363144291
1.41988162398585
1.46294331357694
1.39725702448916
1.48978103682167
1.34508225216894
1.38575134213179
1.36274343852694
1.42437791578015
1.33740841073764
1.52978610153165
1.34327945407115
1.35366376167452
1.29288462348352
1.46086091717785
1.36322881716546
1.38130779026441
1.31114010463631
1.39474261110449
1.26598316470462
1.40014179970543
1.26260780891277
1.38542933998113
1.30809766633265
1.33337895422347
1.25121973737361
1.29634176470942
1.28584832958626
1.3505043030249
1.23588445541614
1.28184164448534
1.30181171923709
1.27844176454594
1.19485640789437
1.30271562201658
1.22158223088004
1.30827912588239
1.16349386897202
1.26288180057011
1.16487936766056
1.28224451319101
1.17483180335602
1.23737570436367
1.13138356140302
1.23750070306966
1.18073858027537
1.23310632864255
1.16959845562853
1.24088383643533
1.17008574837833
1.19211787019265
1.13307235081839
1.20273920736345
1.13923120494761
1.18372475656679
1.10819866868675
1.14749918015628
1.11978588146231
1.195128775239
1.11043272039447
1.1599592159819
1.08637450423592
1.17559454201222
1.0684408424499
1.12704510497322
1.06996776552014
1.09369743535215
1.06795651030839
1.093639041323
1.01604259154541
1.09980040607847
1.04541187062358
1.07700342869662
1.04252443368565
1.0808380612743
1.00795318636105
1.02438505579051
0.980135483375891
1.0181885831982
0.975519248174448
1.02209558500503
0.970788114204651
1.01677715075714
0.972548149849986
1.01329222121104
0.933511483834585
0.97491888616014
0.957311334976273
0.984467946291954
0.949791653668389
0.995031798453239
0.934223893913224
0.954028596358291
0.9225818270408
0.954551274785513
0.910573651698744
0.948075567378918
0.909798342814357
0.965826656102261
0.867667525595962
0.917758294094925
0.875682595926905
0.882361069396059
0.87420702639371
0.888610714058618
0.865632144368557
0.891487923094638
0.845900577873533
0.871579291218754
0.830137011105785
0.876543142451817
0.851303472799256
0.863850577800089
0.843373160265614
0.846783836231342
0.807745260452977
0.836634119665469
0.821060076337981
0.859579478967873
0.794530078158407
0.827079624241031
0.806632685332823
0.819729922840426
0.771654397478732
0.814647296125208
0.769459177489963
0.780497642329432
0.769151032326026
0.785309473597243
0.765832275051705
0.777420004047852
0.742967700997042
0.775943930117643
0.735745754878059
0.758646016897025
0.738228489892623
0.759440626356496
0.714321396214469
0.751497772708856
0.709673574060607
0.723497741773659
0.705865914702542
0.710733212751121
0.694963110667991
0.71594024479589
0.689131949626034
0.727483327929842
0.690100457299576
0.70536379522221
0.670871041217631
0.696088939948518
0.681573933561844
0.695504966385723
0.645815704107958
0.665146821863884
0.65784139812846
0.67665466861443
0.649917261153307
0.664836680703973
0.643365153502327
0.648979544856514
0.626165626262412
0.641878904921213
0.620821932152646
0.633516837591776
0.614941825227034
0.630786391074847
0.601256449447152
0.63458914921467
0.607071267936508
0.621605973256117
0.60488252977979
0.609126698065325
0.58068656122774
0.60069841857509
0.573058845915874
0.595011649280505
0.567059056328169
0.589140497006706
0.575123500403814
0.578665840020481
0.561874377458653
0.581164858287646
0.547636727272962
0.56967318437294
0.542019233098696
0.561494879642382
0.539888726114825
0.555677633392808
0.531768168370928
0.550724060310452
0.530059894853182
0.556228193656002
0.528487138822314
0.538953754454648
0.524623187739138
0.542728249483383
0.518993880510806
0.523232144161718
0.515615222570655
0.534943350359329
0.505790474235732
0.523903750994489
0.510644742661339
0.513513539584409
0.504289609976246
0.518094979219277
0.497262900235078
0.511307054369987
0.489521358006342
0.509755295448419
0.502225478108223
0.50726274175693
0.481793473446659
0.509209005652626
0.475931794108681
0.50712679201895
0.476826213079412
0.5031687804587
0.482010107715315
0.494544923532374
0.476223357896272
0.502226205054298
0.475325140858866
0.489929121573935
0.479926269283469
0.496387724168959
0.482474623233108
0.489088055786248
0.476520880904659
0.483954643337495
0.475596341005162
0.49558306887688
0.479364246653926
0.487299785832267
0.466706466046986
0.492682052254904
0.478009476663785
0.494271880719059
0.474000177828803
0.486334650702311
0.47570942755029
0.499441707710945
0.471794462273899
0.490682252773949
0.472310716431339
0.489379715792747
0.478784706136932
0.496657476661825
0.480305523029436
0.48256416670261
0.474524713874184
0.491682051547303
0.480672398827243
0.48670343378277
0.476407492287776
0.499005668979805
0.479288395109036
0.497637977140079
0.482642631841026
0.503303654182564
0.489277242308025
0.49902634141979
0.491487561835008
0.506359867139732
0.499081997649094
0.505538853536508
0.48964228476188
0.505044353725636
0.496012207568491
0.506968813923351
0.504459330755369
0.50847382729851
0.504205540504985
0.517242499400432
0.502704089928612
0.512193624365456
0.491560773037974
0.518939331983506
0.491778556487596
0.511116359900615
0.491353524165985
0.509945055085441
0.488369113102166
0.503079538177209
0.494233328196547
0.502521206699798
0.480211651905246
0.49296333998362
0.491600678299502
0.505936838373385
0.481296724284669
0.496183609996967
0.480855549025574
0.497234611635196
0.481797240009673
0.492596311176253
0.479468790515339
0.500333447464322
0.479144465842241
0.493562795846148
0.473162182483885
0.495453262438552
0.474867530620214
0.496357271572572
0.469737888341228
0.49239705588496
0.474632686220395
0.497427753228225
0.475351221930102
0.48720347127311
0.469027099620675
0.486600387718796
0.470396442904793
0.488195618541153
0.467381894779603
0.490343860666752
0.469877981729581
0.489567264183217
0.474814473569891
0.4877985370821
0.472491773676302
0.480351158107409
0.472114486367763
0.482986132660161
0.473499422689259
0.487174464706794
0.469885046922148
0.486743888331645
0.466321066396668
0.484676692130381
0.462672752825217
0.477481750082587
0.457348119660171
0.480917290916727
0.455733159030787
0.46990825535006
0.45791288431792
0.468920625893527
0.460468823781404
0.460770874683307
0.451220257502943
0.457957051594056
0.447832125895474
0.458308902897838
0.446941414488062
0.451578185250718
0.434639433642463
0.442474013311729
0.431611916616832
0.443536015215309
0.422828864292896
0.434636461189325
0.421410753454689
0.431517423248503
0.415560074652857
0.42226063610821
0.407804759453755
0.416816534670013
0.395794334434761
0.414300957573263
0.393682629808022
0.407889943717825
0.389569015639676
0.406092871988635
0.384758260431979
0.394222914666299
0.380056329067054
0.397358811441671
0.38003160390706
0.385810563690393
0.377853846215865
0.38036979633564
0.364615381829672
0.379840865943539
0.365943099958082
0.375060042742072
0.364861429235334
0.371715346866468
0.356777545312054
0.372439578435173
0.362258820101578
0.362459029764428
0.349687389151425
0.355841353588614
0.351614182746185
0.356708126295393
0.34372335329818
0.354353970793923
0.342098754420676
0.347637387420104
0.335607172329889
0.344978209975926
0.33787837919502
0.344743545031346
0.332382353251455
0.341040275492186
0.323129168783652
0.336276734354888
0.323516792455154
0.332119533728801
0.316901476249273
0.333505618726524
0.32058432572953
0.328530899572904
0.312936291807704
0.323376150243137
0.317954127110604
0.323008732325737
0.310838161322317
0.318049931929237
0.3051027714915
0.316316041208711
0.302077841562546
0.316068199287892
0.304462660357579
0.313153074136063
0.30242013148361
0.311735318639135
0.298888494926986
0.3096272820521
0.297129382189103
0.306401521292622
0.29531840765491
0.303341335856811
0.288687268782559
0.300911447923384
0.289649381311708
0.301299847355996
0.288153913311597
0.297297635657596
0.289104013123856
0.29534918021524
0.288308541716057
0.291133347417238
0.279114603974781
0.287166604540411
0.282169161299689
0.2849685422851
0.283179570235457
0.284379774023542
0.270637351893138
0.282170890063401
0.276067051215584
0.278549033505277
0.27131675651219
0.281764089025002
0.271371644642322
0.278472337627929
0.270899565521203
0.27636268012111
0.266300592750598
0.276537722362598
0.264926547894669
0.279457522678566
0.267497994129479
0.275541442524722
0.261836535684232
0.269686905431972
0.259421637006296
0.270449960192504
0.26094226157322
0.267863172326991
0.258521678909858
0.266631544840272
0.254637608254362
0.262587673023799
0.254558449573562
0.261483729519001
0.250611612791942
0.264740560541768
0.251998217035252
0.262136528636314
0.252568913453442
0.259109386321149
0.247147692490965
0.259205260440173
0.251708617133985
0.254676186766841
0.24352279294172
0.252306092925959
0.250328379075321
0.254086481448988
0.246526294339342
0.255861644921032
0.245631587674014
0.251938836428601
0.241746787674219
0.250290245873016
0.240207830519148
0.249137983471922
0.238059314737936
0.251107705257731
0.241230524164657
0.248623293104295
0.241391136468117
0.249116584316138
0.237036468414196
0.243481604207337
0.238917685846597
0.24280811626508
0.232791906038832
0.241495826249334
0.239643634436087
0.241171071406079
0.233374392185804
0.241836260712844
0.233098935473072
0.237339526161256
0.234726399556371
0.24175808920541
0.230494212827899
0.23887447468354
0.22558734733888
0.235346305195712
0.227072155294831
0.234442409410694
0.226251087516625
0.234955890075033
0.231541149989622
0.234709519247469
0.223964707728775
0.229933162754453
0.222815508234208
0.231167227457974
0.221738228388017
0.230626937660396
0.221781850145308
0.224807154630937
0.22071724836051
0.228489334818458
0.218382910543057
0.225063063927728
0.219824116936866
0.219179209390955
0.216178621260129
0.222260487954515
0.214134957241592
0.21831284160542
0.216146678673469
0.217607226934867
0.210421930829834
0.216821902537122
0.208365979204973
0.218254263032081
0.208530686856614
0.218029434915825
0.209233699813776
0.213588783272995
0.207580529981364
0.210616070088785
0.204100004053012
0.21213781452393
0.206188793807215
0.208935375080397
0.200636296913688
0.210239634445492
0.198237898717182
0.207835091096109
0.19951380336726
0.206112631913583
0.20072892530334
0.205223332388244
0.194833242948937
0.204769086936602
0.195533061181189
0.201299156683071
0.19204919761516
0.197509730673862
0.19146612983431
0.199983522495673
0.191236478093615
0.197899437451982
0.191513740047586
0.196785251510317
0.186376756675524
0.191312115091411
0.185959505599461
0.193404815438248
0.183347563131891
0.189153747886708
0.178529000742641
0.190169188660744
0.181780136900603
0.189332230165828
0.180033480365285
0.190105221443149
0.178806811799828
0.180759192064342
0.175877781463019
0.180865195405716
0.175406166945338
0.183456983355648
0.173531820427183
0.178332983430363
0.17440509715183
0.177807886579764
0.169324844814681
0.175159375477268
0.173944380335875
0.173629360173549
0.165517922373278
0.177049915081513
0.165968112217413
0.173172646180141
0.167490805405216
0.171564870625466
0.165192273779014
0.170585629689253
0.161895827757239
0.169180277383865
0.160493227537297
0.166427487133382
0.164014421657207
0.169239614469254
0.162320405664063
0.169111713466761
0.160492550639179
0.165288115067441
0.158829784703842
0.166390418760524
0.15696689951108
0.167176805306609
0.159033833831926
0.164794504295718
0.159202829821621
0.160925822822941
0.152243915141358
0.160800794289673
0.154203058261548
0.163537511064709
0.154301751467731
0.160909675224874
0.154035679331458
0.159812122803231
0.15140725654391
0.158969268763275
0.151245467348963
0.157219734914821
0.151691600043751
0.159058171007741
0.14898373809207
0.154737672952014
0.147928772683659
0.15779842780106
0.14835057842476
0.155615851824013
0.145995036486145
0.153831681688251
0.14772944929836
0.154481930459508
0.150029273031662
0.154299946740344
0.146626282568545
0.153347437827614
0.145930116524971
0.149728774816061
0.144111719921768
0.148628865701236
0.145466171570164
0.151364967052594
0.145332860453247
0.150089275846546
0.142081823255543
0.149683200557275
0.144288227529802
0.153177994969438
0.142094559100536
0.153517026993985
0.141114720843401
0.149082551747796
0.14215948818098
0.147046729185189
0.142504910995683
0.147807810874992
0.143094535325324
0.146293228540239
0.139706364220809
0.146479564428335
0.141768667681324
0.145755782122567
0.139121988694821
0.145541117242336
0.140220064961604
0.146568465486115
0.139354728444004
0.144110827934179
0.141381837098916
0.145013055694718
0.140638058116357
0.14378456137824
0.138563424107806
0.144504543965709
0.14007855335469
0.138729296266306
0.135697629973285
0.143784965390908
0.136895260336099
0.141994415585625
0.139910474954922
0.141454307025208
0.136267524630357
0.139730663555314
0.137186017760048
0.141844233231813
0.131185782914363
0.138644668068318
0.134459332802126
0.138634773397304
0.135542334553128
0.141488406385681
0.135636893079144
0.137479482864862
0.131505310424413
0.139852850279387
0.133129305680582
0.138500695602233
0.132616765382604
0.137916577670881
0.134056887635445
0.139424394534466
0.130590600623449
0.13563664034319
0.1307673174104
0.138127839805504
0.130251298086566
0.136966901612557
0.127476623615276
0.135822325679619
0.128714250467945
0.137858455726347
0.128453407129767
0.134867366153984
0.130642975763638
0.13492238659307
0.129221672514582
0.135820464659524
0.131617695347749
0.13466069217094
0.131971531446528
0.134868035343054
0.127756331000768
0.134139730535987
0.128456464127003
0.132606089884901
0.128610678899222
0.135030300867748
0.128971764701853
0.131824714178599
0.126751459600605
0.135187965763929
0.124033263887131
0.133685077350157
0.128369634325763
0.130240562086858
0.127026657402368
0.128555056891272
0.126480639312363
0.129883951493736
0.121551188888741
0.127765187371283
0.123895347277872
0.130951792149533
0.125983020403814
0.129116355135172
0.121225583195758
0.128656187191398
0.123599896984733
0.126606373785054
0.120139095647178
0.126145398851005
0.122692606224445
0.129719870265237
0.119107541064098
0.126744263133114
0.121992276157723
0.122770967302145
0.118680391737734
0.126562690498134
0.120850049514305
0.124319374345585
0.118282476251804
0.123634424182546
0.118669148659658
0.124478732735358
0.119374442606317
0.12400745344613
0.114897105045193
0.12253987649756
0.115856855916055
0.124223677024323
0.116688118839258
0.122857693791978
0.116517617305623
0.120356542894718
0.119115899411294
0.121490324208735
0.116274105113997
0.121652363245946
0.111767454425143
0.120074225631253
0.116960303183358
0.121866770137582
0.117219187795951
0.119475237473357
0.113862294380468
0.118837560173385
0.113216175668827
0.121009943882118
0.115429041386278
0.119793888328472
0.114167308640999
0.118151354042514
0.116291369552522
0.120710191730413
0.110144519460576
0.12028302432668
0.114851721173439
0.119507464012416
0.113958209470671
0.114981907713324
0.113511404170081
0.117631136049022
0.111524287015542
0.118160688734404
0.11251889255303
0.117570482041901
0.111736329251027
0.119065338015737
0.109588017869059
0.113961112050378
0.109483603039009
0.117062660206877
0.110761824222574
0.115961511113311
0.109051617712141
0.114589226182
0.112251514483028
0.116325171395794
0.108769203772121
0.115715301464705
0.109452052535927
0.115903782544255
0.109198479681555
0.115225084704438
0.107902609868115
0.115626265059179
0.111328266846063
0.117239147635539
0.109670992628858
0.112780942847963
0.108722606022349
0.11331261896616
0.108310049949632
0.114243410295101
0.109847632177449
0.114488350609748
0.109072656582312
0.11239849665244
0.107646760208446
0.113587178728789
0.108804364082441
0.115425115796737
0.110480094060374
0.115175674775846
0.109616209096394
0.116161983812799
0.106623067716025
0.117432970123109
0.110358350428211
0.113865631411409
0.109099707144681
0.114833844244058
0.106824894374993
0.116328608607957
0.111080873931655
0.117650683806285
0.109382413967718
0.115607417979775
0.105133723928811
0.114186561205566
0.0942776810408129
0.108329435152114
0.102953383710033
0.117124403771976
0.100515930847653
0.109622159934002
0.103489342110439
0.11477572970312
0.095410816048524
0.118396375785112
0.0983085613403437
0.108965936718913
0.107259273379175
0.1159471745136
0.0969903483058633
0.11831350352587
0.104639605816734
0.122886124314835
0.100269477809355
0.118655848114109
0.108489372759411
0.120753788639723
0.0995054132284
0.119171537639677
0.0995207600627012
0.1128509468301
0.102744313201239
0.112223711201349
0.0984956019907859
0.112848398262036
0.0985692546095527
0.115656036896575
0.105016329088576
0.118905971546335
0.105714780067673
0.117523274362031
0.100463223412063
0.10659963125557
0.10148462483556
0.104865277468479
0.112749270415073
0.1159454718952
0.11919775768039
0.104585322290508
0.114533036295318
0.097703631239703
0.134207568186273
0.101167925418857
0.129346946262625
0.0823059694660802
0.146933764403189
0.0871047245553916
0.139134381356627
0.0714997842190436
0.153628413396851
0.08704139598235
0.143678818134335
0.0888034654819657
0.141119734641727
0.0959782310782483
0.127862764958641
0.110264258880888
0.116709438827563
0.12016373599756
0.111780155492307
0.120924794571249
0.109858596423769
0.123043577873955
0.109148074137342
0.120728787993082
0.11707657065162
0.113179395761491
0.121454026240387
0.114631151004268
0.120670946785077
0.115038258172582
0.118895279428921
0.115686760536963
0.116553723907523
0.119370568632944
0.115388117318772
0.116668070372904
0.114414263030265
0.117423776334082
0.117750755405743
0.116221709821316
0.11723211336011
0.120031594922187
0.116553836774201
0.119796056371172
0.119793789625343
0.12135528284285
0.120201434669584
0.119818813508482
0.119638052010235
0.120369520428896
0.120687894554972
0.118576076560386
0.119489291143371
0.120017943835159
0.119379073663817
0.121862459460462
0.119759044758706
0.121760016048618
0.12060149511626
0.123185400120687
0.121780563130723
0.12592575486573
0.120094189200448
0.121651711710774
0.121507784584486
0.124254511355926
0.12336562269178
0.123377357715911
0.123338673299142
0.122258042931921
0.124466716332836
0.125940966283373
0.125373106477503
0.126034893949127
0.123008441069611
0.124993037299223
0.123301236323301
0.1262629247361
0.125587377113675
0.126285975548032
0.122594296702475
0.127109298707829
0.123713224020259
0.125373511339526
0.124899996738934
0.127636740559834
0.125175579072509
0.128222827227371
0.12719981901255
0.127501376197034
0.124486768789154
0.130195832579269
0.125344197500082
0.130390833029118
0.127721359110763
0.129502288063554
0.126814168649462
0.129354606167779
0.129282579722419
0.128535975473934
0.128146132753844
0.13097533084935
0.12709714001777
0.130230214398309
0.127115322651356
0.13153117972095
0.130149297763704
0.131674645705737
0.130641700115276
0.133308619392732
0.131645707544495
0.133188148570002
0.130950712927758
0.137185962327964
0.133424579295956
0.133480112640795
0.131994753167895
0.135654109303055
0.133398739007092
0.132574757113058
0.133519454209357
0.135951007973176
0.133005293908888
0.135796828227895
0.135137877391954
0.137320603802357
0.135004985800196
0.137775482773011
0.135462731428438
0.139871432416977
0.138187397296933
0.135813995177155
0.134632433115518
0.139619299424076
0.135099695829894
0.138223057708396
0.137926404599629
0.140538692938526
0.136759878099654
0.139362978483961
0.137986771373775
0.142112285603787
0.139404939519333
0.14080584001166
0.138718397592898
0.142442183684674
0.140108966991095
0.141068637316257
0.139702474633405
0.144433724486525
0.137957558398658
0.141833038838617
0.139720785838018
0.143414019749451
0.140019802116399
0.14300634967754
0.139903431944162
0.143568054266941
0.142632412367835
0.144693808540645
0.141107577657786
0.145162210408803
0.143770622665137
0.144865066602942
0.1446241988188
0.143810729139915
0.143933206282727
0.146617961934666
0.143999996994466
0.145440135932925
0.144228964859436
0.148317158137091
0.145397273936282
0.146598297701359
0.146686675135961
0.148930533896372
0.146696707011163
0.149603200973797
0.145246172307182
0.146638312287239
0.145774686101048
0.15201271003823
0.146352714490008
0.148283838589242
0.146653199109696
0.149488126225818
0.146807508632905
0.149711359337998
0.147715227988987
0.150760770342488
0.146538396382508
0.150224300708187
0.147116701786235
0.150212417863914
0.147123937353739
0.150651245735524
0.148774757481362
0.150302973170272
0.148737256430821
0.148635594842201
0.148856581586006
0.152541224104249
0.145253755003628
0.146614178004875
0.148167303622078
0.148029907868018
0.146404132559986
0.147975782459841
0.147855710479654
0.147544077556424
0.14783180502647
0.150241492826347
0.145045103037809
0.146767228128936
0.146892853565711
0.149535343231391
0.144858723746858
0.15111055248128
0.145540654781452
0.149860178877192
0.145468778828118
0.149281750134115
0.148085526684354
0.147156050175437
0.14583680166964
0.148238551380915
0.145084746471653
0.148421989544335
0.144826874960072
0.147864112370679
0.146291827145022
0.147589854205858
0.146289153385222
0.148631514775688
0.14359519477647
0.147061113622831
0.146226879399917
0.149018498260273
0.14399446442381
0.146180213125702
0.146638120576845
0.14579009125547
0.145120401183633
0.147144295194407
0.143130369101614
0.146924211107402
0.145058051242488
0.146594841315642
0.14199464978185
0.148175575039452
0.14454510382889
0.143913796466809
0.142920373281787
0.145958347178154
0.144185418148887
0.145560314306136
0.142890131495734
0.145161833740551
0.14174245113611
0.143236725734349
0.141682328058688
0.145034289808143
0.142998545944813
0.144026447067784
0.141483255764598
0.144210510832742
0.141481588735118
0.142899265094107
0.138463017679323
0.142267440890601
0.140977171086118
0.142451685816359
0.139881852371737
0.142412074124882
0.138419263905364
0.142124100731863
0.138701942002977
0.139739881099633
0.137459152371025
0.142234414732059
0.14074373173654
0.142068849924745
0.138384788254533
0.139991439125131
0.137551245029593
0.140495404318892
0.138181749566132
0.137550430419658
0.136194884272431
0.140493540276413
0.136739023934245
0.138854173722421
0.137082554431258
0.13955309860821
0.136039985787332
0.137534912026431
0.134878563826976
0.137249497135102
0.134529011893152
0.135276316416904
0.133217393663564
0.135532612280761
0.136085028059203
0.135272009888278
0.133211912715879
0.134936907802361
0.132949202639994
0.135008580221884
0.130915220124684
0.13591035265681
0.131462529548304
0.133594476493738
0.133191351157145
0.132466566656883
0.130726435231669
0.132283865762743
0.128702988936894
0.131134580589739
0.129305529087375
0.132407779026665
0.130759865153833
0.129957301176969
0.128121812970916
0.129942455736188
0.126615193076503
0.130840538845611
0.12709268070402
0.125989361727401
0.126181343713734
0.128658795804754
0.123614702413945
0.127010931276748
0.124599336870691
0.129738000277433
0.123407415531657
0.12511025772246
0.12048846158594
0.12545191546357
0.119005333853418
0.123360648352728
0.121069499294813
0.121412110548144
0.120707478018512
0.125150534370911
0.118568761471392
0.120668078010077
0.118687495048156
0.121896293781215
0.115831952492426
0.121439786895696
0.118519322180498
0.120846789638984
0.115885038635535
0.12056732419606
0.1176851502993
0.121838346787564
0.112620517990299
0.12111722254158
0.111551895383541
0.126705336892594
0.117855686111724
0.114630640385888
0.117748229332542
0.118627446803225
0.117915168023813
0.115417595317476
0.116148412783219
0.115325960595571
0.114825486185181
0.116030844027131
0.113388685850366
0.114941183475182
0.110955756878128
0.114384852377451
0.111006907807988
0.114865400517458
0.111828306153897
0.113450613174575
0.111851988172829
0.113302072902851
0.112049830265691
0.114114597122509
0.109719015635466
0.112412687461914
0.107255648391519
0.113907196844902
0.113718577425535
0.111630042138031
0.110741571923299
0.108418078279025
0.109614904626667
0.109374021500554
0.110068840182256
0.108806177890311
0.108407260159153
0.109931112996953
0.106022783042118
0.108165813329851
0.106479758472989
0.11026304991275
0.106727134368955
0.107681951493857
0.107248180692407
0.107838892880988
0.109579003053574
0.106661863864206
0.106400359847174
0.105985438036208
0.106160403015543
0.106534438160871
0.104993249158458
0.102584168004915
0.115199672220801
0.110357121671218
0.101786774309601
0.105998410179486
0.100871277461696
0.105503391883249
0.103269069066913
0.106072074198564
0.102283579096973
0.104278954114217
0.103709523664182
0.103197484390657
0.101848821791227
0.106330663527742
0.102112959653272
0.10482939452426
0.103257378051327
0.107651714802648
0.102338672225066
0.104219893955152
0.102041641515298
0.109365813445441
0.105565947992916
0.102065916325827
0.101861900547301
0.10108509501198
0.102874871919127
0.117739103757545
0.0933328240856578
0.109855491224336
0.0980760125522414
0.107064167097455
0.0954343448063291
0.104922154981493
0.097195728747574
0.110161018620639
0.0992743766882419
0.104574322356595
0.0995053184513095
0.103796977696383
0.098507923659879
0.101509916814616
0.0989984442766341
0.101720748878825
0.100076733106389
0.100869391855899
0.097320474007517
0.105245147999463
0.096848250910544
0.102834427061281
0.098140975179811
0.107686598531904
0.0963316033064774
0.103584556419972
0.0947495109257417
0.104895285947194
0.100033865021403
0.112551890345881
0.0983425793301513
0.0980988578950283
0.100597241817079
0.0989055094444877
0.100171934384108
0.0993209683573163
0.0998105330608815
0.100227153012651
0.099343139791879
0.101736517521534
0.100119727670791
0.0993045443397902
0.0986336051978787
0.100534052844959
0.100354059742939
0.0993101409976692
0.101061447928942
0.100621789506949
0.0975671768693428
0.103511538368878
0.100424325355107
0.120962630019836
0.0978638175595467
0.110293766658335
0.0968958577240266
0.101747804553321
0.0978736720400977
0.103188387973532
0.0982471445082348
0.101995054807402
0.0990700526276682
0.0994855275507449
0.0972636909858261
0.100146272828007
0.0976015513958415
0.10362485134446
0.0977536593010173
0.100930464824363
0.100266502850687
0.101879644924739
0.0996904797229519
0.0997983148090145
0.102210336895443
0.101301025094684
0.109435606223907
0.097573484895124
0.103780346369575
0.0912072106878659
0.13276189634731
0.0987835266682226
0.106815586898156
0.0990373020717838
0.0987562989521196
0.101297383602656
0.100909670565407
0.103782872323241
0.102845072952222
0.101731942394631
0.101595439497656
0.104552702713048
0.104532050181133
0.103244516496798
0.100338380975763
0.115698100917862
0.112818579807528
0.101639159916442
0.106887382633381
0.0975837092816343
0.115573935306788
0.112281581671656
0.0998060513093096
0.112335522830998
0.100736881202361
0.108388056291041
0.099120263703695
0.110367988928867
0.10471895895857
0.11066024309748
0.102172810271905
0.107079367977188
0.102626385886384
0.106764656105532
0.108678499399344
0.108989360071023
0.113243770066456
0.111076240118008
0.105020482459501
0.116010812545791
0.103794270592815
0.111542182814835
0.107153128582036
0.113797830445853
0.108083938173005
0.120383713166952
0.112425616757658
0.114477611507746
0.118232173249921
0.116993977601205
0.109200454012674
0.122659915463476
0.105946923156006
0.120502739114484
0.0916615482993073
0.140587611999796
0.114986582569627
0.121772677704671
0.121002959650258
0.111051592312178
0.119444301368161
0.112847404987277
0.117031832296797
0.106943212380675
0.131018403909085
0.106156636343622
0.127686201643308
0.106586359842857
0.132545116205565
0.115943914280631
0.124709763603228
0.120357051705999
0.123048920656578
0.116741607481274
0.132211478455277
0.110537593879148
0.131351788147959
0.147449479934474
0.122982359209992
0.140172953425226
0.12013519079238
0.14009845623605
0.140958492987712
0.122752498803105
0.136828866262061
0.12442312871245
0.137139849493135
0.117815224711237
0.144217680716215
0.14667604246078
0.12553351061682
0.139213535157921
0.131544989222222
0.138470053175303
0.151833555370165
0.132275691837362
0.144499238889005
0.135415959352249
0.144035877323974
0.127415810456254
0.179487612378298
0.126591607132846
0.170556868836899
0.151157022624516
0.156802925590424
0.151918130712252
0.155577212701778
0.15427588578189
0.167190492080346
0.15738777885244
0.157618610155273
0.151796556680958
0.182714003234037
0.167251921297758
0.162522278006468
0.173932602464336
0.158070715350177
0.175524200596153
0.214393493676454
0.192752857961395
0.180713872459531
0.180944223561713
0.191552451038248
0.19730824669382
0.182710616485262
0.191321674079607
0.191738200757981
0.191678186397521
0.197449709268574
0.200556377626505
0.206978622909514
0.198344811033044
0.213741225143655
0.202561173444734
0.221840377417653
0.228199336034293
0.239750036087135
0.234226242405408
0.228238714106798
0.254717779805679
0.231650105086798
0.243984552475599
0.232033968257834
0.248232799491533
0.246813098811907
0.251899202849859
0.256220749351625
0.259985716309449
0.282733395717032
0.262373489247753
0.292489373414114
0.285815032799871
0.274409228714727
0.277243718823295
0.302330236513804
0.362094409649053
0.284712638442243
0.340907352013333
0.276349794728405
0.399619734993132
0.353624361055394
0.345679918744509
0.350904889689098
0.364764928475383
0.35967158474275
0.389954146782348
0.384822891074399
0.405065147432639
0.402971701665064
0.413693882445782
0.39060269042194
0.488640039873589
0.456317958037885
0.475344832943791
0.446876245266749
0.469157152530853
0.478146806903596
0.48877163061662
0.483854302354033
0.51014583860355
0.476816451515411
0.564047093769197
0.539489775128618
0.533701783625951
0.551556135860458
0.557147571573272
0.578738860804303
0.565076073656047
0.638193669805916
0.576304612547505
0.612073240894731
0.597538752200238
0.622455327124626
0.615215131259878
0.635813489953632
0.668930027616573
0.655774696562611
0.670581769786807
0.671340692400552
0.679705830222916
0.69641728086275
0.713859630372836
0.698478290885016
0.707918065086354
0.764317235412159
0.790546946973747
0.795137675308995
0.718250930038883
0.758625322496125
0.742523257384809
0.764574898475523
0.782089332500037
0.74158927691036
0.806228864832623
0.766668922296957
0.771357523809827
0.772225747661942
0.778256536452
0.791261310302487
0.792245300452558
0.783364565242003
0.762862420218356
0.812127053906781
0.730688186633178
0.905469473539765
0.795921048660458
0.766032783507387
0.777190963212129
0.774451313964737
0.770253498812998
0.766131386559971
0.747858677859059
0.779994932051471
0.770462173011634
0.749153305854366
0.746290145585737
0.714959132753813
0.772990516068962
0.72879707858822
0.707486836708616
0.705366962404343
0.686872965228685
0.686178256272576
0.656329482698077
0.729482225428763
0.684730082077353
0.649976756312343
0.653944857232488
0.629611106298623
0.633603129357673
0.62414881867124
0.624538761563494
0.612298817122434
0.605392650758343
0.604603073117152
0.593723186691739
0.575580648998889
0.589162436263021
0.572948223559563
0.579646224873396
0.564003355233622
0.568115115468169
0.557025672526623
0.552753639536505
0.541306765808772
0.542864891292218
0.541291941543063
0.539872420606424
0.530882965463569
0.54145010622846
0.531008443173418
0.526886410348736
0.514038903704353
0.521781459546844
0.510879481516172
0.516811431483738
0.506977743887653
0.511308377787041
0.506014503344911
0.512126308472692
0.504658462279172
0.509461808032272
0.501720142048008
0.505757779099121
0.499533037366736
0.495208419253861
0.495129379563295
0.496740254937744
0.540509568927104
0.482297587183362
0.496525932724786
0.489542089284016
0.485869599745095
0.479042078394435
0.479917451230674
0.512528851094012
0.471963517887293
0.478310547241758
0.471378095752615
0.471468937315183
0.476880330725804
0.469331533164706
0.45471736701739
0.470919396705659
0.424004451159136
0.547259677613906
0.438128318610737
0.545289562273103
0.471679813791867
0.458697637499725
0.433300772436299
0.472570256692983
0.455216459940983
0.434558611649164
0.449492313839012
0.438239629152216
0.462475898465217
0.43600181689979
0.436811220400324
0.428301263659664
0.421760470002867
0.442449483272213
0.428779442573492
0.411197177626861
0.440686305555757
0.424369763834468
0.418365305461697
0.479511815069589
0.436863406201207
0.408546254737184
0.390793033861299
0.402626827412395
0.392110319029871
0.411721359256052
0.415672492127211
0.391501425631866
0.398586230630054
0.373567802829773
0.385051128483628
0.38842375903599
0.387817053249198
0.36988788028059
0.377088420379608
0.38832740323326
0.346058030143997
0.393135671760186
0.359587744232223
0.417048985216852
0.369974816978145
0.366697664345076
0.347214791901089
0.392268518011
0.366226057749192
0.358191882307203
0.353487503638677
0.342111004505017
0.353178323599504
0.357530779164363
0.32692588435339
0.352795883098999
0.333985109121966
0.342749358781026
0.366259902503846
0.368773726051479
0.3448940437845
0.327577713751683
0.323313074714238
0.334000909040606
0.319447136144865
0.33129898392472
0.302883589361649
0.350615388036834
0.305808993704001
0.340285617921503
0.340265077381699
0.31967198034548
0.326422668947307
0.324165333415427
0.318391143514666
0.347174222073323
0.339912291242327
0.347389341908279
0.315820284881222
0.342473802032277
0.332093132813098
0.334288908144594
0.337146905247861
0.341676461872132
0.339147180005517
0.346611585381173
0.35132500412734
0.354451922330235
0.351515127098717
0.368318775167768
0.35533509137541
0.38518267150196
0.371204190715969
0.359408743585983
0.419814636804839
0.396955065633945
0.418766076832934
0.385835347804918
0.403393861683537
0.41072011824031
0.413626211400187
0.418863989685504
0.405351291354342
0.445370431842971
0.439358365732841
0.420460691610218
0.436553174498414
0.428156620409216
0.447868359328547
0.425698304084961
0.469930839945206
0.425456331366867
0.494893055257856
0.447624574768701
0.460255334698482
0.453237922525554
0.448822554063102
0.465122710874135
0.453804040685735
0.462602984890031
0.454225374611184
0.464994427825368
0.469147127737256
0.455789977846475
0.467829338917021
0.462128034053698
0.466120148311214
0.466941159487237
0.469391183365334
0.471786949774447
0.470036186449261
0.480430066665026
0.467951303269783
0.493604258296864
0.519404855630043
0.470774638014935
0.497119445209276
0.48926776110926
0.502766071773759
0.492114968341084
0.494710179875389
0.506107139631207
0.494300126224972
0.503182344301555
0.511014067569292
0.504648855004461
0.512357153346418
0.516089579521725
0.529411782663229
0.501803087413746
0.533380381169881
0.483449693015296
0.568442627152337
0.531029842202013
0.539894018157194
0.532340269749137
0.521852797801058
0.528241260902125
0.526155992360112
0.53111412428673
0.52946412759992
0.531964704118825
0.526792306397821
0.537076655658217
0.531425080791776
0.530607795170783
0.526323127073267
0.534552660565397
0.541356595143134
0.523764236324512
0.536073731770164
0.527838424537859
0.52474547474913
0.521739017143914
0.546452517734499
0.524768441726856
0.526109127696924
0.522520011947266
0.532390768413275
0.540627753043608
0.527049892661547
0.519235758278395
0.534760781496144
0.518079056179685
0.529333154454666
0.517798105815056
0.542298213052523
0.5415307314317
0.532769690451069
0.530381337529889
0.533783456530759
0.540119413834167
0.537665525207967
0.54269877664226
0.546560841902322
0.551172846372144
0.548982754555248
0.554133825793475
0.550610864918767
0.556054705415322
0.55003233217129
0.556564915584107
0.552826133036197
0.548806916458153
0.552665308716354
0.544163380322618
0.54981317383995
0.545509332382978
0.542954372310304
0.53730095986788
0.531173684176391
0.529611869133363
0.538400348350472
0.534386270845053
0.513695870611919
0.53086000960657
0.506706677708264
0.512963277238887
0.507702917570104
0.510723767913476
0.503771610639111
0.50709413120588
0.500436292856254
0.497298760345319
0.494965340329776
0.499586573510711
0.497370571078105
0.493321242646896
0.491917121179539
0.494093025508732
0.49129825247898
0.496562166988475
0.494110472034644
0.495672733208704
0.491329031959645
0.491713170578884
0.489555614741809
0.502314056866005
0.492553543504453
0.499247002471456
0.489680604346599
0.496043006557807
0.48727530395982
0.489023877874383
0.48822610388743
0.487219364232878
0.484968597588915
0.484942062300586
0.48535991551013
0.484708466358898
0.486452648501037
0.483007890950135
0.48504754021132
0.485136499469279
0.485621413948369
0.483108038591114
0.48472865078359
0.479893312573129
0.483973153707309
0.484940122164294
0.486264801789572
0.483434004127025
0.481826210976581
0.483018766872748
0.481426308116799
0.482592393339463
0.484111487722728
0.484544457554641
0.482225769220964
0.478891425808727
0.47972063506954
0.482558942177833
0.478954139585667
0.478760460705286
0.478670587788208
0.478351085521305
0.470251464075784
0.472426115294941
0.470576801724283
0.464863394510597
0.461051374992932
0.461246608886223
0.456075415790521
0.455267829176452
0.454881110464328
0.446780387749334
0.444012029733232
0.446085656982458
0.43991469831401
0.438436585152273
0.439166670890961
0.440183399237589
0.435309756221668
0.436436112398416
0.435598767754314
0.433667176984407
0.432824095563901
0.432977132964758
0.435754850078003
0.431406702731205
0.432623531530945
0.431360533750369
0.433167677894049
0.430608626217181
0.430576268724592
0.435095422491006
0.433115577883504
0.435845955541711
0.43975439495997
0.437504787644913
0.439025370738557
0.442363732265118
0.4413644148202
0.442805215759919
0.444757607550791
0.447274991518944
0.441717329816686
0.448559287618952
0.447479318226667
0.449841781695405
0.450577751219141
0.452678819270989
0.448719552376835
0.451822004494871
0.45346740117695
0.452523181794701
0.44956247189182
0.451304759972998
0.451053897386694
0.449575352020425
0.448971402706823
0.448349377044556
0.447996089395113
0.443534116170366
0.442947309963804
0.445070269383713
0.44189709944385
0.43775396873305
0.440195465653232
0.441833557743891
0.438344454946526
0.435902005693053
0.434447395672655
0.435870346379791
0.433661280992032
0.431128338281398
0.430146068533987
0.42740369048117
0.427930573919278
0.427827567098187
0.426769010804374
0.424238595722704
0.42414943563848
0.422566760044009
0.422546191793299
0.421612619969445
0.421388113365086
0.418664488801691
0.418247759775915
0.417547544344356
0.417352963017909
0.416597716110631
0.417009406238335
0.412709238023713
0.40941528320691
0.41090885143934
0.408401939883799
0.406360856606077
0.404711898010295
0.403697841027593
0.399130904844346
0.39718886346381
0.393857703020638
0.393525893132428
0.39037899009361
0.389730078518694
0.385833638717485
0.382332994701784
0.382142892257427
0.382788176330965
0.380609529382531
0.37879965176938
0.38037271694757
0.378622320940456
0.377651529828739
0.377193039177007
0.376437563471621
0.37610458875679
0.375356519431807
0.373877824485726
0.36886271432572
0.366123413188946
0.363727880878577
0.360463121522732
0.357993656661709
0.356124528996163
0.352945677669556
0.349247777209587
0.346844030565247
0.347317543621486
0.344766671382479
0.344008668070523
0.343947240738832
0.34539080224191
0.347102575588308
0.349149970739927
0.350650274076167
0.356872389061347
0.363890935093167
0.367903715098538
0.374943151857318
0.384686494509976
0.392801948870946
0.403830441812598
0.415906995426758
0.429822810797863
0.442198801026728
0.451580598888725
0.464140958139805
0.480042182012298
0.493586393357716
0.506316884164565
0.514125750964221
0.52661110050328
0.543052302508394
0.555421488518131
0.57131203188064
0.580204697405865
0.588285135554062
0.598778638758277
0.60636240714154
0.616557831557462
0.621353177509619
0.626436142370733
0.634018071263931
0.640616040776788
0.64594595561564
0.651007746273648
0.650588254754711
0.65052622576319
0.650413527575504
0.656533435219647
0.652685289854345
0.65005734460662
0.651870388371416
0.65322087417479
0.651215392152232
0.648292431918647
0.649655361291327
0.652066661163844
0.648563407249531
0.657867965519237
0.654337803119518
0.651994913294388
0.65591569443112
0.664026338067104
0.66582200825342
0.674976511884764
0.678530631870995
0.683729862279735
0.686578676354328
0.694006186740005
0.697566455360211
0.706043081532427
0.714827618861041
0.721718486683701
0.732645189946866
0.746229958529907
0.758969283145858
0.768807328391191
0.777182321822032
0.790638833185496
0.795885977464814
0.807302630864857
0.813406795798936
0.815357783166248
0.817821414562779
0.820830807366224
0.817124927394235
0.81142004205151
0.806773710942398
0.809763024513847
0.801660362178117
0.799922522997131
0.793281712604917
0.787982846513454
0.786773783237818
0.793498827580498
0.784850177511345
0.789011302945832
0.806684733303206
0.812892436114026
0.814169258208256
0.836982547553253
0.837222428793832
0.851452671799833
0.86937843694327
0.873591891281335
0.891785603739537
0.902536665688388
0.903863640592471
0.922477712793663
0.940064318494595
0.940581300896588
0.956761066250128
0.978335466812405
0.9764536932352
0.99624444187192
1.00128471995344
1.01040562105358
1.03846128780106
1.05923892941056
1.06143572445866
1.08074580215646
1.12139428408316
1.14495714194554
1.14110735547213
1.15350103046611
1.17525947977237
1.18564592320349
1.19927276568406
1.22586168206947
1.21275154243762
1.23941540625215
1.23620001952217
1.23718854497697
1.24305248485317
1.261437845178
1.26971368578667
1.25755910896376
1.23609552243746
1.23749297776901
1.24759287867777
1.24255874025416
1.21092410038844
1.21297742351821
1.18646074491055
1.22215400309832
1.20221975876549
1.19859018738897
1.19395135164647
1.21938072348282
1.18753454184952
1.20657672310402
1.2159140793323
1.20721305771508
1.23471636925818
1.23564825770716
1.24452040702709
1.27429703995754
1.27333313836669
1.26115683887353
1.27554910314774
1.29447916669205
1.30433805361025
1.31489675668939
1.31420426119697
1.32084208666619
1.35418265067975
1.38075748152134
1.32116683988908
1.3533668266691
1.35721545224821
1.36548471482286
1.36605241054272
1.38510136315596
1.3407888706706
1.3616281659469
1.35640046587786
1.37916801087046
1.35679787795928
1.3752237369207
1.36412505631128
1.36861286194156
1.34910216205869
1.35569459714889
1.3227120809303
1.33867364826509
1.35491234741189
1.3418413034063
1.34032498426838
1.3558225095202
1.31934874618816
1.35023447652269
1.27997371890688
1.26629165623585
1.23143948051229
1.20800999134963
1.18011462403282
1.16943945570214
1.12773563302908
1.10120353799639
1.06075453742922
1.03205693552803
0.996081029878659
0.970605927315155
0.941832647556349
0.932161642705229
0.91417617603855
0.910281346838068
0.901926194835829
0.895331155869746
0.885432520849711
0.889952060521031
0.874031505357346
0.884855926346831
0.874100173517591
0.868747092324801
0.863624797148687
0.862129119350131
0.843655198483672
0.836457174626937
0.820328016422465
0.817223644910786
0.826208821867058
0.799353039968567
0.782942999000929
0.78215863789002
0.75916655180284
0.747746261901713
0.722055090052229
0.70755604730002
0.688310897434159
0.68235958424097
0.654183168367774
0.635974978288052
0.621121395046719
0.606502371545998
0.586827638478961
0.575882947429179
0.562882692245662
0.546208367871402
0.530350572944236
0.520013798283908
0.510233807565858
0.500157374096248
0.492162462319869
0.491309813587375
0.481621839979565
0.479458408363284
0.467638117015864
0.462423943130544
0.459472264341777
0.458466058811044
0.452263045961696
0.456152659330355
0.456131833513864
0.453125292138719
0.4551264450338
0.455590384893013
0.454159725680844
0.460979914920412
0.456617496845735
0.462244472253786
0.459907260478373
0.46355239827062
0.464365025250936
0.462382589471126
0.462605794390774
0.476102006338751
0.47229028620293
0.468096686947313
0.468396050014305
0.468269738193124
0.469628695230465
0.467145019013156
0.465429189383807
0.464663931013191
0.470821842382239
0.467087672339415
0.458448802009012
0.465882746115853
0.463742295747523
0.462811957504288
0.465211645208686
0.46953055043994
0.466998500194158
0.474002348821575
0.477294986322256
0.47716911681061
0.482714512990948
0.48459741321503
0.4851492969788
0.49197623913058
0.489253928895309
0.495617621222191
0.494450686320893
0.49853474729695
0.499758114344641
0.506708975512169
0.504416431865807
0.510110730693933
0.509376171299715
0.50918856510474
0.50886302369599
0.506520184564501
0.507136624960927
0.513366608372356
0.513633340536923
0.521988795341332
0.514375371910606
0.524213902511519
0.532962735791512
0.534798842587545
0.539196093940784
0.549043997232436
0.549135397302853
0.563074255418057
0.575334016513328
0.59326568350931
0.591510925204118
0.601738874449909
0.617182833054877
0.624252027711953
0.629561777181751
0.638686977030201
0.630440618609088
0.6440097152861
0.640425808481379
0.643993018176877
0.641972921904604
0.635018438271712
0.63081711968637
0.620890025903999
0.625903859190407
0.628928698669647
0.628978170202429
0.631250626401336
0.628925486170689
0.636731710442206
0.631832020447494
0.636015326406056
0.628700030124362
0.642549950964142
0.657755054043033
0.652118112522528
0.636532507262637
0.65025636052528
0.634728275651757
0.647883327642863
0.648179207553734
0.642108453272993
0.638539258410082
0.65179536220217
0.638879381739117
0.656989067143187
0.643554034451519
0.650517092226951
0.636010901484705
0.637996842904284
0.647851323437974
0.65193353153688
0.646363389577893
0.672725882799628
0.643774137808718
0.66076048777348
0.653556733091766
0.66615479909627
0.691133559517903
0.683766434595123
0.664360794130647
0.686050371727731
0.659777126882163
0.661911887005515
0.667841788216105
0.688219331233064
0.690212128372582
0.699987961010899
0.671322064936012
0.706736729747069
0.691406994271506
0.67943010078866
0.69015556024682
0.697647474855211
0.689080737784753
0.712798253224675
0.71111157891553
0.720561327343542
0.713802099413749
0.713277341321245
0.700003316110178
0.701761361445538
0.716046884649728
0.715594817230895
0.708227857912971
0.727407024322841
0.701071615760236
0.724619257900704
0.732592884827262
0.763363735742382
0.741917088632102
0.742270965190935
0.739461640504748
0.764112419120513
0.754768372893383
0.795674097202963
0.778707830854433
0.788413559491629
0.758047601983999
0.773122008547833
0.747448457604181
0.784336999327903
0.779423467706209
0.788570208770123
0.769819739792515
0.796312410849182
0.811221047081752
0.843836539927832
0.809490859708916
0.804542501503817
0.807524315360271
0.847741170649222
0.834993596089234
0.870461574595866
0.827868543889022
0.849217719473502
0.835446911926323
0.863169182708545
0.878635024815388
0.888541954730369
0.879482745849136
0.883364744230992
0.916177046863843
0.980981588149352
0.926544332840107
0.953706224419097
0.984790336839366
0.936343621763409
0.890144812716057
1.00201410938931
0.961168565769
1.0293201184491
1.02921626681404
1.03529835133393
0.989236256259018
1.01622157161531
1.06830887169923
1.03424142158792
0.991042843168371
1.06872648265362
1.05975639354481
1.05756896626451
0.977535526362012
1.17996022588246
1.03118033861454
1.05555298527659
1.00696431442244
1.05454135792073
1.01010896435174
1.11387955176416
1.07923663201209
1.06073538170765
1.06096103630745
1.08570515409436
1.0005902249899
1.02857592292428
1.05654706066497
1.07079280951733
1.00672113076591
1.07873947627786
1.00439206118402
1.02979890258298
1.03028488416059
1.13206968350588
1.02329970355802
1.12724672255802
1.02027975320814
1.13801738663892
1.04503517042123
1.21457940682383
1.00094734952908
1.1642933546928
1.14219574331636
1.1380240015576
1.05666261625465
1.12700015492359
1.0496386507705
1.13901620042044
1.09809480046076
1.17082645195669
0.998461100679898
1.12974200301346
1.06110706081155
1.10862361553736
1.05058661500288
1.30561773011831
1.05161334100917
1.22968149323678
0.978233825258702
1.28626657693752
1.12921658475847
1.16024245612265
1.12620023188387
1.31746798973388
1.13870183870969
1.23907486249146
1.03263518799428
1.52149653105665
1.04494324444502
1.24821397150227
1.3033738692079
1.3672523392876
1.07926615871997
1.22791488786462
1.09722480284762
1.58691033348746
1.51529705253627
1.29280723668534
1.31774710118258
1.455078644184
1.03074525623387
1.78036292122643
1.21292985397171
1.22313130342015
1.60093814411852
1.56024092400322
1.29444409831194
1.60147671007839
1.25962476215119
1.45838035627565
1.09285741294461
3.23301835589826
1.31889878746175
1.39437823285425
1.17130301785623
1.53434421432884
1.43564272056012
1.62083527809988
1.12391968762002
1.93143632897132
1.02891981449191
1.97509439338204
1.38199289931873
2.09123981747237
1.18808304046101
1.10355090267623
1.02610323364436
1.48420843118467
1.12529141870359
1.36654356472381
1.40018189927223
1.4861057000276
1.26956981944548
1.84524095961589
1.16489474189583
1.1303143566157
1.08277624991133
2.06350332176001
1.26077971510298
5
1.81758320602973
5
1.34032956675041
1.6094811623808
1.33948097296943
1.38743767317397
1.24849023440492
5
1.0824863172044
1.19256440834939
5
5
1.35690147090706
5
1.48438493712685
2.09377841566939
1.03935482128431
1.11116051220112
0.971513291751117
5
1.80167893194464
0.624157534442133
1.22352076065748
5
5
1.40360916680025
5
5
