3596
4000.36533379555
650.420452594757
1
2
2
0.0707328210238703
0.0806233832060813
0.067958225507728
0.085504350246056
0.0768791599606878
0.0865948653775711
0.0734788272182939
0.0863862123630493
0.0692285367218527
0.0883139401312714
0.0694151360144182
0.0792881573326567
0.0618382242262563
0.0785072258644594
0.0779306371873596
0.0779551999216785
0.0635802411230897
0.0827900034219423
0.0746454592592796
0.0820343485785432
0.0751360826879238
0.0854605078532242
0.0712544275123515
0.0819243133204881
0.0805883773736968
0.0860048809619062
0.0665321786302415
0.087373726413559
0.0647869657548053
0.0857425197432416
0.0693875791408074
0.0801605300078817
0.0789371321620632
0.0880861898231766
0.0733911725925416
0.0923871023949896
0.0747593027508144
0.0843228165342678
0.0674112065342974
0.0830556202145465
0.0798966578162361
0.0838156154330449
0.0757874195408212
0.0809407768665275
0.0740071638669987
0.0858039730450487
0.0721237439680821
0.0874001238297241
0.0743448987159119
0.0825533594703813
0.0707234356799329
0.0767540087091168
0.0844505006881811
0.0945325743219536
0.0732669800526451
0.0987168991502197
0.0784419189843917
0.0766759725835494
0.0684506212045522
0.0854547048909499
0.0924481670641275
0.0988162167464267
0.0687172845858979
0.0899257554012206
0.0692615947450079
0.0810552921505846
0.0731667127575609
0.0826185442128971
0.0644013965865211
0.0806009674592015
0.0691983316538632
0.0910408354278122
0.0940647934016275
0.0829793666261593
0.0812070310406043
0.0833036471821068
0.0753021500375702
0.0823086785842615
0.0600460535873081
0.0880662116148214
0.0839495391988339
0.0816929879742596
0.0685363344965532
0.0717688514413252
0.0762908649997495
0.0943822943725225
0.0701715823594876
0.0769355319736695
0.0944153181909756
0.084034534317642
0.0636698565447538
0.078231755135743
0.073190159498044
0.0758852116096146
0.0682173681905229
0.0688784075856134
0.0707777160217752
0.0788361694200634
0.0727219153782116
0.0748515147515626
0.0825083760782532
0.0919367851205801
0.115779708643192
0.0824492885416831
0.107852354782367
0.11534028245066
0.0506845806882083
0.123227118733373
0.079570488300853
0.0856805342387074
0.0679813442772088
0.0781735401400596
0.0672443591270105
0.0832829047310948
0.0634795777859608
0.090515613794236
0.104938508206855
0.0789367957643102
0.0728908260700833
0.0780542935585796
0.0624972356511441
0.0937981796916416
0.120914541315085
0.0747597536398939
0.078643943012818
0.0755651212471517
0.0692870744067818
0.102497299369573
0.106809978550252
0.0675614179513065
0.0651084236074337
0.0682332659517108
0.0689662888151999
0.0597148253710241
0.102539148343566
0.0923987287985904
0.0740373514197598
0.0794899077527341
0.0813650387393421
0.139905458599457
0.0828091155833493
0.0719050470982935
0.0702092862337338
0.0815710106277608
0.103521789865536
0.0755677162475571
0.06395185876413
0.0935699046190138
0.0847102347754242
0.069769152410818
0.0699086857960963
0.0670478647663527
0.0862826025651808
0.0850651279253795
0.05078299006692
0.088823979266217
0.151556520677835
0.0959401068967142
0.139957633042547
0.0765155991480476
0.0736391255599249
0.0792901537841691
0.0700043639824724
0.0724941599139909
0.0602542348348333
0.071878906891423
0.0717443599947679
0.112814550755789
0.0614361066430782
0.0824482119211124
0.10296280440676
0.0979441874349873
0.0622588897092112
0.129400537539246
0.0897365720031605
0.0626915757430366
0.102120858558329
0.076774535177741
0.0600812872240216
0.0812379362153221
0.0981898888450654
0.0673609225902393
0.0691464033085789
0.0710695530386745
0.069127014257533
0.0824199719206645
0.0785619327894443
0.0686920876688111
0.0761773005824207
0.0565011849747079
0.0738067252055669
0.122829955782541
0.106733916820513
0.0797465539501872
0.0770486932914523
0.0487124294508607
0.0844705023028934
0.117128498489124
0.0609484439637084
0.069434833024532
0.0651511904826292
0.0684256971414301
0.0728755817404003
0.0715946620219509
0.0678231298856669
0.0531559219226284
0.0947333143623474
0.094215911959141
0.0577151114061485
0.0688872690759343
0.0676296057042237
0.0803779002012707
0.109912020453111
0.118655179515446
0.0572523570474528
0.0771117902416603
0.0618262137035903
0.0900197743182272
0.0890153830041577
0.070411187541432
0.0612136118606247
0.0756230116566696
0.066148991013082
0.0738844166730065
0.0618260679184618
0.0754296438100632
0.0612395531989454
0.0731897241584465
0.0645012636080623
0.0737446289975644
0.0735435034468772
0.0738851057344299
0.0622413340169742
0.0685740630481737
0.0565564852180228
0.0804967501423276
0.0933648568724761
0.0730010069084053
0.0664815567940794
0.0580860651076688
0.0661198174899007
0.0704071283751187
0.0615223055650574
0.0639900407261426
0.0658910570697755
0.0674308175708853
0.100528526574895
0.0894389796216015
0.0623748963144348
0.0695514433848026
0.0737203508682599
0.0984170028044535
0.0620404916937636
0.0776139125812589
0.0590171771403376
0.0744215099274395
0.0601263575301248
0.106387225580155
0.077563317769484
0.0768807694580847
0.0720642511377148
0.093513747351979
0.0632704331169527
0.0765609107167808
0.0584634114343795
0.135184699216401
0.0949142587667148
0.0612634405697814
0.119857056102996
0.103561716987546
0.0784641012550426
0.0865782711011125
0.0321276480520697
0.159286791881712
0.122326542067264
0.0809323099592176
0.0713991187535446
0.091198928624442
0.0773664680519876
0.0772033410360709
0.0793792141939517
0.0767570906321765
0.110232850741596
0.126511632992827
0.127129858416745
0.075996753674631
0.0782573517867508
0.116030301043381
0.0683384442029823
0.0854829944971667
0.0688699355839801
0.0786688794462327
0.0719629635420174
0.104924848600903
0.0732036456832084
0.0878567223295111
0.0671491177745954
0.106971324681475
0.0803562872240399
0.0771524986189984
0.0699098117797243
0.0958640152168729
0.0704686217260967
0.0712521111995369
0.0702732502020379
0.0825611520148286
0.0696402170123958
0.0808210905713679
0.123075730358711
0.103548898201197
0.0709611070239253
0.102602662570977
0.0799698030331614
0.0808050449763362
0.0692176436332125
0.070811048148533
0.0630392535373891
0.0715964741278827
0.0692581752301345
0.103178147981275
0.0840624507286809
0.0730651978940684
0.0715094973665943
0.0725940658606456
0.0736062930760191
0.0730844510782213
0.0702835362025415
0.0760621552060789
0.0786768001966471
0.0779819104097663
0.0827185098209608
0.10867076423478
0.0764598851052637
0.103625874021399
0.122002107833144
0.0825189703997716
0.0875856252793693
0.0801846530261241
0.0758801344180704
0.0752307341995593
0.0729004001790471
0.0827588511073465
0.0845850126201411
0.0999898363678064
0.0933312803251935
0.0923561935670236
0.0826697838373869
0.141927056852098
0.144432697500024
0.109226501399072
0.0902642108466795
0.0900215821848665
0.0988305558107467
0.127772591307511
0.0967452484945278
0.129230486517456
0.087733616018084
0.0988985536642981
0.0907724248498512
0.091597016348782
0.0893913349301411
0.103371976477605
0.0904127472564636
0.0970582114855385
0.101106478890877
0.10310422362312
0.0985728900414681
0.10248274592745
0.13211745298074
0.125181879695831
0.105140908680591
0.10806159067087
0.100337420342817
0.133052086836703
0.155700602718417
0.146128790170712
0.153817062899404
0.139858812017482
0.170172864204937
0.133338114092282
0.118181017193959
0.118041149647902
0.120117202607146
0.133692299658102
0.128679548996271
0.132227606278596
0.131692367980384
0.132805889161023
0.132257866208512
0.135049744826232
0.128554422077227
0.137040597462051
0.152541660822745
0.147227375564978
0.13227564135283
0.145439866662364
0.151153756822824
0.225000008729775
0.184062991845136
0.170772745220756
0.152207901653069
0.162966839553513
0.149021698211256
0.168468837143366
0.158715846583058
0.172575227335475
0.17418625590206
0.203035676256982
0.191104639581354
0.190499445211006
0.187200785739457
0.178242087815093
0.199949398441667
0.196124610882058
0.20064083663386
0.229118274084444
0.194779488273803
0.194200714584754
0.204247854220853
0.229475463122719
0.205579651128353
0.225834582384389
0.201334005850379
0.201532332364044
0.203594746900254
0.208650994226544
0.212939359523874
0.22149727959813
0.218209834264348
0.227176708911744
0.230078194453409
0.22356750342941
0.228830791274085
0.251525728970942
0.229987996293107
0.240465140423961
0.249873708357022
0.241651060735518
0.239371335848068
0.254396635136251
0.269886879629836
0.283352311332041
0.271488601309739
0.284666803375535
0.256534922423886
0.265924950900833
0.259447528313265
0.274640121401292
0.272154126591851
0.26672952193486
0.274774090742638
0.281214588094534
0.276893959738952
0.282371183984877
0.283137286992972
0.301850086574429
0.310217183995213
0.307050216597445
0.29845677642001
0.303349346252837
0.313211044944947
0.309458302398128
0.315166457872556
0.362388865368202
0.365781834933441
0.358910506238631
0.338758104362271
0.331371934255609
0.339065730387617
0.323774953618528
0.327560224416457
0.351976157682636
0.354379186110638
0.350139337686593
0.35416473923663
0.367942562489755
0.362863485727885
0.367052836268931
0.375828443740576
0.379249590006831
0.391020438007739
0.383507620172538
0.394431424866079
0.385346892797497
0.386025776007048
0.410624201252867
0.414358159977331
0.410548411957541
0.41744038078379
0.412839007889266
0.413748937987374
0.406469400742625
0.425474096879952
0.424628497512411
0.42884638989662
0.428954706954816
0.417101843399526
0.453574161152334
0.45831825561349
0.4556681674798
0.468609583935218
0.448309333595096
0.455731236464352
0.46275125454839
0.467838915759923
0.473659786198688
0.484761456870808
0.4837573341565
0.488139304137801
0.477394221585948
0.503554020599977
0.523860518768232
0.5201532672197
0.500424375973753
0.492567825871311
0.510075535154969
0.506163553755861
0.521517282097579
0.537237751713376
0.526233315866476
0.527637532871793
0.547401749218999
0.550677102565231
0.542418520813754
0.548924223847808
0.555869935546871
0.549546378278386
0.575410245121149
0.589580267761522
0.553334723801072
0.580281979957989
0.585777349387264
0.591889627298812
0.6038007404966
0.610945016194902
0.603950585648007
0.614258740941548
0.602760973842657
0.615132321708044
0.608826703983343
0.610532031521065
0.62295059708921
0.634495542963994
0.602308504072882
0.656266199783058
0.655244376935004
0.652056029336827
0.674730371125151
0.686114275075725
0.660727324124012
0.658458991686489
0.688022306432958
0.696168131727315
0.670460729876949
0.677986520462524
0.69868528285045
0.701008351386952
0.68799642748123
0.706956100829569
0.696340520292751
0.71462094741345
0.700547268261772
0.730761348025635
0.709402481161743
0.731385824585086
0.763807182302044
0.701446854084328
0.70943408215063
0.746656391523614
0.754200217060692
0.749893364076074
0.732505822434763
0.750495099534563
0.747028748583243
0.794004770523954
0.788122066710132
0.796623941979593
0.771702587420443
0.783466483357819
0.797804953562281
0.824609019894616
0.794944839971571
0.814214697352644
0.828592170867211
0.846189941770963
0.799627471239029
0.839328528233469
0.785965063795437
0.816686002258592
0.816542468859819
0.831673522745225
0.867324305569511
0.883293419792216
0.82595965506045
0.850998544147732
0.841136387060807
0.876856258959827
0.869860619722252
0.901141709821179
0.881961692508828
0.874228283447425
0.88203813602606
0.863918942842551
0.833625812886583
0.891940824516021
0.85171400714185
0.922552453590028
0.93812180544264
0.93388513281779
0.917160632573093
0.953336256777573
0.929929023768848
0.97698522937276
0.926051768502341
0.956827381311484
0.949404805258254
0.977174929912834
0.917130181511853
1.01220176900222
0.973965072532626
1.02209049003073
0.933919784168859
0.953061277869998
0.941467246893735
0.975198876619348
0.988021333089228
0.981761062064402
0.962830792271194
0.987727784347259
1.00405879868561
0.984735499803191
0.922870609217926
1.01422741362455
0.994467120642687
1.00848772231272
1.00404256690873
1.02897522031468
1.02828936840662
1.02884109244517
0.96073094790711
1.0135818443146
0.971469223505263
1.03459647581552
1.00401560306499
1.11437640842119
1.0159764650554
1.08923158929485
1.05907107094157
1.04491828542314
1.04053859102344
1.02500192221525
0.992204359648415
1.08194891116342
1.09271416559563
1.14105007731352
1.08328720854442
1.14798319945524
1.02393983446116
1.08109824891849
1.06056611141563
1.13936361169028
1.04607249585411
1.12882457903917
1.09613162744544
1.16982601778143
1.06443221717167
1.15567842414048
1.0450619011072
1.07854994924555
1.04674824345342
1.10443605564814
1.07756421690609
1.14411663860154
1.05717387325767
1.10806884500875
1.07826265350589
1.15362789228131
1.1323080037952
1.08810621792139
1.15654063233023
1.23651277989223
1.12537064861309
1.21561097851268
1.1418188768213
1.16388152263645
1.09849750475197
1.25415853483795
1.11823560573012
1.25223233121836
1.15619397712437
1.13361581516502
1.15494562763884
1.16600037509247
1.11094822294628
1.1831858943788
1.11213782121217
1.15411234284444
1.14335045287853
1.18229107690396
1.14527496010856
1.2056094226708
1.18739811858488
1.19350776542698
1.11839820859104
1.15180599930145
1.1326898770275
1.21504975725912
1.19448794675288
1.16656453850735
1.17882574172223
1.20263122981365
1.20911043622362
1.22968341760849
1.14504352947763
1.16704183530398
1.20447526165733
1.18232303931302
1.18070225674879
1.22768230041307
1.12266187937259
1.18686000207784
1.15112540368082
1.15741709132542
1.1480663666541
1.22587877826574
1.12238414406193
1.2235501436433
1.1378862591222
1.22782504490584
1.15242024401482
1.23725224921816
1.15459327617828
1.16299201747281
1.14990083221949
1.20387262203729
1.15856206609528
1.19479552988515
1.13578183580877
1.18357506701384
1.12993007218628
1.1789219252417
1.11203809670015
1.22229996893434
1.18484351781404
1.2492758208411
1.18651039410896
1.17215591860961
1.17189764635709
1.16428191564056
1.13523350993367
1.20330499687704
1.12841021366791
1.23349385492882
1.16232689981296
1.20810769770796
1.22704980149969
1.18571323553926
1.14461944355291
1.20370103417575
1.13651790916152
1.20815180937517
1.20674270369533
1.27100455138635
1.13561691980156
1.22851200459226
1.18294545041248
1.21139130472636
1.10328520294587
1.17830002414105
1.16034701853378
1.17253029717525
1.11423417800248
1.14343732435321
1.18889808605366
1.18725423281621
1.16805303683983
1.14153438198333
1.04647017824647
1.17262410032953
1.17051825972151
1.21668392190183
1.19107790689283
1.22067414493335
1.13387410915154
1.1743580873941
1.12149754481859
1.1795424443414
1.18186029176981
1.18583367252439
1.15097562992637
1.16412298064902
1.13866790960437
1.16161614201177
1.14303692218277
1.19160041076095
1.11675316459319
1.16369971083857
1.07959673412421
1.17141050422013
1.10002413130192
1.16891630058782
1.10040177506882
1.16799087414345
1.07928969214582
1.19177266800052
1.07865038131376
1.10008546381722
1.08367701973245
1.08526652826303
1.10859390901967
1.1056096735416
1.05976915936088
1.13676315079945
1.11296782035955
1.12023876117492
1.06809507844539
1.10377499182931
1.05716692396911
1.07052831397215
1.08141400499257
1.06109283809483
1.06133059873624
1.10453940200397
1.08256366331914
1.11461135591106
1.08792327381172
1.08229933279482
1.06399698581934
1.09250370294086
1.0708382612821
1.05051011018989
1.02931675015026
1.07018999186903
1.03244684114021
1.07451346738994
1.04714110043886
1.07296381674825
1.01848918114264
0.991347349519211
1.03900004120847
1.04442337861019
0.995380708356124
1.07894095441074
1.04022173131699
1.08253693515167
1.03073763457911
1.05333078445526
1.01189129375964
0.99530459622848
0.99721382746099
1.03317740072942
0.980061855508461
1.02172132647942
0.948477086025334
1.00949175420117
0.999190529526459
0.991819714826452
0.972278095843461
0.990416298704676
0.946719218129178
0.984795865959824
0.964619719886707
0.98323863695408
0.963801822460794
0.935241351721673
0.928505420823366
0.956098140572129
0.936922213844327
0.984096983015477
0.927360554120114
0.978884015106755
0.920317784218663
0.947281710775116
0.927534966726181
0.937957049123213
0.905536308562749
0.924349084606975
0.886630588130019
0.91536734770665
0.916375395066045
0.929936250365847
0.904121014777932
0.896083222294325
0.863657101882728
0.886744593909913
0.882963749438434
0.896982491574403
0.891564790232061
0.892109343558895
0.851126250253011
0.859405908119043
0.868822057438984
0.875632021328225
0.855792041582773
0.853003835054471
0.834802072969145
0.843800712699394
0.826250073355442
0.84289352754783
0.831888612464416
0.854482991805899
0.818966397780951
0.848551213105688
0.825121613793983
0.838003149624852
0.815228502896337
0.814946796790368
0.801607061305925
0.805142060734693
0.788993015014229
0.814980153391578
0.786601621597339
0.818912531916596
0.790070868564614
0.795323362350196
0.784605678484338
0.782088623488572
0.786795014466173
0.790745884761585
0.758514748729208
0.766644472281959
0.742242129668174
0.74211221523142
0.738627976042124
0.738641245981477
0.727042442658643
0.737042934569581
0.725465142696786
0.744124273106768
0.720093122515823
0.732753911638866
0.720384397781773
0.722860542754099
0.715489142501466
0.72612652850798
0.70758540374755
0.700322835671872
0.699623100764014
0.707852275339434
0.704560949510915
0.690506008864353
0.694889498720918
0.688005498677688
0.681491728672809
0.679937378517981
0.672507165907823
0.685866268228454
0.673600427554418
0.686125537833446
0.665918446765606
0.657310402762243
0.659707073212881
0.666980532848441
0.655977987798683
0.630824950132688
0.636030117225642
0.651297855674916
0.642172085906797
0.652458714319404
0.629861997982116
0.63034161937941
0.62510160981945
0.626210303536627
0.615159435629715
0.621513216440294
0.611529409140999
0.602380325675285
0.614943582117206
0.615656229747169
0.601137040902031
0.599973543525983
0.593184614822779
0.599052753060869
0.587299357900286
0.588758004515765
0.570515498315512
0.57450402730095
0.580603032197475
0.580129976590951
0.564681667053193
0.579716972412481
0.564091908859377
0.572061927919678
0.563992878244857
0.552192148610793
0.552915355900421
0.558467108441342
0.571749568385287
0.558517786674377
0.54790759734559
0.556424479961503
0.535358381158406
0.543102898930217
0.542305321322805
0.541394540195806
0.535765629942201
0.533819239697077
0.530581344852717
0.540606488126776
0.517757024356978
0.527704241128405
0.519368997181927
0.521008852165885
0.516974059983207
0.513282703762357
0.505173132153907
0.516867293154691
0.507054008393259
0.50878849441702
0.492907875549642
0.494595305182152
0.491614644768886
0.503268520270281
0.484570997300776
0.489186770773333
0.49139242410148
0.490252915174669
0.481260976727431
0.491100927719449
0.470495679093529
0.486841369052897
0.466454884407007
0.480043965662297
0.463867577217227
0.470502792708517
0.469853706288051
0.457844318542721
0.466584824447898
0.463251439759966
0.449097846244066
0.460361946523892
0.458565951080348
0.444179526288908
0.438533360183102
0.447674854279526
0.444739255909291
0.439417913735728
0.432655998743258
0.442764169746379
0.441352130953145
0.432197480914581
0.430602982125117
0.430303086196124
0.42359072440529
0.429587901289791
0.413057815232156
0.422184932799013
0.417838999865747
0.421071219663974
0.417681390833617
0.408512844939949
0.408881764692425
0.415376238252951
0.41154207722248
0.408909971649794
0.410645905427634
0.408381482831433
0.402857232023055
0.40108959148608
0.395622541032977
0.396537366549428
0.396164427618038
0.393446819823777
0.393198431382965
0.39668855558646
0.3943625877168
0.394663566901218
0.385121341997003
0.388581643699415
0.376178432357869
0.389848403542986
0.385315965063109
0.376751273267615
0.373902043464029
0.386398377546976
0.387164535619048
0.385848874569176
0.375504230848795
0.379810888492088
0.376087811145385
0.383505504604108
0.377361732811223
0.379390915185093
0.383819520552881
0.38567870667713
0.380314906664939
0.386337917012182
0.382389256461116
0.382786902201081
0.381640794775351
0.38151527944531
0.385200862666675
0.383981506861744
0.382373909966269
0.382625009014857
0.384533636904013
0.392849712251865
0.385703076759751
0.393107273616739
0.395380488257069
0.392669916265279
0.396756131934853
0.398890276929236
0.399178408308216
0.404275069425868
0.406683241085185
0.398388807391399
0.406988419669693
0.401833035869958
0.398565894388213
0.405132535807745
0.411354389528258
0.405867656269853
0.40264142607985
0.416889072560135
0.418664732781521
0.413994432933365
0.416102338319924
0.412737092715183
0.421055790458388
0.427870845546732
0.418222694339425
0.428462370604613
0.432392281505714
0.43050444721323
0.429658950902554
0.447101093799642
0.445641926785422
0.450672908154773
0.44366454128681
0.454339635852596
0.460395919740835
0.461076806316198
0.46460997106175
0.465137735623028
0.463244217115351
0.473542084638005
0.471826747024309
0.475659961105304
0.480333406747105
0.490899356411004
0.482860944479573
0.483116907408897
0.480701107154493
0.492601582353611
0.48953120693625
0.491631027467152
0.49135490568275
0.495749497714064
0.494044401881431
0.50285517433617
0.494525852846429
0.502873838502665
0.494152920272385
0.510069140605254
0.500614435046424
0.507586662786811
0.496056888639938
0.500859713713405
0.488357908452512
0.49633232604001
0.49339831422279
0.496717232886003
0.499215813374634
0.506923277930154
0.498864344542233
0.493126724430275
0.497653074843842
0.502390648484589
0.504138413667924
0.498145120371243
0.497284924346646
0.496572712283717
0.49838946241685
0.4980962908044
0.492708853507486
0.503430621770247
0.499158848263899
0.504276646706726
0.494073977127394
0.499384114397287
0.506776267723889
0.50514195302366
0.509125043874198
0.505850043075077
0.5053989747985
0.506574217026928
0.508238793079169
0.50660201341602
0.504672122443024
0.511345088977333
0.498245426084911
0.508137386165877
0.501348714567538
0.511570175231672
0.511302046639308
0.507394941155156
0.504934273729114
0.504841232367934
0.498298342813874
0.507938849784042
0.50598955324029
0.502698450358259
0.497884559995592
0.509096338875954
0.491154572055889
0.51051643406058
0.495591794029707
0.482304118507584
0.494741141330038
0.489748741215832
0.483239667447167
0.490040420385978
0.481054583969269
0.482777974326975
0.47849940781874
0.474723837727296
0.467975726910806
0.465100504365895
0.462343529007254
0.455332190640232
0.461405259982735
0.46003881585153
0.450442827647267
0.456773468646609
0.444833822976151
0.446133574555869
0.431431403520064
0.430919724317906
0.429749899743875
0.433286702357141
0.423656333664194
0.426953401171624
0.416627604833669
0.41136954871249
0.410268873142601
0.41001338286173
0.411434269697557
0.410847898129216
0.399375513217356
0.407428530172229
0.398906972710506
0.394747599526846
0.385277058356881
0.396496455304874
0.390775064055061
0.391201904966747
0.387747736921352
0.386211799720822
0.38363834712061
0.381506070381714
0.377644140795756
0.376408018092774
0.372381254417385
0.378587027361942
0.365416073600807
0.371501298905553
0.365667696234529
0.365926007008087
0.360690186539273
0.365485130354474
0.358614195980846
0.353124080557056
0.35881448889667
0.353979890068883
0.353132807994948
0.354368361631581
0.350657687946228
0.349150230822084
0.346045918206514
0.339434722738408
0.345443409186472
0.343502003048019
0.339395398143683
0.333352177419851
0.333089531277748
0.342221069588709
0.330897384867878
0.332967746456813
0.333688673711091
0.32867621248701
0.329036718766769
0.334294171922189
0.328203212385589
0.327806907040522
0.323863192284071
0.318989340432896
0.322617382341474
0.317663575340653
0.320904264698161
0.31341495290777
0.31167442898252
0.317738950957671
0.312090508815237
0.312811609378409
0.309668049377177
0.310402514701352
0.309633879685056
0.307001331763843
0.308164909775277
0.307893727175719
0.308082594141912
0.305561592265019
0.303774599842787
0.299289018017203
0.303623715933322
0.302594632417554
0.298849334183838
0.303710260766564
0.300359101342132
0.300873571011046
0.296882203137203
0.299667452130648
0.297467858391685
0.292713789154328
0.295679810174588
0.293727856504483
0.292078036836205
0.290780420789893
0.289814500758353
0.290324977370614
0.292545317318296
0.287196643390337
0.282794481674858
0.284397301373855
0.284361143093462
0.281273934482084
0.278744956112316
0.280965200083222
0.279835018904536
0.278615306823981
0.280257282440325
0.280996892400553
0.277726948736786
0.274830896370386
0.277940884086913
0.273045664298471
0.272648142696734
0.274537106801041
0.273190042947414
0.275241259549084
0.277079368880791
0.277265820901057
0.273228247518833
0.27067158385146
0.267201609229135
0.268708955543728
0.265767028244311
0.266933068351703
0.270143662155801
0.270850101427812
0.271238134206047
0.269088676055514
0.265160228419523
0.268669080385411
0.267217159520463
0.264585595332474
0.259686510620924
0.267847843285786
0.265867943969043
0.260692611254712
0.266310212059659
0.261439741974321
0.264040468432561
0.264879016343252
0.263128000801568
0.26520728485981
0.262039763751101
0.261263772359585
0.262251376809167
0.25975811483079
0.262676695345687
0.259161199081731
0.252707185064603
0.258166310553721
0.257035522166684
0.262206434299023
0.259437788838861
0.254059593405611
0.254655984834457
0.255958801899144
0.252434259074995
0.249679591722347
0.253943442583875
0.252872720018507
0.251825231266812
0.249180171121981
0.244951399603801
0.251594952106649
0.249408296877403
0.250974259638495
0.24854560946597
0.245384636590278
0.249556761149384
0.245630468908886
0.247488672008117
0.247817656825021
0.241667388055151
0.244352889317202
0.245116827154549
0.239612119836888
0.240863100518922
0.238027441991513
0.23892750542126
0.238864165455099
0.239734797978851
0.234315068672616
0.239191105981318
0.237099264559968
0.233867175065684
0.232291337698837
0.235564775854504
0.231253129474328
0.231235196600127
0.232251304899759
0.232438163036718
0.230548453261935
0.22757492898586
0.228373249412532
0.228536536477001
0.230367182582733
0.22436859228766
0.225878858750309
0.223571456243396
0.224409261430333
0.224246635777122
0.219983021275318
0.219923825197343
0.220300912706119
0.218781311644707
0.21829713628075
0.2216791429894
0.218835528050798
0.218499335258773
0.217118060513637
0.220236981625452
0.212274882431877
0.213870193978305
0.213472556161177
0.212350519298976
0.211840160292077
0.2153171070627
0.212855358610924
0.207879147969285
0.206412471777528
0.207021634667346
0.20794439619843
0.207797048855241
0.203785380908818
0.204289588947235
0.201661696014369
0.202149847860816
0.199671353849572
0.202145961097784
0.199284894583548
0.200825735469387
0.194160208307885
0.193802432065163
0.195051515721859
0.198011387478449
0.193063421064201
0.194227527489255
0.193172614919525
0.192037692941632
0.190403409971356
0.192047052642936
0.188741137657937
0.185123380956401
0.188028811863061
0.186681090395586
0.185100363230672
0.188130385837985
0.185403049337514
0.182196214368009
0.181814041137304
0.183995089489353
0.179028287787135
0.183424286095872
0.180741575802955
0.179912091615475
0.177317811062338
0.176681898739477
0.179416958280335
0.180285400041457
0.174979523979638
0.176353347575172
0.172761703248828
0.174645484863461
0.170756811120717
0.174371093136423
0.169207255742527
0.174609485539833
0.17285666998314
0.172761760010138
0.169109208002559
0.168335407297885
0.165498494275206
0.170657045420933
0.168308001551001
0.167920597494832
0.166779778092546
0.166457378504851
0.166916351022933
0.166186926315746
0.160599285354674
0.1640631498757
0.164237474924036
0.164583507352193
0.164529524423633
0.160191711911846
0.155898942830557
0.156169226275323
0.15771936038385
0.16120436192303
0.158669475351328
0.157630306794088
0.153846459704039
0.155381648598642
0.154342772611191
0.155098705568877
0.153256565200266
0.156162898490657
0.152912748365247
0.152829019254711
0.152901915436003
0.155861539649409
0.152357714244537
0.152626420094409
0.147820671154595
0.152821957115652
0.151563028064205
0.152911429501645
0.151795675416281
0.152305749643379
0.151844533915026
0.153984840491549
0.146335319838597
0.153607132762597
0.148155376745291
0.150093747248123
0.145477982478126
0.147660353048697
0.14824836038176
0.146821642363184
0.146608349936279
0.14731153010167
0.144394961842497
0.145372868204047
0.144748959364586
0.144760211741757
0.14182661456462
0.142037346871549
0.142137866069175
0.144837443059027
0.143742329751776
0.145696629185658
0.145399237689333
0.145146076401045
0.143941327015783
0.142521380652464
0.143023973878985
0.140899391579476
0.139201513118655
0.142139647932961
0.140592052273812
0.140835596148951
0.136515186222157
0.141024672300762
0.139491072179039
0.140063209885602
0.137336100745734
0.137416713794705
0.139530156781674
0.137104850915001
0.13647848465582
0.13782864115637
0.136487278851126
0.134739221570914
0.134425017414025
0.133359320227301
0.13204300770867
0.137669244547304
0.129532424823706
0.130448302239994
0.131775625784968
0.132814362559915
0.131411221436923
0.135523508409597
0.131715172368753
0.131305944404129
0.129909853522829
0.130951632841587
0.129867767280403
0.132435829114919
0.130051946622716
0.131909953839061
0.128432834052545
0.129389717628335
0.127118988500229
0.130641199414802
0.127978831178744
0.128762903610569
0.128590026202241
0.128820745060588
0.124546672000119
0.128870853769
0.127377795541043
0.128836607198867
0.127138844791925
0.125069652074423
0.124172483137071
0.124440119245747
0.124693425370778
0.124889637308589
0.125311245642765
0.126478871704206
0.123119003749515
0.124276167456503
0.121985422409439
0.125275145516156
0.119609949177931
0.122651873968467
0.123258954931498
0.122090487888394
0.119578153161965
0.120980147446434
0.11963468842318
0.121403291214517
0.117617046813863
0.115816337141745
0.115291895001133
0.11815600610445
0.114986654582349
0.120260023565675
0.116027179172209
0.114876688143258
0.113938234198323
0.115989926103807
0.111365161734558
0.114824372472389
0.112443527823959
0.113498245122004
0.112121920646721
0.113585170170676
0.111288748242807
0.110407745668162
0.110194125505089
0.111699827332659
0.106909114374989
0.110141080636302
0.107137095580821
0.109178280737924
0.105566228984834
0.107758347983087
0.108037818677349
0.107441970179607
0.103623446766045
0.11070105965379
0.102914347271111
0.106733791171522
0.105790529045931
0.108655381155852
0.103035970034428
0.103883031066289
0.105695614237341
0.103712218464239
0.101888625101806
0.102384919493389
0.0988403807451927
0.103224570359962
0.10091632544074
0.102264355007473
0.100413039824938
0.102111288525489
0.0987654680487995
0.102303189350783
0.100100282698258
0.101526902742569
0.0984962175259442
0.10038890825702
0.096009291404232
0.0967290968025653
0.0982933991993257
0.0958963599311512
0.0941012910650216
0.0995996962514575
0.09640561686015
0.0981246908091602
0.0934056819698334
0.0949761895919288
0.093416600150601
0.095280356498587
0.0944666731481227
0.0959641549464718
0.0943780178155028
0.0950312748887045
0.0913911672576679
0.0925361524608155
0.0906760828766537
0.0922264378852032
0.0899483086620851
0.0918598374772169
0.0889320493228825
0.09300768656146
0.0899177368429499
0.09053789132579
0.0917225470689875
0.0916958191915158
0.0868964201744472
0.0898073132568397
0.0880616816412235
0.0882699858796306
0.0864145611609982
0.088766493064187
0.0855408010900993
0.0875112532286396
0.0874063762551757
0.0900734636904341
0.0859154441105287
0.085696197167977
0.0845682383960787
0.0852414993874728
0.0824127556213194
0.0851500615778154
0.0838262712195143
0.084809172234904
0.0837778186415852
0.0834687645728678
0.080750942480485
0.0856184504881354
0.083907569401355
0.0865550219837142
0.0859030140948971
0.0845031906602111
0.0833457783585693
0.0873737909778582
0.0818919648572434
0.0847820521770427
0.0833084944099576
0.0843930229709637
0.0831725206779051
0.0851259333641643
0.0806296003977312
0.0871292880961676
0.0816415158799666
0.0829704214095565
0.0791783453144902
0.080524722131259
0.0772834133531176
0.0771554210477267
0.0694793074049629
0.0737996246138633
0.0723301268405507
0.0727600234575153
0.0694573206261553
0.0733781816675242
0.0695707019460878
0.0744468288696922
0.06684997908698
0.0741887113105545
0.0655354993182546
0.0692175127162234
0.0658571362571639
0.0689899779495111
0.0666760904250044
0.0749276382157908
0.0696869689527728
0.0725962558615513
0.0688359267363644
0.0787355745909359
0.0741968052371866
0.0809516951509013
0.0713898271303475
0.0765772566844552
0.06934212070417
0.0729451762765963
0.0716356028798522
0.0700557152725325
0.0761103961238038
0.0663016108726611
0.0704780766089303
0.0685132901204482
0.0745440692035568
0.069787969505533
0.0731208121390921
0.0622306162250906
0.0718186249989979
0.0598237767447055
0.0783652449701875
0.0587372658803452
0.0857247106736219
0.0598189661837077
0.0881085689470641
0.0474774290144067
0.0871307353564844
0.0486179745400055
0.099277315751263
0.0460312119279716
0.098206255883918
0.041867172544956
0.108020123067264
0.0415764134670597
0.103878955149858
0.0452937950724776
0.105297667282255
0.0501412452650775
0.0951592651639587
0.0600349642817348
0.0841482357800642
0.0680442878847523
0.0781202218312357
0.0794718211549939
0.0676469015352181
0.0831772862903142
0.0669308562993229
0.084597489845126
0.0641240656972165
0.0836267944899454
0.0667805541127967
0.0782717905043586
0.0762247298239919
0.0712209862707049
0.0757555333398286
0.0703047794219215
0.0753889961955016
0.0725317912993518
0.0715203034051485
0.0726548769028436
0.0716600343134393
0.0738358058929339
0.0696715160458384
0.0735209340897718
0.0692649104395905
0.0735984146573598
0.0719203874408584
0.0725213028071404
0.0712835587493308
0.0735903802395559
0.0706679031354247
0.0725610035948668
0.0703889106781943
0.0729576820924985
0.07059536015214
0.0722009574254453
0.0714930599394681
0.0729794121513294
0.0723728730916186
0.0720146079919526
0.0696819619325959
0.0710347501128413
0.0693803518158552
0.0734431593516274
0.0709568171565338
0.0714787996310554
0.0695532966571156
0.0721476747061483
0.071958871354191
0.0764283241029482
0.0695323447570134
0.0712977544872589
0.0708354623369727
0.0716599738924392
0.0709931137731608
0.0698523806511569
0.0698789634348976
0.0737055594557238
0.0700472126662674
0.0739189674494915
0.0713081721342866
0.0721206375654519
0.0702559931928687
0.0732640609013084
0.0693033813908182
0.0718037788933368
0.0701655984385365
0.0727506491200116
0.0701353517490232
0.0742433310405731
0.0691776967949666
0.0710780180598552
0.0673768703213353
0.0730103508236282
0.0677519022757736
0.0719515274337411
0.0714356836954042
0.071977846258184
0.0691341915284683
0.0718935911282589
0.0683325106820276
0.0730458891073252
0.0685295629281776
0.0723241604114801
0.0699431893598383
0.0697599170811548
0.0709567180262887
0.0709678430541208
0.0699665228817525
0.073016874169867
0.0700338335573989
0.0719936012405194
0.0678759467596114
0.0726408933424451
0.0711609994406336
0.0719983654159696
0.0715079332354762
0.073985502214128
0.0704783168015722
0.0744913740244651
0.0717401984867124
0.0761256986194294
0.0726037964958968
0.0743254404586974
0.0710014380823118
0.0730076614321046
0.0714051314749934
0.0720147215110384
0.072681125716826
0.0743253184372079
0.0733759955544537
0.0748480357968595
0.0719526040368059
0.0756378572685252
0.0731873519435644
0.0753909562031165
0.0717092733722941
0.0751750865134785
0.0732738293699537
0.072650956005025
0.0712110562747241
0.0753452130465253
0.0730165095798228
0.0757890303568755
0.0732114402762389
0.0773082194186329
0.0740432426570059
0.0751513930945267
0.0737907034961035
0.0756992668876097
0.0738675334008633
0.075814628601256
0.071748479504731
0.0765920783302206
0.0744622155213968
0.0755928825842217
0.0719825285317188
0.075210627424653
0.0734959375745425
0.0761853550307237
0.0716746112677508
0.0759429626232185
0.0724161179890275
0.0766883231092867
0.0731395738298937
0.0773133609726107
0.0739983054414074
0.0749926695657585
0.0747513856434975
0.0767987315021717
0.0753309730792019
0.0753104690744511
0.0716269432604583
0.0763574474334138
0.0747230294745136
0.077591584122394
0.0753820703359225
0.0754525281460327
0.0746360551402924
0.079519564336051
0.0759202292235845
0.0768750343959375
0.075050648703806
0.0788772344501283
0.0782385789187486
0.0790240533872583
0.0757078197508881
0.0793642240461391
0.0751930756979316
0.0806810800152221
0.0766745814229312
0.0791535313177063
0.0789788375978325
0.0775721562145997
0.0759182620990071
0.0790553646411804
0.0766053760131881
0.0802126693145166
0.075274735202707
0.078614992119097
0.0746681184441588
0.0798652092279804
0.0770201621574964
0.0777527864387993
0.0779054245729152
0.0801589401530302
0.0749593535129455
0.0769069588034966
0.0759058989198682
0.0785615876644042
0.0747154742581904
0.0773966224185925
0.0770525067981389
0.0766430067259103
0.0754598819631577
0.0778166552985722
0.0741758303434748
0.0743938842052119
0.0753430837911504
0.0770108436325453
0.0727252626804677
0.0749405722456347
0.0729100765993788
0.0761059546949415
0.0729937553139406
0.0772920051472739
0.0729787513110291
0.0768974002748115
0.0738025095995966
0.0752430590303543
0.0743804454831649
0.0750142722935093
0.0727923491027192
0.0741467531258289
0.0734736190096239
0.0770739237967183
0.0708492503034494
0.0756170606293629
0.0739105567999154
0.0754497639363133
0.0723782182940503
0.074710519328371
0.0723134733878632
0.0743917524561582
0.0710398429762066
0.0728544308900455
0.0707933113613578
0.0713661791894354
0.0713787660033387
0.0730549780639223
0.0705352769941692
0.0741937848986606
0.0718792195037001
0.0748768189423609
0.072435112966981
0.0741781840884057
0.0706548320613112
0.0758115479830855
0.0719802037457899
0.0711972596599191
0.0718567729025937
0.0751788093061075
0.0716887777905104
0.07353053499605
0.0698912361047876
0.0728436476157013
0.070128535812985
0.0720319221628094
0.0697685205279926
0.0740581411472767
0.0710247564276603
0.0723227917883063
0.0696926897858674
0.0749520755493443
0.0707149901786952
0.0722666210217954
0.0703288436636353
0.071588408324428
0.0695704641640146
0.0733865857033444
0.0701600938993708
0.0751067128078119
0.0698712648905502
0.0717723592869392
0.0702073020710646
0.0710605973936484
0.0685561110177687
0.0742275832150491
0.0724449912870608
0.0729903952120477
0.0688417797525047
0.0725472752341171
0.0706506922132547
0.0725974902318589
0.0700103808271854
0.0713592721109316
0.0676363635280864
0.0722343998686888
0.0695027398460277
0.0735180751520615
0.0693209622183288
0.0698032533931811
0.0690924385023583
0.0729193124328189
0.068893251956967
0.0708647167157223
0.0689735368367502
0.0699020407534056
0.0672268483960561
0.0692995751797736
0.0691050679705801
0.0699343183993161
0.0675188824668153
0.0734393024834592
0.0694437260905543
0.0712934993994772
0.0686253520180186
0.0726654661736338
0.0679949778789817
0.0696899148346543
0.0695664182089838
0.0712257794621845
0.0654111458117072
0.0676415340663448
0.0653064327712579
0.0693076059403799
0.0651089417138697
0.0703684198909895
0.067050170081925
0.0689792885212414
0.0645690751939569
0.0680273240365771
0.0658894142562836
0.0677198606882882
0.0644657725814603
0.0658027312009986
0.0643252204113052
0.0682478259921079
0.065771087649364
0.0706764894083044
0.0669418517990036
0.0709458179258353
0.0628909116789339
0.0655886544387398
0.0608064469417442
0.0663366867301031
0.0651968799137317
0.0660881679390569
0.0629904619291655
0.0649196487206945
0.0600445676553472
0.064108136098068
0.0602800836718496
0.0618368055370224
0.0596198180191096
0.0652219557791577
0.0579836628768798
0.0648474353925779
0.062888193487121
0.0652783825765182
0.0596724080230838
0.0633133785854558
0.0601553628292758
0.0633308798523856
0.057269699100751
0.0651716208098595
0.0659352574310339
0.0707648255181121
0.0614568884996101
0.0638268520491814
0.0650593285309656
0.0643542053584774
0.0627180196238356
0.0604542959567426
0.0609012668926115
0.0626104694079021
0.0608830356842195
0.0623481234098439
0.0595384943249058
0.0609205994260614
0.0574922643305326
0.0617640590056413
0.058065171877647
0.0634647001087692
0.0586117610200405
0.0602151693757428
0.0589445808730834
0.0612218639049409
0.0589094001581506
0.0617738971341713
0.0591096458411881
0.0592438264235741
0.0586271535042889
0.0662862269253599
0.0647307001863945
0.0610151321379949
0.0580514883054711
0.059534756862924
0.0584758498722477
0.0591978738943698
0.0576504368510797
0.0580582226564281
0.0569731569342332
0.0583871669203245
0.0582745772626488
0.060506158740359
0.0559158909859821
0.0623719996205356
0.0560873800927431
0.0590488968827927
0.0576236481425866
0.0585393444725325
0.0576741782794442
0.0590765809003364
0.056095198983424
0.0590347316797807
0.0582059625721298
0.0622550511379633
0.052707799444627
0.0661677526504216
0.0700005399036783
0.0657287746826309
0.0554690501046791
0.0596364732907145
0.0546127161156128
0.0592393844951584
0.0559699961709234
0.0569320878799124
0.0530481051249684
0.0566342996520043
0.0569657942344866
0.056483705350202
0.054385465375893
0.0587142566108081
0.0534586065803381
0.05855133245481
0.0556774540675391
0.0587210690501253
0.0522635187531151
0.0554314471515736
0.0595926575250431
0.0691061870579129
0.0599991964982509
0.0621186925321229
0.0528604475321473
0.0593510510478967
0.0667524556856083
0.066754016214676
0.0532286988277425
0.0598142717882177
0.0543407732549565
0.0586097678125565
0.0544060592498631
0.0563032724840835
0.0583194858564417
0.0640056659128463
0.0589528232487795
0.0615055162189913
0.0544028983623268
0.0571476116383661
0.0526290336181854
0.0577128313484861
0.0546410084814155
0.0566382687289459
0.0520209126346396
0.0562817362191151
0.052322706529397
0.059654593245327
0.0544531246969604
0.0580530563267105
0.0571851276358619
0.0627528826830123
0.0560823484401427
0.0561855929668627
0.053568957522147
0.054835760516298
0.0605265965099927
0.0686829060892516
0.0582072442862008
0.0547671973814585
0.0545004988726843
0.0568281115300022
0.0557511037445191
0.0552470361504444
0.0530308093406101
0.0555294550419506
0.0541021891937227
0.0577401008168387
0.0557496838652784
0.0570320572823863
0.0546987335527254
0.0556225734984744
0.053163857512395
0.0570187478461409
0.0545334533138174
0.0573536006233872
0.0526407642580535
0.0606267327803
0.068709274976077
0.0817785759275663
0.0678490375497485
0.0673327723051008
0.0602339665658313
0.0566830943758825
0.0544704512701676
0.0544318476148272
0.054634776450263
0.0578284202499015
0.0569304705397664
0.054759285591516
0.0544519571765746
0.0548363092807316
0.0544087352864795
0.0568018213170333
0.0529310246579816
0.056146981407272
0.0548979113689039
0.0543516364776389
0.0550546306071105
0.055414731021957
0.0539171113195582
0.063504103701118
0.0646373995600106
0.057822321968009
0.0593032387987507
0.0789320615096941
0.0788671523024527
0.067219716124144
0.0580439648923847
0.0575516353485096
0.0520209159449754
0.0566190944925704
0.0566715591309962
0.0631078582613426
0.0584066613027466
0.0588030980647945
0.0558615248666688
0.0592360675721428
0.0573175199939355
0.0564877795742259
0.0643868912924599
0.0819340469296516
0.0670821945527739
0.06389072857835
0.0537792855770999
0.0701588938857517
0.0747421063536415
0.0675796860900507
0.0572526147153466
0.0625754453005287
0.0541372820684882
0.0595084282330507
0.0543108729624464
0.0627546537381961
0.0604403930010552
0.0596103447023297
0.0575613524117702
0.0565188477683454
0.0555107908703016
0.0615852348163084
0.0604976355470002
0.0723460212762231
0.0661468890718383
0.0611250643863015
0.0607209934693117
0.0642046355388955
0.0585663164465434
0.0619251501429787
0.0562012535896529
0.060773958728239
0.0705676603057253
0.0748644707658822
0.0649632603606975
0.0749171295161888
0.0688726076143881
0.0639361752621697
0.0612668711954205
0.0729096308930277
0.0654060008607426
0.0592917632292793
0.073458780657118
0.0844797492453955
0.0812276884374992
0.0771702731182543
0.0691493788796398
0.0625016596179369
0.0641288585036806
0.0590015127464349
0.0645257073920418
0.0749506293884788
0.0660519796587856
0.0633663415092602
0.060815045935182
0.077146980825284
0.0753063396943252
0.0688315011576672
0.0671890611756677
0.0660846736875728
0.067145093095561
0.078908030931157
0.0660642886641215
0.0685308563994961
0.0829770342037318
0.104897684547676
0.0885735967730677
0.0745690759661573
0.0707752034745651
0.0984978169115885
0.0756888242523079
0.0693475870068833
0.0675691837749085
0.0721596499237592
0.0633949440181828
0.0753540749830603
0.0937285431617143
0.0782695446517269
0.0677077435744271
0.0736149572444243
0.068909119784394
0.0894638512070914
0.0806616080406956
0.074115865317283
0.072152544697671
0.0741613480814386
0.0729044133354024
0.114176305766366
0.0919542811163171
0.0950384532660322
0.0966388551150697
0.0992985183256397
0.0870377369127662
0.0881153207855024
0.0781422917176855
0.0988462777962842
0.0966506561233123
0.0854423141958023
0.0738374661171118
0.104706514727845
0.100864409548786
0.0932889620830483
0.0865179683549309
0.0883154123518635
0.0863669063729156
0.129176162477179
0.146391555318762
0.123953327678415
0.0966205009829312
0.102028673288619
0.118054210240112
0.103753743642184
0.0942468289659318
0.0966325510264537
0.0964170459758106
0.0978596304142503
0.098791336636335
0.11226024066241
0.102765938587728
0.109911569409794
0.101772692417061
0.111591277219541
0.125474342325972
0.166171817459742
0.142647912399896
0.13027932602372
0.146022484882051
0.14324663487875
0.126446435290053
0.117005109767748
0.112492227282204
0.129427411328467
0.121668841598234
0.12242056139498
0.119178142136249
0.152791024401034
0.135393075882547
0.141766288506865
0.140554089549114
0.139211457154918
0.130365458694253
0.152804930603131
0.24135118957843
0.180692707669145
0.154160058520218
0.160776263507026
0.159555252434711
0.224668466157985
0.169217598386201
0.163138990404153
0.160115557229179
0.169463319917654
0.175892912013166
0.18865828126358
0.18470802850495
0.202359703911309
0.189810082761697
0.196850578273404
0.206233633242164
0.294250789774083
0.25326729616528
0.238194785578961
0.217345052608989
0.241242864193219
0.246067663073
0.237365117215036
0.23734553479249
0.244106542311535
0.255050169526888
0.29443668778512
0.26689041510696
0.262532945081102
0.276248598716473
0.303621964276175
0.276480418643121
0.335327511742893
0.321913482315742
0.308334680416121
0.299400382806609
0.311440305343919
0.309392591409743
0.316284228171431
0.349331108357563
0.351231756845344
0.332617891039758
0.339918064789283
0.337813470663739
0.345186432372749
0.348607530060281
0.361187610922854
0.356619260307441
0.414301489221674
0.389289852646232
0.567122207759095
0.393384793157939
0.376132440525049
0.370576850459451
0.378319564328853
0.407062264264615
0.406926536355669
0.405042868007943
0.410211390400121
0.371634691725555
0.378961147031631
0.375075848011182
0.379868644992291
0.37691369817803
0.387444869899876
0.369542171295074
0.412677904105191
0.39126408789249
0.440120089524934
0.444764335162912
0.396301071320198
0.371159345483186
0.385134344547125
0.376504136338124
0.383057851111184
0.368167282150583
0.391759082495534
0.396985510903985
0.384704609370891
0.368088090576617
0.373884055230753
0.391390632833049
0.399850510414164
0.367969182310675
0.378815014996418
0.354493720557788
0.360868355324363
0.35539418984903
0.388722204859948
0.412483928725866
0.367663661993606
0.353673411056347
0.357955768609679
0.352930077177948
0.354607058776816
0.35370150003758
0.360707268398773
0.352936775829934
0.350895018837746
0.359814229196616
0.351989756341142
0.354164883384327
0.354487920062555
0.35758843683023
0.358491389470057
0.351692456309088
0.357304823208268
0.350267980057354
0.36091396678186
0.349815467939566
0.358959186774792
0.361495701422744
0.365977757244159
0.368277283135184
0.364770306761679
0.355186220707491
0.359031023377482
0.357645490077763
0.36718985558378
0.357250545308714
0.367224352157694
0.35487802327605
0.357378987301039
0.354375516268918
0.354546183907566
0.35685078729168
0.354926308925426
0.348747315136329
0.355708256566231
0.345908037189379
0.353850096993593
0.347298163532486
0.405941219493203
0.367560181338433
0.340719780511992
0.337151315590917
0.339650079207358
0.331107653725071
0.333044875694188
0.364084299853974
0.354105933129644
0.324644131187898
0.320642488082644
0.312925197674657
0.334307464655191
0.318337982911854
0.306036286952164
0.308747249214816
0.299792532251473
0.338254635361772
0.372505453464475
0.362192968257214
0.395216643518705
0.310076661749551
0.294619887972919
0.294550946968093
0.325275865719123
0.282893001521419
0.286182992450734
0.274115511571514
0.332376343582368
0.292951614152108
0.27506659546404
0.27343544504572
0.268955465326565
0.299896879348601
0.304679623469395
0.283805325331757
0.293133505598265
0.299480608682606
0.290587174252411
0.301952355764049
0.337906747761506
0.288605253071772
0.257312705023992
0.250965816445963
0.249351070134622
0.252139270070933
0.299957907382114
0.254381973166361
0.260315608323594
0.23856636506386
0.235020758508634
0.237657876916191
0.264345232557681
0.24135053731042
0.247699760053937
0.264410033537366
0.225206403882716
0.239895015926311
0.251140219435464
0.269313870675782
0.282292302957059
0.2354505244267
0.223469363065937
0.25903536962836
0.264867117828396
0.231795485476721
0.238249071833997
0.206655515943837
0.21795902246763
0.234090743752352
0.216805106299398
0.225583991559991
0.238175631678326
0.237151094881699
0.273422162208845
0.275201034673127
0.269645802750249
0.215153524628034
0.204905458027992
0.20327741529099
0.211369403942667
0.204540481058643
0.199935985224403
0.239505915648064
0.220126256140521
0.204279563093267
0.26260678362508
0.217377707045912
0.213641835532119
0.215553049602428
0.211887412007975
0.223711436113506
0.252772700110371
0.267757559564433
0.245037136063167
0.245503515378914
0.262189681382574
0.234888123905725
0.245810390238284
0.235329384849614
0.249274013731907
0.246625039240212
0.274335116286011
0.255026662218291
0.264974834807628
0.265055657020909
0.275630730355826
0.294566654497934
0.320602610180694
0.278783323762888
0.339530163119356
0.322677629819717
0.375951799448856
0.332388244619153
0.319083525587478
0.321527301629202
0.331968410605815
0.334535586598702
0.339285352911401
0.344573802407547
0.390245880373776
0.345430112459336
0.362620041370873
0.347567738423839
0.371246189397439
0.362604287758692
0.410560735945114
0.397207683437491
0.444027693307189
0.430442341747933
0.40472105139434
0.398322210874856
0.383154144561811
0.401566967020678
0.40074025348394
0.392989015049704
0.39640145025527
0.391756742274697
0.427276992440281
0.399427857520935
0.408623603403209
0.404258959337029
0.409391559462913
0.405105559927093
0.416382209506912
0.412048970456583
0.42087195260443
0.420962971613621
0.429478796104025
0.420439439740435
0.513708296348834
0.449368279127601
0.441001985294421
0.44650675058467
0.448058064339436
0.447703674006932
0.455781779938915
0.471080637507993
0.470861659892422
0.460882012558278
0.469769624204497
0.467178383763414
0.472488978159724
0.474441869447695
0.512495150058162
0.473577707576434
0.492303022191863
0.480406411144604
0.524813056849959
0.539298787189423
0.502807071783949
0.519731980121998
0.499428930950016
0.505218527960795
0.502701578899689
0.502422255610526
0.507433052732526
0.512080258760732
0.506121030739895
0.504394492448534
0.505135625430798
0.503849919263027
0.504550970865886
0.498110907255536
0.535759330134287
0.508880504618432
0.503469649885943
0.498873256831655
0.507718749803199
0.500245823849064
0.536146642697715
0.517516771660881
0.502884790868649
0.503294154600287
0.511250214530245
0.523886705297155
0.517014848853725
0.490918842118767
0.502415726039615
0.494613342891786
0.500110815995599
0.496529082778316
0.509137594234451
0.533176166557229
0.511643857085889
0.505290823979477
0.512820090392065
0.514596937878897
0.513824128434339
0.512686224347202
0.524142950055927
0.529691601180252
0.522016425410919
0.533765348543281
0.528683866205274
0.527293955645334
0.54685019585163
0.552294668888856
0.538982215769886
0.528379818866722
0.527739973236258
0.525697591237469
0.523404969381892
0.530789284231587
0.520193033464085
0.512434974667376
0.513193129136773
0.5069330573598
0.503193254102571
0.532345785183385
0.49789377340449
0.508121846534214
0.499303570744177
0.479711464251669
0.483801696658591
0.480993808594474
0.48013694525093
0.473992129499963
0.476678929771535
0.467938376570996
0.4660422742392
0.460681563418996
0.466608250608905
0.461268019666138
0.461745582231295
0.45915297069931
0.463085943185316
0.457097593502469
0.457132739468087
0.458506985590471
0.456159068714617
0.453576762563012
0.453669399143141
0.467411532955906
0.474565250517483
0.466852521939935
0.461407465232048
0.453410612701726
0.461654348399923
0.443925147172096
0.458416203156878
0.445381724236357
0.454300211712788
0.44710124515913
0.454670037654478
0.447946843735685
0.453366029713418
0.447583629206628
0.450724715403346
0.444670810103685
0.452759478157398
0.448514532476657
0.449419695157366
0.446851884794017
0.451681774022838
0.448380163979435
0.452879587081577
0.45047218910839
0.452836876495808
0.448378791517141
0.449830918041012
0.447823134485198
0.452197116340403
0.451917898337509
0.446731845508414
0.447440193519863
0.446637622418491
0.445543779007702
0.453780446737963
0.44068194361021
0.445316245056106
0.443953236764876
0.440435075184356
0.436418876958373
0.43789472179057
0.434319082492657
0.43475336495704
0.424334896813784
0.426692047277295
0.41809969310512
0.419914391899408
0.413854581355809
0.410618803279974
0.406490442175918
0.403916564771613
0.393762951804686
0.396207079689773
0.395094356133334
0.395258482336788
0.388092519680297
0.39162243688606
0.383653415214172
0.386897668123373
0.382378622785529
0.380257788465167
0.380264991675522
0.380449876975012
0.380903554794324
0.381639836429087
0.377789573792489
0.381208529336032
0.380262759178817
0.382178842396793
0.380038114950403
0.384166566598277
0.387568538360983
0.389394915516943
0.385678217162431
0.387770377875321
0.392145312721811
0.392573404071895
0.390077934145209
0.397609935035422
0.396077610595755
0.400238487789668
0.397252939891811
0.401086283398429
0.401496715482973
0.407727790622123
0.405252537745957
0.403266134134182
0.400928390957473
0.405346824221381
0.404236030783859
0.405364260849936
0.406347691499131
0.405552443065984
0.404119817741483
0.402643823776574
0.399145179766684
0.399939726076189
0.396371959424412
0.401787094919504
0.395939437717031
0.398004919775844
0.395031917937529
0.396915358845386
0.392774233424943
0.392436907883919
0.386903825057779
0.388238648110361
0.386238968217605
0.385553885088574
0.383781879086016
0.381766917758988
0.38087855387661
0.376622858948238
0.376270709784607
0.379182100223512
0.376066394578473
0.377221248312457
0.374014822679064
0.372232140330216
0.369999599663124
0.373164505713582
0.371824809235027
0.371150834250815
0.365887859643506
0.365895537765362
0.367028638723712
0.364065135113146
0.360267877828056
0.364525788646339
0.35919164097779
0.35723101320721
0.356344581035862
0.352462100599778
0.351649788756223
0.348438007075284
0.344964899925002
0.342184451265576
0.340407999591435
0.337840663324506
0.335818875195267
0.330867839188425
0.331598306301908
0.332159443848963
0.325875028264973
0.326592737532832
0.32602871685267
0.322012716854727
0.324226779737394
0.325406747353653
0.319646691733623
0.319751203491561
0.322585871983636
0.320468279390083
0.314436218317909
0.314492567829394
0.308774524602143
0.308961086229512
0.303171914986486
0.301893050587418
0.296227404861103
0.292477266724411
0.288621082858031
0.28677977700669
0.285311106074702
0.284579036766889
0.281390470461214
0.28497638090128
0.286218367750651
0.288367292388142
0.291823781209001
0.297901464678535
0.309302019534613
0.315564347815624
0.326350483453041
0.337775210061548
0.349914025959911
0.360863697907687
0.374250496833025
0.389927926664805
0.405455028302483
0.420350101907963
0.431761720972394
0.447545155919349
0.460185732045345
0.475033669179007
0.488344459837689
0.50149654061395
0.513692935905989
0.527091051950693
0.538129467633767
0.554238404219254
0.565511955443325
0.576041434339574
0.582259173479086
0.5942307139536
0.602088812461787
0.612553196293808
0.620891294672137
0.629905055684826
0.635668937081423
0.643102167622099
0.643910078783407
0.652207029940591
0.651744357744493
0.659324202340941
0.662305910587797
0.657792486563392
0.66084392704067
0.663868922180908
0.665419160681657
0.668733142292807
0.663893344349509
0.671543001965933
0.665990864456979
0.669175241271785
0.671565901636112
0.676410711675779
0.677989264637827
0.685647153997669
0.688754931426782
0.690028075645669
0.695836444823809
0.700608736771792
0.708375729875393
0.716731831063811
0.724635520683748
0.736484171073336
0.738454438998056
0.741493004567291
0.748161731705033
0.76466879940992
0.778100855623733
0.791462994247517
0.800758457589626
0.815677953808785
0.821696484684519
0.829034124821197
0.840224977105144
0.847547169193568
0.848874693841266
0.855274202906883
0.861459633000975
0.859636140600281
0.861413665704769
0.85306707846193
0.842808132441953
0.843099659831258
0.851728430864748
0.846737567963938
0.837511438179891
0.83805457663804
0.842173761002662
0.844557715192356
0.854167119826094
0.855817511244984
0.862275043552872
0.881387727830707
0.899317271666799
0.902027928561451
0.909133156851498
0.93645829495708
0.934237591338801
0.953942478320267
0.986167049576757
0.984117739605777
0.99678793626012
1.02861543261894
1.02558646657795
1.0507470990557
1.05811977900936
1.07708124940601
1.09453115853807
1.08656248635739
1.12766706498426
1.15252189526093
1.17075698889671
1.17160727344134
1.20224547385401
1.22314488465086
1.24769018395291
1.26664566781362
1.26999476214111
1.29362695513999
1.31701298640373
1.34781386397463
1.34832644694806
1.38188816045409
1.37771594275499
1.41636256768847
1.42267373256296
1.40942441028193
1.42163950422341
1.41495287806506
1.45066609305196
1.4481857236303
1.40639140393647
1.42618642419646
1.43955929321222
1.40442611388686
1.41197350295041
1.4286043880601
1.42257439645042
1.43009593901859
1.44200767570045
1.42465899944749
1.43984383356054
1.44993917532235
1.45602480246836
1.43167378575052
1.46241171401743
1.54236918720658
1.52777637992589
1.47934109379624
1.51274911795247
1.55211619143811
1.58729542487627
1.62009893081611
1.58856520265891
1.59013641596532
1.57903261887837
1.6198482346534
1.64069742286578
1.59903339613228
1.64796155371164
1.63884412563003
1.68848015470608
1.71683731281342
1.69350004519672
1.67638834081262
1.67600264037487
1.67283662787492
1.78370191071602
1.71965391182998
1.77151875389795
1.75174606502942
1.78976611606641
1.77739445357416
1.801022021719
1.8076498109545
1.78935792270418
1.77696692839223
1.7861060688408
1.68988375692073
1.7118185092132
1.78573410797769
1.76202766743074
1.74636142545938
1.84351295968371
1.67211545345046
1.68300718182953
1.72517171339943
1.67312965303445
1.55429285451095
1.58919855184772
1.54379826937862
1.47372152630825
1.42503441829916
1.36151815047925
1.33910623060523
1.29137465886498
1.26692585509733
1.21965331944818
1.16247584869942
1.16494522486172
1.13192845933807
1.13795466747519
1.12819914398317
1.09859231511645
1.10636103174326
1.08702280337293
1.07330278791086
1.06156467633707
1.03392342018871
1.04222560665107
1.02643086076469
1.04346455627809
1.00612982701942
1.00277612447866
0.970756005962238
0.951491011414106
0.937214336591972
0.917473710502199
0.88835835435693
0.858539602627737
0.829495759267253
0.814020838766203
0.771104616667322
0.74287372928911
0.707634806527954
0.679020841715031
0.642021804081467
0.616595941361182
0.586966716864535
0.556346171684819
0.530166518605552
0.504966372099227
0.480077055600384
0.460603803338798
0.441181223788437
0.424869211675478
0.4100358688819
0.396532725421178
0.385410537034859
0.371824735235551
0.367105105267745
0.353701205870537
0.341860043454067
0.341196962334317
0.340228644355697
0.342835898817789
0.33671629822845
0.332064981538708
0.327573934497635
0.330407109208469
0.329237875120484
0.334666373082466
0.332508224941641
0.333744523253708
0.334545561265182
0.334311929108541
0.338614503380859
0.339927088036689
0.336457521950213
0.337971444605873
0.338255269390996
0.337706130574257
0.331248541581452
0.329862232766923
0.333812322247961
0.327967871221339
0.325007521245988
0.324995579259678
0.316942246038552
0.319613838040196
0.317980742648033
0.314470484197561
0.31173307019031
0.316206645040662
0.313824539054375
0.316646880759017
0.317695568456387
0.319696604277989
0.320967031212535
0.324279175813077
0.329380564488679
0.330707357347948
0.328779232568591
0.337250153119672
0.339069502060895
0.338245330662728
0.342122231831479
0.346941422760186
0.34693101133356
0.347162821569117
0.349043481683332
0.352384944090656
0.350915890694629
0.351660273172694
0.348804899337249
0.350205753445172
0.355524762110541
0.355065560861962
0.35385160064567
0.35867609833057
0.359171429420779
0.366223158496694
0.365312805429534
0.37912916986877
0.382737942773333
0.389348613229389
0.402372545698018
0.408976416516688
0.423980569468784
0.435883757782674
0.441398810030479
0.45721339281946
0.467601100617412
0.476979530457298
0.480440071783442
0.482509266205022
0.485267854180389
0.490803022875027
0.483957148850629
0.477792179334785
0.469323039301516
0.465394995414515
0.455823480530017
0.451456547692982
0.438043134415063
0.429644453520322
0.422580010093823
0.424309158282154
0.421192138903121
0.433370333617236
0.425840752195995
0.427131133932876
0.426718806667184
0.429795532126901
0.425393131533703
0.430870335800206
0.422038064163727
0.419605296774405
0.418465488375025
0.411716665536826
0.400999817510398
0.399527058632381
0.398420367334913
0.393566713311769
0.390893641543029
0.388512016020175
0.391992612301722
0.385966453518262
0.377074186154962
0.371507009377464
0.369698590250048
0.377594566848085
0.368244797407093
0.373695822226808
0.370642951862143
0.367278414774118
0.361208388788238
0.36851992658542
0.359533915519088
0.352509935711188
0.356857964341353
0.34076151909216
0.334011303753489
0.339934344361191
0.328907983441181
0.338370347551559
0.332952163951914
0.340389254246149
0.334892951065924
0.330923712168075
0.333425948265174
0.33163655838562
0.330491805268788
0.322953799478292
0.313439255348078
0.313471115614421
0.316452255637218
0.311602420270535
0.317729887617523
0.314349573130952
0.307988343137853
0.307260467015359
0.296601553517358
0.311762672087805
0.310037446720124
0.31274290719681
0.30956751278743
0.320894034600194
0.309474000010513
0.321328858338918
0.325668423155175
0.324418313097171
0.314152911544481
0.312862251253029
0.317360965246877
0.320516425534904
0.311644803464717
0.320637179123887
0.327978564245152
0.336874259505861
0.336346246440079
0.328111974708191
0.321781729206325
0.329603228664442
0.328672199329503
0.335180869173153
0.335141171805986
0.352654839118133
0.349596288257568
0.358852819196328
0.368676029202688
0.362187693428582
0.363616303150344
0.394008206751017
0.387626300908513
0.37964263501132
0.395424631783802
0.415428951745504
0.412124408458997
0.427837312613087
0.440253065113921
0.453829393764342
0.463855050736509
0.477413215270722
0.486152944102226
0.508983252446772
0.509849681663021
0.533107855446806
0.557220472289014
0.566708848354932
0.569066738736586
0.589459087831705
0.593876931831856
0.582106815771615
0.574293753025233
0.609745701969283
0.582726437243948
0.577816887397646
0.575446845515142
0.548638387631176
0.568801645686001
0.57235425446248
0.533306695306028
0.579263296992407
0.589348092246507
0.553181963002897
0.54662573690566
0.571826168503223
0.532714072797917
0.555782018355539
0.568144501672676
0.536379065655605
0.539583210119342
0.544180946171024
0.526848667779158
0.534435546464042
0.502630301783683
0.500523630902535
0.511827151312288
0.512452446224216
0.482177966639195
0.486421176836473
0.492987441888259
0.519286507961283
0.502992943491961
0.52136619257795
0.483823016648824
0.469175521966709
0.502030012496412
0.492731862588003
0.474126526989121
0.500086164551927
0.499719563967322
0.495111033164168
0.502322147992843
0.477684241930901
0.455348211127518
0.519901011078866
0.538906015504851
0.51343808956832
0.476519368414124
0.51289061896091
0.53200128705553
0.502152285414986
0.538934198068856
0.495855677640331
0.495848465920367
0.535746922218811
0.513840326096841
0.514750612981231
0.537858135545573
0.530941831254981
0.531934041605707
0.557486372143628
0.526940659650419
0.53551854100684
0.520048037125172
0.509559663180312
0.559063844332965
0.608701426652142
0.547754288443742
0.551314928579424
0.551690460070897
0.608045519921848
0.54331321905846
0.53537124478287
0.610580737702966
0.623550845998756
0.62836475734524
0.621263789092308
0.62191266730977
0.651191310904145
0.630174614528038
0.688696836614366
0.736253770896753
0.744204365200712
0.736523474745584
0.767964832301127
0.773248910790229
0.715002744340197
0.677742094602517
0.647555250013881
0.697265624000655
0.673223252959191
0.619626169545537
0.783854742901813
0.607757338415982
0.654088692602049
0.791391959764937
0.724197500447028
0.649525205221386
0.593325673795165
0.593688805737667
0.645470574545325
0.701878578045929
0.628380972775025
0.643257774312904
0.663235306674257
0.623914873484575
0.671841957870828
0.712370764695237
0.702657729681102
0.790639747436639
0.753379575919463
0.647771346554379
0.637433877590343
0.644784042957119
0.798399386467405
0.803370578218786
0.624931164705801
0.599129140491288
0.752961248485939
0.586241505862845
0.679350388471087
0.827193059459867
0.655687769832418
0.681792142975548
0.495062466232248
0.62328469232347
0.608523318038262
0.617583643027904
0.766340952310879
1.14368182517829
1.07520912369731
1.02923866369075
0.949086256637701
0.637757177597041
0.91783952646809
0.856306114492325
0.462941845757703
0.528001497760623
0.680122398438043
0.860917123764281
0.625987487924165
1.00171272586793
1.02377230862161
0.929974149414694
