3596
4000.36533379555
650.420452594757
1
2
2
0.0724028397207394
0.0846234860201157
0.0720015681576093
0.0858115506191715
0.0724500792347901
0.0862584023565705
0.070016453089458
0.0804739111503756
0.0662709334923844
0.0956804075090487
0.0755447999550826
0.0817659173517581
0.0655743826968932
0.0771814889368846
0.0713552883219492
0.0761257608363293
0.0617392599608397
0.0818340493706999
0.0697674100915339
0.0839779068023825
0.074300268674528
0.0794579294204112
0.0740153020980054
0.0755024161817004
0.0711699406387414
0.0826751610542349
0.0717859627312448
0.091478717590853
0.0694225049075065
0.0843677749050982
0.0641524261190393
0.0804275359352895
0.0765145066047329
0.0852236049764774
0.077628534918722
0.0874306388831946
0.0687126954641625
0.0828208988476957
0.0681192433770458
0.0900900187875538
0.0858609905130864
0.0801323941052116
0.0765635853791092
0.0836445685878921
0.0729532299663391
0.0855738472168153
0.0688275955922906
0.0849943886617966
0.0739406237635966
0.0834960142720597
0.0689561400875272
0.0801558080597468
0.0816276337862801
0.0966200712149936
0.0667438977891528
0.0962044723134832
0.0723239747399354
0.0856069152836108
0.0723338655259479
0.0821346052694396
0.0899000606225597
0.100630443179915
0.0671002324869399
0.0770073028501693
0.0644709014447451
0.079838183632518
0.0691236139175955
0.0863248060357424
0.0678422756663257
0.0775135511926322
0.0737630137757551
0.0955226292746333
0.0865874241743943
0.078274347793653
0.0722068343245438
0.0767678386952572
0.06946663089967
0.0823167705937603
0.064208764271981
0.0876463836105327
0.0844558690672363
0.0898282543039595
0.0650010162825505
0.071707260103955
0.0729106500607835
0.0923102479034441
0.0690960793357562
0.0804902989899677
0.0927982299250765
0.085595459592855
0.0690891033315289
0.0793170546177679
0.0654447212571143
0.0685170002079112
0.0703415662823874
0.0752978704935196
0.0656422748582894
0.0756782870556315
0.0755641357860798
0.0872870949327871
0.0904119581325671
0.0832239783275636
0.112155333272425
0.0881528268813652
0.10967981864123
0.109420632396934
0.0629112841673141
0.12152717890709
0.0773086435527736
0.0894107942154883
0.0686612108848052
0.081429578032523
0.0672337305508116
0.0832428746368095
0.0694117837590441
0.0914620681035324
0.099068098126572
0.0818318137030152
0.0712994591714055
0.0738451271956177
0.0642623352717644
0.097792088050679
0.115601849577013
0.0761557329100751
0.0835621427971495
0.0773434388207432
0.0675301338537575
0.109464670218977
0.106602849865225
0.0734868338477808
0.0713105692403193
0.0688233874395609
0.0720725897270004
0.0647754264857817
0.106255764029399
0.0891413695176847
0.0664802548114011
0.0834762878411798
0.0924773737342883
0.134207834938397
0.0790168703287945
0.0738198261029238
0.0688929387138365
0.0801807739181048
0.102694769559241
0.0807375164140107
0.0648438837903237
0.0970866962256228
0.0801403363579162
0.0672022522383791
0.0769746419161992
0.0733657430971543
0.0847885798388909
0.0771338922382073
0.0423053134883872
0.0948160853362207
0.158411125306852
0.0937192316482814
0.137842139348863
0.0765350140314145
0.0731375967319019
0.0789801844784553
0.0673662330935012
0.0724008424826533
0.0648504763229472
0.0788641045034418
0.0795833656036295
0.112660042537228
0.0636115463680124
0.0776736035417456
0.0926456643494973
0.100050905246973
0.0650503229402243
0.136482610236061
0.0899804053854509
0.0625028914000585
0.104977771273941
0.0830234221401123
0.0648606793529406
0.0769340118184941
0.0945448011257696
0.068970509745264
0.0720917831462999
0.0708303809393734
0.067514528038019
0.08234284936582
0.0758668394003739
0.0715253645099048
0.0793571921783984
0.0631378653805905
0.0852310326449239
0.117697694253899
0.107436860875404
0.0802839541919595
0.0752214531771775
0.0573186331484662
0.0937351497451586
0.117164848955176
0.0630446863042591
0.0709878048979513
0.0653637519892832
0.0668460312165764
0.0690649459115177
0.0715189702087882
0.0704894250942731
0.0592254448106815
0.0956061817234044
0.0898826977701604
0.0660872800678539
0.0767934628843395
0.0711858676811115
0.0857814638546867
0.101696501305574
0.11320702877163
0.0610945540055345
0.0839154036063568
0.0649638288585655
0.0906686155465932
0.0860016638143141
0.0722813578853104
0.0619075249316903
0.0746614364422594
0.0667625423371703
0.076646209634026
0.0636197369520488
0.0758075760844882
0.0667021905779401
0.075181138685562
0.0624915802462755
0.0755645423145571
0.078297662500304
0.076066034949774
0.0644867328529786
0.0739140744711446
0.0627440946409879
0.0782684176356124
0.0939989705943956
0.0731908102782911
0.0702620180869749
0.069335357321688
0.0646351931036817
0.0706030376269693
0.0688497816265286
0.0644356559153187
0.0675534908609639
0.0706859277764791
0.101870779595204
0.0882825985358586
0.0655645214928853
0.076868823901668
0.0719166156326578
0.0950880196198331
0.062272584062104
0.0822098838719997
0.0629354883458492
0.0760621970797178
0.0635432992641956
0.106757049813846
0.0785995327326409
0.0820213362800593
0.0757857413162714
0.087913368643434
0.0588767503146033
0.0819147629682196
0.0651415108664366
0.137987944971286
0.0956482526450665
0.0712481313979549
0.1183478857746
0.103327332355793
0.0754766123001968
0.0783787901804111
0.0358822551296187
0.18179773810061
0.123684349909386
0.0837038041924257
0.0756234338390742
0.0867808837050609
0.0733799467947073
0.0798892067095328
0.0867733535309338
0.0901852645580067
0.118410014942478
0.126540009507918
0.126553966512725
0.0845196335715246
0.0894365539104196
0.120250868756502
0.0696173958005256
0.0799326593276632
0.0670239596320568
0.0847495168466147
0.0732628212977999
0.108551726813839
0.0778479253050836
0.0933733920304961
0.0734418448839119
0.107473361980423
0.0736706184950273
0.0798224062086259
0.0752570755740179
0.0951138531501061
0.0689766530589895
0.0738934949827648
0.0703184508152151
0.0833847008378376
0.0772953687356963
0.0918465044676834
0.118119469639885
0.100955089027489
0.0755961492539953
0.104324911261823
0.0744744910001602
0.0843140658940577
0.0716478310311458
0.0742636269171655
0.0631064721092598
0.0696449267513287
0.0687668844879821
0.0964363720662237
0.0856420739337674
0.0790046199326577
0.0720751725806087
0.0725784530992539
0.073224798978164
0.0800419605797111
0.0757822221972376
0.077395890970564
0.0741626129485667
0.075584767655102
0.0843620921255782
0.109956763553227
0.0799688763053306
0.112686739890405
0.113578381806535
0.0773717678218713
0.0854949353437535
0.0819122542466651
0.0812518283213262
0.0819056436586538
0.0811072956507662
0.0821220533216294
0.0817521103792635
0.10002418509893
0.0920643817150522
0.0915977246339368
0.0966288472203414
0.144228024046695
0.140000562945841
0.114310638523178
0.0848587402667394
0.0891322232105133
0.10385975010461
0.135709776651355
0.0942530901798757
0.123042732788684
0.0879160506890859
0.0954937669595708
0.0869791813581809
0.0922673637489823
0.0865985972691292
0.101133664383587
0.0870743656901249
0.0984045320861257
0.0975372670350235
0.0986107256836465
0.0999045137281116
0.101824893308807
0.129227560982514
0.121272524403449
0.0983955782925357
0.104432060450399
0.103805450422051
0.131622647049192
0.155100401205271
0.141673579729424
0.152840999041766
0.139275366684342
0.164796677991094
0.125744033804172
0.111932797310591
0.115175655460139
0.114923150613933
0.125314342672667
0.122789288831503
0.120724370659255
0.121265065275644
0.128577057727917
0.1270130900544
0.128376722400029
0.122795215136309
0.134761434712554
0.151718910423084
0.141994539061389
0.126683747750505
0.14680418256032
0.152721901489608
0.216042250830778
0.170376973759703
0.167084297342463
0.147124031897235
0.161922152815454
0.138497731867446
0.149453987469246
0.146919888140594
0.16430843239738
0.160604343029108
0.191245154273298
0.182184024235485
0.18243372845659
0.178427080308929
0.170932269549784
0.18502674694578
0.195423728717711
0.187455841207533
0.217478597489
0.183705249428893
0.186051745494079
0.197035920028967
0.209407300852801
0.187252910055277
0.208884784999206
0.190756473425216
0.194773201863332
0.190548783289963
0.200439836476456
0.204167888232922
0.213635251852334
0.210919884567921
0.212801808210592
0.211491995678943
0.213825822701204
0.221252713896688
0.239581726480182
0.222618282499388
0.225040833138745
0.23497796738316
0.230779614412432
0.230391445410498
0.244259461276294
0.234726329417832
0.264512952788529
0.261505827918046
0.274288008557494
0.241729836409144
0.241205786252518
0.240903210825955
0.260297254702554
0.251460096178011
0.256477614565529
0.25873910419112
0.268888302346243
0.260748162885842
0.270989658067562
0.278436151436641
0.282064813289324
0.28575574376998
0.286257934292485
0.284247841655069
0.291596207935475
0.291068021950242
0.306954427150465
0.31856051881967
0.343938938951798
0.357315002182661
0.344077411071564
0.315861539915542
0.309019856750234
0.31500509313812
0.330896187874742
0.324171247118584
0.341054221781378
0.341451596450169
0.345243490128592
0.344059121709166
0.351075089900905
0.347428153868671
0.348946976769516
0.370589085211337
0.375493300509624
0.373863427620063
0.367300288079965
0.364956488470922
0.378231114002688
0.384469685281714
0.401201638304062
0.405097551849187
0.402490587157261
0.411547422708734
0.403959453475474
0.396101591484642
0.407342126745416
0.406196671846709
0.407587003936011
0.397512306692158
0.417021134248921
0.422549083973451
0.448070935193971
0.43492412633714
0.432724183798226
0.443439797771085
0.456718870025635
0.445539183658932
0.464727473680626
0.4738896925535
0.484717344221693
0.48533860873321
0.476492918170121
0.491445919430282
0.476967436318682
0.487215393900897
0.517069130722971
0.504036724080169
0.494562177301343
0.515994686775132
0.51009938680153
0.499298784285937
0.51674526322308
0.522804023277789
0.507622422283434
0.533051064395786
0.524388378356597
0.524277176714476
0.551148211779541
0.561266912663259
0.560848570175344
0.553940850883989
0.557353728363403
0.576019287484789
0.575160124333545
0.587122032788896
0.577452417220564
0.590885141643177
0.578459175745164
0.591493170036786
0.589699730090982
0.609190732460257
0.607863495859691
0.616745649210655
0.627115082734253
0.606812519825163
0.619269809878623
0.654875103106062
0.634950614685206
0.620913128526696
0.623478112564685
0.653985547784461
0.640074097300003
0.658981161127966
0.654450457789765
0.672543181028004
0.687190322458474
0.665058003900587
0.669090346456762
0.67807795295112
0.705382303477394
0.710456853365874
0.676741864263725
0.73407849587826
0.728308709663513
0.713783231382624
0.718174534177681
0.718483188295787
0.705897817513174
0.741150049137141
0.731880990447523
0.736976984367234
0.729093134170121
0.734209197773076
0.735954383082712
0.728076305655421
0.759142565917609
0.785915144849414
0.771545842076446
0.763077120026527
0.768523643784209
0.817490639114094
0.800249150589925
0.847111172930993
0.799494954852189
0.832097089154362
0.813047954331935
0.846422892950706
0.791179757950926
0.857511273352589
0.826310019885083
0.840486320567716
0.840106990060629
0.842162197500938
0.813839523735754
0.878068114493811
0.850523668566981
0.873499522519167
0.859416634149325
0.90368964438976
0.884362838764013
0.906651914158958
0.851813580878919
0.868598315323582
0.874778736867971
0.862502231117042
0.860159431128568
0.890559845414082
0.880633109557174
0.956830828275117
0.866110062788033
0.893594640027652
0.936827800961268
0.924167739960063
0.919778957585172
0.912290451231388
0.920209748457486
0.980980911617982
0.942037969319264
0.946383804492644
0.936864550912569
0.974052338451987
0.956530993971526
1.04684556346593
0.971620336890222
0.999160779115012
1.00572912845722
0.996064338112026
0.969578942845012
1.01208297770995
1.00605478122995
1.01785413592961
0.999565191146666
0.989971731905226
1.0130377791309
1.02046455943065
1.03321567753144
0.996740320190297
0.969246174441972
1.04042062285416
0.970168892178986
1.03192522715739
1.0503354048512
1.05028150123646
0.979955626715705
1.00593245663671
0.988029443533467
1.0406855254559
1.0003394429746
1.1033909188109
1.07181392919285
1.09387543042683
1.02555140871502
1.115500780329
1.13726099666613
1.04045346643892
1.04429483166111
1.15429570778752
1.08203098817572
1.15364397383525
1.09473760021997
1.08315457211559
1.08078294998881
1.08915952316227
1.07529963203633
1.15202968441894
1.12306548671362
1.09718961825632
1.11618888967349
1.11121288565005
1.07345367117404
1.12022095628646
1.07891395213287
1.11164084276506
1.1471960628177
1.11931737801725
1.06082674243307
1.16294213668623
1.10253929643573
1.08041563447244
1.03775731653958
1.08721702359504
1.14362358875469
1.22194107796517
1.13323251982873
1.15020135460382
1.16041035785328
1.15339096954064
1.08636880445867
1.16350835170441
1.15487583880278
1.17493479376107
1.17840662360034
1.28356127917558
1.17867608152421
1.23796725448352
1.1485061446408
1.17019942170788
1.10725527568375
1.16243918596151
1.18405438058305
1.23653476315007
1.1590933205501
1.16976948581924
1.2053879176537
1.15123957782124
1.15327132061185
1.22193368959876
1.12404558264623
1.16300266076927
1.14449594428307
1.13202842945658
1.11443676444236
1.16942705296941
1.16626230296014
1.18652457666754
1.13837866016056
1.16295833979873
1.16702549835253
1.19475566959232
1.13623619288306
1.2372219308412
1.21725017046761
1.2275222637633
1.12754551884292
1.21372853756733
1.13408753063592
1.20666498383998
1.12288799771557
1.15700592196238
1.16131990112625
1.19276793883788
1.201560797771
1.24217876841972
1.20060117269494
1.20845700226602
1.15855555891806
1.23110604392926
1.17379112507323
1.19911461595348
1.12548912249061
1.18099626084589
1.1603576836237
1.26139666228798
1.1663505895429
1.20032822071439
1.15335293830484
1.16200912142158
1.13882776086098
1.2092990413346
1.12401046226756
1.14467924437738
1.14096657575926
1.22620181718475
1.16663740423553
1.22454842207968
1.12743745383744
1.21918565187858
1.15151507497826
1.24459506451256
1.17983626313047
1.21602738968425
1.18496806973834
1.17868451324802
1.13210211861005
1.18936562940154
1.15038555109943
1.17691044323142
1.13454127350618
1.21165981553762
1.16589889770329
1.16181305505056
1.12060796144783
1.1772817659496
1.11836900181518
1.15283812806368
1.14919563163004
1.23334625675168
1.08133291175154
1.13154052219214
1.09817955958245
1.18750888540527
1.10639105076216
1.17805414371677
1.08190489810212
1.19394088242365
1.13600230151662
1.1622139873797
1.09049834587159
1.16686004213964
1.14367068666299
1.12735705152536
1.09985911394606
1.15869082845277
1.08199325101811
1.12902330717067
1.1068527539989
1.16450531132712
1.10842376525234
1.16310721345838
1.11714539923002
1.09888952239634
1.08554434218225
1.10866355880213
1.11047578543958
1.09436793253252
1.11131749237058
1.09878588076857
1.10861886353989
1.08080989434768
1.09630116607562
1.09449041661935
1.06118659802575
1.12192421231713
1.03216892030491
1.1199308333253
1.08223287434453
1.08825754599394
1.07488081005107
1.0546398989425
1.05139826212738
1.11723306879702
1.03636817063368
1.09035275157712
1.04474573198199
1.0677841075307
0.995356875924072
1.04823602709239
1.03239826578803
1.09427985391461
1.04214534943537
1.04975590844394
1.00433298992452
1.02039526477413
0.997294861194336
1.02902601287713
0.995558908072466
1.04776519206273
1.02355813617966
1.03731940312198
0.978123163917144
1.03484693006795
0.984474642824569
0.990531001533545
1.01202752974472
1.02547133069501
0.990212534107413
1.02289875536965
0.974767127544902
1.00347428821213
0.958215970620844
0.977924101800067
0.963212773017154
0.989489848678458
0.941682284194695
0.960099177693943
0.927702609320157
0.963738777899466
0.944417888987087
0.974649166103972
0.948101040418916
0.963677083864488
0.928978271793633
0.961600978955411
0.916680688683037
0.95081727422308
0.900027589599826
0.942911751511303
0.91979217178888
0.877555826716361
0.891141356036023
0.905389351928917
0.881723050037346
0.92592079104909
0.869729304816376
0.883774908768711
0.857447738342243
0.89241963603778
0.858266973053229
0.887227307948047
0.853470147016129
0.849587310718033
0.841899999585035
0.85778745199079
0.849400567848289
0.889713753558042
0.859127068340061
0.859096422615437
0.846450530776882
0.870885405648878
0.840126397682497
0.837319715019871
0.821577066746156
0.823555712448887
0.790351890507169
0.823720187015191
0.80426966375204
0.815180794955009
0.801119120168072
0.817621498991685
0.785734515870689
0.815370659938191
0.782399338350911
0.804829249295001
0.765485681811168
0.786887663758763
0.774364262637875
0.782147980787245
0.766325411859435
0.77800575790064
0.767084205966627
0.752896064145834
0.748693919617035
0.748122838580941
0.74814867786966
0.746389676127566
0.749878559037202
0.754127875861893
0.723848105436488
0.743468307423279
0.7228034795202
0.73272379146932
0.708770561605367
0.733480790301319
0.700509139305909
0.719586916187663
0.694544063698166
0.702344158510216
0.705270820063701
0.704272160835887
0.67598227972832
0.68694392765365
0.672893474825052
0.68686525967713
0.696499332428478
0.687395354426585
0.677876725833949
0.680200419517058
0.660663858588033
0.669298581119564
0.645645243349008
0.67143619209054
0.639768101135861
0.643231698476833
0.641259900640656
0.652559527390108
0.639723729248251
0.63764114654064
0.621750233485317
0.637489994108811
0.623103352219947
0.617023503986114
0.615734271027542
0.6168986907718
0.620236651820317
0.621369010469824
0.620843279373881
0.613444923521009
0.607341347686787
0.601657110693625
0.600340931001728
0.607470142113414
0.591112486912108
0.589729588600385
0.594134962258565
0.584233721850058
0.566150728609983
0.57887213332745
0.572439353326411
0.569814691675986
0.566285093424282
0.581734901110207
0.563651897899924
0.570156270618536
0.552571814776271
0.569225706725037
0.561089528964872
0.546909685601505
0.546633398482707
0.549845064487126
0.536697646094992
0.540176476408169
0.531217077142093
0.541703408241675
0.523708818470957
0.536871416194217
0.53952772505814
0.53267877834579
0.51384958526047
0.525147465994085
0.509437576052713
0.522966539293079
0.5189858473151
0.517122431974413
0.507993263046391
0.504261008691795
0.491953662996403
0.494428101261387
0.487330976337306
0.502632961205974
0.481708451055104
0.502117669707392
0.485277522371584
0.491014006581358
0.478523093319677
0.488010893855326
0.480414982366613
0.481937121358148
0.473891390424839
0.464796003249234
0.467819224749751
0.467189571571647
0.469946811865577
0.460594822330428
0.453736661377756
0.463157028417998
0.452414392229081
0.463704795249702
0.455927336084297
0.441010799784356
0.446212249882396
0.442732380039662
0.437760229477289
0.43771665319152
0.430231400326766
0.439841211893968
0.438507022747831
0.432182454783052
0.42268911568701
0.427882623655309
0.418072094386053
0.423692715219775
0.417346009457698
0.416442345793505
0.411647559161275
0.413339087139088
0.412841021611612
0.406213025161203
0.398581687299621
0.400672027414096
0.397393698467171
0.399178812387892
0.400894065938215
0.398701449340178
0.394339873300056
0.394873099316559
0.393328866702129
0.391077018777285
0.388694464193601
0.384444690330062
0.377134586158182
0.380377639959321
0.375279942232855
0.380932748589715
0.372181107448326
0.369321594864879
0.367321152302895
0.37558695505265
0.363631484163184
0.365763299834763
0.363271775488279
0.36077183886653
0.357737349870739
0.360651935942926
0.354068179991294
0.361297416227083
0.355757844402949
0.354669585951882
0.352000284586921
0.353194825565557
0.349173837457502
0.344870006136554
0.344461863011455
0.34484227692758
0.341333245160503
0.342757562735334
0.347658116757086
0.338967903515398
0.342866719158402
0.338584298844144
0.33836615443483
0.349437091686091
0.340030124052366
0.339867680780154
0.344435288198388
0.342902346529516
0.339994857528627
0.337818882169534
0.346071010828876
0.343587275157723
0.342830259277484
0.344357132669506
0.345561139551145
0.343441063526329
0.337768895753972
0.347695208720034
0.341078441596392
0.343683842237916
0.351842453339399
0.347469600654004
0.356255724746497
0.357095932985863
0.351132034721708
0.353821762657434
0.35830345779922
0.362460353943256
0.356306472195451
0.361836434948249
0.36585689365286
0.372270397282257
0.365990169345846
0.370559301738398
0.370686830864234
0.371753970012695
0.37184980257507
0.375019430595175
0.37991120779012
0.381367112240474
0.374773157088916
0.384758067330531
0.377241607154386
0.384778649178229
0.38664029794503
0.39000501776436
0.39138760303839
0.408845065609189
0.393202499498516
0.395715349904694
0.400457003025616
0.404787839795759
0.403835484919413
0.406124167556878
0.410545204848747
0.407503776940891
0.412724497121
0.42202927419134
0.423838284067999
0.437659904139969
0.427458834514464
0.432870422992219
0.43483512591532
0.437036854470354
0.448584298657354
0.439646577638927
0.447258409675123
0.450500113997416
0.445722873005185
0.456267208966718
0.448725696974153
0.467001607006573
0.458800999086999
0.458300743648074
0.460022456125124
0.472352653309645
0.467396576485514
0.466590358853776
0.460641889006974
0.468825769879813
0.47102602823575
0.463878341646422
0.47118144886453
0.463654159671655
0.460266799729532
0.472326760787772
0.461535139159642
0.468091667931115
0.464365423602048
0.469556889523523
0.467679341405015
0.472816275922701
0.461037083117095
0.454769277713804
0.46600637128175
0.469234892483213
0.452869497827298
0.462916255538625
0.453289317526196
0.468271406727693
0.461393173762591
0.462173770408088
0.460119377349415
0.469770571778156
0.464051385096739
0.46674339374075
0.463055538034696
0.457712365416559
0.46316262133991
0.469529366400871
0.465636702968439
0.465808486335047
0.468964397336979
0.463059019973067
0.464962418257233
0.470157858775463
0.465705126601759
0.466375048552244
0.465491473819106
0.467721549461634
0.465270840801244
0.462898014073428
0.475591727661542
0.468513106955866
0.466062290732479
0.464819313110122
0.467608035669221
0.465587216910372
0.465985660690667
0.468418302052387
0.465103714249002
0.465682372427339
0.460625028284131
0.463518166349028
0.456965647694207
0.457373824680384
0.450677647547116
0.450374501704363
0.447706907471428
0.44741886750146
0.441047993660831
0.440356202333549
0.435497686631291
0.440489247913946
0.420699448328608
0.431688945187158
0.423326102442111
0.420688503756786
0.423819962050463
0.411630414288171
0.411930852735045
0.407175648494159
0.402605541389228
0.402240798988056
0.395174852448254
0.393612694267175
0.38674944852617
0.390838085501548
0.379739911230199
0.382096576114979
0.370310086440987
0.372022631888136
0.369332048672181
0.367880068310264
0.364275310956144
0.36128069268458
0.357910027171862
0.355268258313278
0.346650372826238
0.352713265006135
0.353664154370774
0.344888899630416
0.347551322257528
0.344995682504661
0.340911642410124
0.34921110563987
0.344324748640542
0.333908585657144
0.333513058192841
0.328431811257588
0.323289547060602
0.329077035113318
0.324204019890815
0.31872916334492
0.326690739242752
0.319409310052884
0.316600050800162
0.318369598239064
0.318927942340193
0.314916957803459
0.308655937534857
0.309822193678039
0.306400333874365
0.313663279049956
0.30769752320878
0.309511564842662
0.302104487916486
0.300440683589533
0.298834551675998
0.296199785046989
0.295865064525708
0.297028562117598
0.292065629912998
0.292979528844999
0.291363533817307
0.288078929348632
0.286344042923212
0.279107618463231
0.2862943483622
0.286533921816118
0.284639304770716
0.282060649263195
0.283888874082037
0.281980165387603
0.28033454671512
0.278229169731801
0.274611941501883
0.272516178205218
0.273588193044644
0.27037519619908
0.272504558286523
0.26999988405167
0.269797480286742
0.273421033558369
0.269667937599233
0.266375638978263
0.264017526902506
0.26327969272476
0.262196770995077
0.262943666259304
0.266677213475379
0.256700008625043
0.256590306542709
0.256155968971788
0.262519262983995
0.25986926414542
0.255488293877779
0.253445317022489
0.256152975624507
0.260757144430382
0.25733306239385
0.250492252338686
0.252415362120908
0.252221153202446
0.251634530872399
0.249052762811778
0.249830549153533
0.248275985760696
0.246676751394941
0.245006072834042
0.244366007819863
0.245300561421958
0.242538909450351
0.242445446938166
0.240471500855441
0.246299967720804
0.244868249190869
0.24025343026749
0.241870052421682
0.24008039298738
0.240234966783747
0.238721040511444
0.2400151738932
0.238020603851583
0.235241008738374
0.236299052112401
0.233264545123101
0.23608939878193
0.239293139269707
0.235192197883519
0.232594524575557
0.232294944017931
0.234290222044923
0.227535608386325
0.230618757539603
0.224486876781443
0.231514879737034
0.229038820171492
0.227303415007562
0.228074560944116
0.229467722937182
0.228606250330703
0.226554821100408
0.224938146708742
0.226756000326209
0.233794496415408
0.22377751832102
0.220216353733639
0.226608532747978
0.223451728648483
0.221700365466565
0.229313689066195
0.223679996521785
0.222445139993126
0.224595897902517
0.219825979876047
0.223104900040621
0.22113380301007
0.220456235618754
0.222877926021262
0.221007332902548
0.220137116038265
0.219272376519639
0.21921557716475
0.220274396872616
0.21954412393424
0.222956485290213
0.217311430699149
0.213857958339441
0.214341153305244
0.217048796950763
0.21792438682588
0.21413588261467
0.211744182973131
0.213177626033023
0.215918574422814
0.213635942819507
0.212858588196671
0.21032649658468
0.210483491948735
0.212015768291513
0.208083210173172
0.212810642306297
0.207339318250003
0.205904479595119
0.209583045628814
0.209604510809778
0.206391535255862
0.207038826745054
0.201728776745011
0.200279131876616
0.2031610290576
0.203414869356982
0.200378523968459
0.202253124524544
0.203731522775697
0.197453037109329
0.19886727606504
0.200079539434642
0.196531111695886
0.197984265071672
0.193930434575305
0.199684329269449
0.197752827761621
0.195860447605211
0.192900834549578
0.190806672124967
0.19402554922771
0.192119517539898
0.191123950932827
0.188688701164228
0.186282623014639
0.19011653639591
0.187065605003912
0.188521250285428
0.188664347846564
0.188994722803847
0.187660542479204
0.187910363977385
0.188104889554808
0.186871502901072
0.186857557102489
0.18384979883719
0.181189523236215
0.182416556857955
0.183145714236888
0.185455763816958
0.177609225538423
0.176741061204352
0.180028681440254
0.180228950205304
0.177889662105377
0.175054230936443
0.175668801783996
0.176331036342676
0.167661369917934
0.174894104205839
0.170365541152395
0.173828786848856
0.171531737178182
0.174475539693311
0.167376323554254
0.172605869939476
0.165198167745477
0.167582265836142
0.164947387850648
0.166718349958388
0.163078047028033
0.169143473681381
0.16211646267019
0.163286847551233
0.163631913831006
0.162090237096053
0.159604424554846
0.159260101001301
0.15978389331474
0.155772123945898
0.153162087034539
0.156837902200322
0.154901960078136
0.157967883286068
0.156929048173902
0.157558521149569
0.152427320472019
0.157250093997027
0.153810899958705
0.151379715318688
0.150975928834037
0.150600232725908
0.150384205321458
0.151627548060826
0.150853723361149
0.148574740108007
0.148214749610065
0.150199748798107
0.14494200039016
0.145138672336322
0.144058816439381
0.150168518095608
0.146674035842817
0.147484274906275
0.144209902204075
0.143071528988767
0.137623248049979
0.143305561545302
0.14246490244067
0.14723956618894
0.142640966915223
0.140801496459416
0.141100299734946
0.14053382791402
0.140133688741375
0.139985593832002
0.142178401825957
0.140088083049192
0.137487596435879
0.137662371420385
0.135663338125373
0.13689212041667
0.136832402065017
0.135391261499032
0.13203548364823
0.136353943128041
0.132883330790544
0.133290518657027
0.13296542247305
0.134538535915789
0.131541328165399
0.132295023834001
0.13244225144964
0.132084634219038
0.128327542384303
0.130965189217223
0.130675546313544
0.13205168463281
0.128450045298372
0.131559399101116
0.128223080387827
0.131065155160434
0.128666996074472
0.128043566162765
0.127040172505391
0.126996662271915
0.124522178503187
0.129400664218115
0.126691449760657
0.126397343834847
0.124388099738995
0.125551873372491
0.126229102070843
0.124572564313275
0.122514542624248
0.126358724696704
0.123147271596729
0.126241182888204
0.123495458447564
0.127533752470994
0.121638530375681
0.12308156566559
0.123531543299884
0.125600975227558
0.124344317999981
0.12558639181232
0.120220823145126
0.124722450899616
0.122601171691043
0.12171945907101
0.121838869933444
0.12219581315997
0.119853925465257
0.122664631283768
0.121838756082105
0.122049069692171
0.118765400923457
0.119430019767071
0.119299366930046
0.121414634194803
0.117496498529429
0.114953972262279
0.115724092651739
0.120122851970533
0.115861887661264
0.114797328777989
0.114779640243715
0.116354997830077
0.114797465972709
0.119073677948205
0.114932580394587
0.115533422839831
0.111385189869666
0.112421446384822
0.113024866368183
0.112074863576334
0.113392000603618
0.11589775968798
0.112562995788945
0.111231501531341
0.110766114064073
0.112983228081894
0.11163088450368
0.112651642909325
0.110847444186053
0.113953123371079
0.110609262463548
0.11096492055718
0.109377626480718
0.112491879343068
0.106664200482608
0.110159986771793
0.110292139789598
0.110194539838423
0.106454158045226
0.10895746678316
0.109353138288368
0.111034623346174
0.111010858092317
0.108612419269512
0.106526913893593
0.108999799849655
0.109278067375656
0.107767495574524
0.105767513681854
0.107684240742933
0.105733614730507
0.106719482203894
0.106753306691256
0.106065765563458
0.104883631325595
0.108247402507294
0.103603439398229
0.104232034731481
0.101752553595125
0.104952149549116
0.102744533473614
0.102250922142671
0.0990771819145621
0.0993902226825269
0.100389147307392
0.102138074131111
0.0988173778788808
0.100844466158532
0.0986563163431003
0.0985707790123
0.0956164766311124
0.0984227055664058
0.09714992714111
0.100064414667815
0.0967520826526805
0.0988135216484142
0.0978745284531167
0.0975848519718072
0.0960406225866467
0.0958022123737544
0.0934675999308978
0.095097729567228
0.093279001810174
0.0938948139285697
0.0930797310497455
0.0938697119293018
0.0896842818697493
0.0928603508942149
0.0928555703724703
0.0921837501386644
0.0891092121714016
0.0932964976089712
0.0887445570996825
0.0923594880617985
0.0895106884727571
0.0908525088736475
0.087017915002134
0.0913250744428689
0.089030887617946
0.0884173081238423
0.0881102140146916
0.0891120282507542
0.0845079278457877
0.091015570048091
0.0863508443138954
0.0861027029589719
0.0876334555578696
0.0902562313645722
0.0850256883414514
0.0859155775815821
0.0864621865740566
0.0886945690230823
0.0842126209775236
0.083216325731132
0.0817590292623343
0.0851721004579416
0.0848886823714718
0.085191823645018
0.0802592280072364
0.0824487937563583
0.0822984333791959
0.0841400930339331
0.0816972170239147
0.0803792499424927
0.0817116516835602
0.0798973747348529
0.0787861756837607
0.0838809240861602
0.0797099864640985
0.0807490395123626
0.0786276233204666
0.082387729706996
0.0801635758034989
0.0786638060881038
0.0773467003981504
0.0797838818441627
0.0776928531339371
0.0778110885178511
0.0757588355947933
0.0766170780673027
0.0765738556632549
0.0771088967794751
0.0750635478981474
0.0786381111554078
0.0743807275092286
0.0790431780026012
0.0758483617640594
0.07537027796079
0.0733655506410093
0.0762177939122156
0.0743209306545658
0.0764817923039256
0.0728476682850711
0.0741832595125228
0.0724783771124228
0.0748077824907355
0.0718739067089354
0.0738038607026356
0.0713449846769884
0.0747885462469833
0.0720073643358816
0.0726049913035348
0.0704222933439129
0.0723442373548721
0.0695061345492302
0.0740505184386882
0.0719545352401569
0.0734174948000516
0.0720551571261314
0.0745626060062274
0.071490418311165
0.0746387675414598
0.0729806093782904
0.0748375155462132
0.0707094705495182
0.0746644276220441
0.0700386337084131
0.0745899242266692
0.0702513095003546
0.07071039295926
0.0666298725332955
0.0690225261464893
0.0687816785624818
0.0664391165998388
0.0573746835129488
0.0649233089624989
0.0658294347785996
0.064817737003205
0.0590918235243003
0.0618395094922027
0.058699867464432
0.0640035910048398
0.0560768068868439
0.0618773483120437
0.0531551877142846
0.0594951149994348
0.0587101249956693
0.0607336307794311
0.0570025888161254
0.0624900519941438
0.0566894704807643
0.0657329398258194
0.0599989714029349
0.0703328065163691
0.0649252507786883
0.0698075485432527
0.0619401554621093
0.0680864088877093
0.05885264297343
0.0632778608059237
0.0615124916739609
0.0575250101926433
0.0607026433058034
0.0571225838388748
0.0588112200831351
0.0585587631587116
0.0609762437136894
0.0559954651948037
0.0588572259206715
0.0496686822535551
0.0573095239214998
0.0471082626327441
0.0639334256563741
0.0493215159525579
0.0734456119680717
0.0483346246311672
0.0781214331931313
0.0398792152248458
0.076450316581652
0.0372318167280494
0.0890292107321117
0.037579094293922
0.0859753123481045
0.0296899390570351
0.0964726124525262
0.0298517051473953
0.0916261192560004
0.0294011786647709
0.0962130916355115
0.040169506484597
0.0836531576114964
0.046948312763993
0.075844157308965
0.0559012062421719
0.0680522143502884
0.0678402653089976
0.0582449765615631
0.0722138605523016
0.0560357919896208
0.0718770021977119
0.0540827984457441
0.071245449103381
0.0590888148666406
0.0675897402440238
0.0631509106189234
0.0590545770687333
0.0650228517804528
0.0591374696837552
0.0633564378664046
0.0615068790481139
0.0615717987863049
0.0615369957612466
0.0599585427885704
0.0639541973081242
0.0590766133610938
0.061969455049632
0.0593048292712511
0.062322590164712
0.0598233304620059
0.0590198012025692
0.0594063982269011
0.0618152992485122
0.0584342732073239
0.0619389807618044
0.060221082123468
0.0608017142022806
0.0589608753709389
0.0615104295914258
0.0592010336366137
0.0609785732874219
0.0626941315727928
0.0610331665445022
0.059984295037893
0.0616215478983656
0.0594033784335819
0.0619645528178471
0.0590962605671798
0.0604557140616115
0.0588346369606093
0.0603667224694009
0.0600489550582668
0.0634518337871295
0.0578550916694235
0.0598781114773083
0.0599735394386352
0.0599487262554103
0.0605630006168118
0.0596278629227592
0.0594198906195687
0.0615028564654833
0.0593943373050715
0.0619288007238529
0.0596958151988599
0.0616014052482851
0.0594423638077083
0.0607336700179822
0.0582642044329845
0.0620141044894055
0.0587004742754168
0.0605494642325518
0.059819780220025
0.0633678510020169
0.0567202120025743
0.0604844288707587
0.0580607497746138
0.0607494147355688
0.0557842492540569
0.0591340410445258
0.0599238533466192
0.0619742742710247
0.0559631086211047
0.0589739720160738
0.0575895260058489
0.0617270563324269
0.0575532964519213
0.0605334744738132
0.0591088750860965
0.0587733315307215
0.0577447179266814
0.0590236657640836
0.0586496193953015
0.0623529146226203
0.058578204714481
0.0587315968422688
0.0570647509648982
0.0606469343821707
0.0580831078109687
0.0581065371124759
0.058667964113143
0.061357950008526
0.0586923875912615
0.0613722740331114
0.0603833084052586
0.0617223174492046
0.0569404843065604
0.0626055737250519
0.0596163531910739
0.0595883840848259
0.0587974991440355
0.0586429994507274
0.0599276171997706
0.0622589564298443
0.0593982388018263
0.0612698171183186
0.0598459509395908
0.0616936786526233
0.0600739739392859
0.0626015687642821
0.058094230361699
0.0602375143081662
0.0594262474508731
0.0608997455859652
0.0598575387580912
0.0628469151743779
0.0576441929658796
0.0632555782397941
0.0610336771244412
0.0633607048311499
0.0608009325056942
0.0604670850920346
0.0584991688389511
0.0633418681250645
0.06094783094273
0.0613074312127724
0.0595923384545186
0.0631210939632993
0.0600053703513644
0.0628339750858611
0.0601824469921793
0.0629120011308806
0.0585943390385206
0.0621461556603273
0.0584610521153442
0.0625357743245112
0.0590602977989347
0.0608608863855114
0.0590944277710153
0.0608337373431749
0.0586361071568386
0.0618303815433496
0.0593141628314194
0.0621983746414256
0.061866336598645
0.0604733363314794
0.0590939632610347
0.0625401359157345
0.059146552780591
0.0646870181913976
0.060900094478705
0.06172705243591
0.0605498018641853
0.0641629458564715
0.0624011694623899
0.0624888524389141
0.061086644761987
0.0642531317743735
0.0616144025945205
0.0642820402922777
0.0605957862177616
0.0631937380874785
0.0603611102586096
0.0632638491794289
0.0620150855612587
0.0646289069743463
0.0627378824055013
0.0639684114914398
0.0617153019885432
0.0628891995284985
0.0617076858482785
0.0655434553978927
0.0607963755605026
0.0642375156358707
0.0605990274788005
0.0635652136584745
0.0621571498167526
0.0640383203785048
0.0624684628146382
0.0650889436400433
0.062754188486167
0.0615244155688955
0.0597912234609401
0.0645565365080573
0.059179002126911
0.0619899460670277
0.0633503879255492
0.0628146769537876
0.0605857029123582
0.0624647000468531
0.0597896750139055
0.0620194710704728
0.0608374588547535
0.0608782963370698
0.0579479807365187
0.0587112977104079
0.057030808991132
0.0603548610181295
0.0579925061620128
0.062106530745822
0.0578030828368358
0.0631145661388513
0.058272277546554
0.058710770272694
0.0588126043480456
0.0590460917118718
0.0574360589275523
0.0598175254828798
0.0580473534444573
0.0615139802857295
0.0572505560544268
0.0601001335127366
0.0570199090609106
0.0599565433363758
0.0581562953749185
0.0606400897742703
0.0569616694291606
0.0592333840446417
0.0580596854493531
0.059767297282128
0.0572520540133136
0.0587982409548961
0.0575054713752963
0.057055837550992
0.0577286215900429
0.0596671602544637
0.0564095569428408
0.0602977912075819
0.0555664639627781
0.0585420427237626
0.0547880419477611
0.0602416667491805
0.0545863367471615
0.0573805192242532
0.0577791227125773
0.0596523963105087
0.059431981024146
0.0588023419140433
0.0554224177168718
0.0589485917424334
0.0546906834346562
0.0569578062513147
0.0554449318134063
0.0603980163473857
0.0551818834628831
0.0568778622898473
0.0544691995671415
0.0575172238552731
0.0558253009666757
0.058859141364298
0.0530488439008459
0.0575399878776327
0.0566324533572655
0.0589243057719077
0.0540921786265518
0.0597353912266624
0.0534267469347005
0.055736009378658
0.0554300549537085
0.0566512769404197
0.0543282834830537
0.0588521592917075
0.0581906568846097
0.0591125397100409
0.053838076876773
0.0563470672311663
0.0562939749715758
0.0583630414825045
0.0551695563202818
0.056812913790808
0.0536724545113887
0.0580012176470892
0.0537710066528791
0.0563438136975541
0.0551460428168641
0.0566776763964595
0.0538764217852727
0.0576231331015788
0.0544420533637782
0.0566385462263437
0.055712916006642
0.0568979881918388
0.0549368256004907
0.0556877480150232
0.0541335641234291
0.0543837975196682
0.0522881299152701
0.0594119591094389
0.0536937871571796
0.0553377648126114
0.0528566730425246
0.0579448994018952
0.0527618381803131
0.055478875819552
0.0562772452680135
0.0558877652434979
0.0513124779869885
0.0543560904304581
0.0524382088097936
0.0550837202421464
0.0513557284987779
0.0545399906751892
0.0529730175435412
0.0546087636165707
0.0521927668619868
0.0559433120695557
0.0511864387015875
0.0538714503219817
0.0510961213536788
0.0518753492776257
0.0501750340127724
0.0555536587528762
0.0498516196465924
0.0569631840180691
0.0536367147321377
0.0575450958256186
0.0508710811020254
0.0513479356321197
0.0469257475289959
0.0518383625956989
0.0504941314222626
0.0517904355825005
0.0507472324339761
0.0503113709971438
0.0484535370322659
0.0525962860231246
0.0465947163956619
0.049234464127929
0.0459804361348922
0.0511277145744855
0.0449696598962637
0.0510484005032278
0.0479654494623137
0.0507591228720979
0.0466202167199794
0.0515478272324414
0.0466061974274697
0.0503568297574847
0.0454622821644734
0.0528267201589534
0.0532811454760927
0.0595254341705395
0.0503396830737136
0.0498962392509252
0.0508793348041959
0.0505867832217062
0.0493004255966655
0.0480704133900634
0.0476508995418642
0.0479538217694017
0.04658505462802
0.047653152276403
0.046321832029345
0.0466996515328028
0.0454047039112818
0.0492855218716872
0.04484770360815
0.0489071031297584
0.0454733902712657
0.0490610320119085
0.0464586215538584
0.0480808137233772
0.0450790311192781
0.0475104594673252
0.0458010493107352
0.0490094825920607
0.0484180458469022
0.0537321758301418
0.051117895746205
0.0496985091440584
0.0456675847369906
0.047260684312006
0.0477775009978359
0.0467779373056735
0.0470868791383927
0.0477588927811072
0.0452913317517837
0.0481205030536589
0.0455067696286954
0.0472216447185103
0.0452689964604402
0.0487585494657852
0.0450670845623201
0.0465839174480552
0.0445884043612966
0.0458954425942687
0.0445838557577107
0.0458135706603813
0.044164273268619
0.04780323200316
0.0448515097910601
0.0481836152621959
0.0429629606257859
0.0551862520111541
0.0581221005410945
0.0525257768328294
0.0426971802113646
0.0473175779958347
0.0429686104112234
0.0465401687911449
0.0432125087571018
0.0461259944428837
0.042362657775065
0.0469048298017969
0.0440954792909789
0.0428136696562752
0.0427767896510158
0.0474767401174252
0.0403236132048301
0.0446036501524129
0.0441154328899897
0.0479617332219947
0.0414279079154518
0.0442873368700142
0.0488325733920437
0.0602813841436647
0.0466924676266386
0.0503429972598035
0.0399078961074714
0.0475978042322731
0.0553933474230671
0.0559488750141985
0.0408219446889476
0.0476093423773705
0.0422544525144838
0.0464260865965255
0.0422327595417095
0.0434240115889571
0.0462769349192793
0.0501834536681802
0.0451710005780246
0.0483521430209414
0.0423593112126768
0.045069334239355
0.0403646533250095
0.0453614633122002
0.0438913014786546
0.0453505083186606
0.0407667437742264
0.0437690245186199
0.0427556742909989
0.046770110448193
0.0410952076839475
0.0462225929850978
0.0477398047007545
0.0508732946698442
0.0420528420512614
0.0470306631363408
0.0418667486581726
0.0428651864222413
0.0502580877302566
0.0559684468696022
0.0456507093104671
0.0428645608462064
0.0442414362685209
0.044309626326446
0.0426424390927106
0.0443502754686981
0.0414886074567452
0.0433308065378608
0.0420312523130285
0.0473109734973287
0.0427920329883585
0.0450472144459914
0.0422059369608307
0.0459501943558845
0.0426834343645084
0.045913345120687
0.0430285475276565
0.0448782385380441
0.0424818561823448
0.0495252442400841
0.0558785246869829
0.0691364398346824
0.055381817379587
0.0556992732523877
0.0475992753303831
0.0457567814016862
0.0435394095669924
0.0426758649948894
0.0449157041146001
0.0440214581236116
0.0440139637051224
0.0455795888275698
0.0448277086627527
0.043124623465375
0.0431677171142103
0.0441981007607702
0.0417854179018715
0.0434123231345268
0.0427894636939546
0.0432051768682959
0.0435996723316621
0.04438390781066
0.0446125361854103
0.0516966600452972
0.0527144025228818
0.0435840984600193
0.0487165678038521
0.0706948600294871
0.0682022774881051
0.0535817985443306
0.0459543288518399
0.045482539255361
0.0420639038537281
0.0438590766776635
0.0450487253296975
0.050420940402331
0.0447138146701725
0.0469083807922348
0.0429683271488235
0.0499991091687306
0.0444279277596818
0.0441019336569591
0.0547851729282024
0.0739842128091967
0.0571506508864245
0.0503203399337301
0.0424572872072831
0.0602536119785503
0.0609621851785894
0.0525523171673631
0.0440880763946414
0.0519198877736455
0.042034741935126
0.0468482815840109
0.042066384407308
0.0501494288020447
0.048364829708827
0.0473494817474524
0.0447397529094061
0.044429547349923
0.0427252042312319
0.0522694166070612
0.0488572920889578
0.061711400815689
0.0530029621112404
0.0493043564465139
0.0522482948450297
0.052975710687328
0.0434096054672917
0.0502150817798939
0.0457699640003226
0.049225021052121
0.0592201312227263
0.0628079901995392
0.0541970027795761
0.0644964602380331
0.0552503135615438
0.0514063199877583
0.0515931779223001
0.0622061403518286
0.0517441815970759
0.0481510708224941
0.0606109417097376
0.070888788311559
0.0708863722610828
0.0620609456306455
0.0571160540692263
0.0492958133138404
0.0534830269172228
0.0458127122288079
0.0559458274609149
0.0625676973249048
0.0556371239547616
0.0498984010888959
0.0473577331648889
0.0654940457581372
0.0611564884745932
0.0582116162900571
0.0542512721154625
0.0533137347516636
0.053362664060599
0.0674077310219485
0.0534443067567371
0.0610028074463489
0.0696844395134853
0.0942439906506628
0.0731312473634054
0.0591970738113152
0.0580054070347885
0.0869763867372784
0.0625744650085187
0.0551977717817448
0.0549070510568606
0.0596174920206484
0.0510942583929551
0.0647330106510307
0.0802939048431421
0.0664992888247314
0.0542404496394059
0.0594877073346381
0.0577848616551196
0.0771407668971142
0.067490741163194
0.0577448917528797
0.0604881963429698
0.0604674523617001
0.0627266401984131
0.101302010211361
0.0757113452577026
0.081745094533771
0.0807105795569659
0.086654617846129
0.0739934904079242
0.0754746071369827
0.0658688175960638
0.0849885522567051
0.0819275089014296
0.0730056148269077
0.061547404917854
0.0924097835922453
0.0839897861826461
0.0778905369049484
0.0723210414471202
0.0727479222353248
0.0714995098347806
0.11699371134454
0.124949876909415
0.108855074551389
0.0768128116067959
0.0870758674800845
0.101445236360436
0.0864901936121329
0.0789129909507799
0.0803197761885852
0.0781277147421378
0.08005022177166
0.0804934109938497
0.0939537839796694
0.0839843203583306
0.0904826552947473
0.0823870448374478
0.0922707835838735
0.108307104615912
0.15072440208618
0.121522549338922
0.114997339068873
0.128277110634269
0.121240812196171
0.104150991211812
0.0973979145932769
0.0944022986756005
0.109899584332756
0.0997165196925432
0.100026993121041
0.101251350845136
0.132570906671229
0.118877254092498
0.12291044782226
0.121808023265916
0.119592929883276
0.110433613760502
0.14521944369881
0.214532323396443
0.159659672403329
0.131104241532829
0.146227551916437
0.151422908191501
0.204497006449966
0.150045045218846
0.143832557554605
0.144795407484197
0.149978083890814
0.156530226023127
0.170938819189577
0.175089652463089
0.190078858035089
0.173485987095853
0.184194876961153
0.195696528336808
0.273470013570425
0.248708601314678
0.217096844231576
0.20733339185225
0.228694862231978
0.22984854490521
0.225351129722504
0.223256342476377
0.227638756529367
0.248189876182875
0.283678803204317
0.254598547962297
0.252490357809883
0.268484819019341
0.288822941597207
0.274295246985833
0.323916897703802
0.308141615922949
0.297923619578488
0.290257808330647
0.304128842436822
0.30084039198207
0.308212004428295
0.340214511103723
0.344443134677594
0.32397619389129
0.330757185486759
0.328859509779747
0.341112344535053
0.341653781715686
0.349951656779936
0.353218103742505
0.399390974486469
0.39268465759343
0.55370332317551
0.383097776360519
0.36269492510982
0.358156778152416
0.373863056826624
0.395406491114939
0.399394476726082
0.402475068490415
0.390676167361763
0.36366456308899
0.368753938640055
0.36373308926265
0.369086329520073
0.361873771060988
0.371341103864166
0.357827613898138
0.392000521990013
0.374993952442184
0.431583563926067
0.415516531372707
0.374893049590664
0.35779340712346
0.365966550358179
0.353637778907772
0.368699188388673
0.352620084466878
0.378836844353771
0.369141604780102
0.363197361434139
0.346668620244016
0.342530541585436
0.373783362031284
0.381055889815788
0.340435891324546
0.341815567095405
0.326161139783844
0.338054583955798
0.325968570596804
0.357067259244585
0.359868204061903
0.337442475549431
0.317208862180335
0.321595840838132
0.311102724977701
0.318086964691153
0.313055621062616
0.326237383943544
0.31545974300778
0.314708958480726
0.318347971822003
0.314371053373569
0.309045850378537
0.317054706262814
0.314861862406212
0.312777947791637
0.309876500855002
0.314321483028135
0.31278334451219
0.315538438641238
0.308100503881825
0.316677759500589
0.312049388255409
0.316319839107469
0.320694880208595
0.319615859629352
0.309782187421549
0.315880073417424
0.310412838016626
0.320381304537438
0.31152708625459
0.314174618630697
0.309324597924024
0.312576251550976
0.308042608835971
0.316876480377626
0.311155115796089
0.31180979143528
0.307648981744031
0.308346180688841
0.302152934735784
0.314431983032728
0.307471793631616
0.361755558051874
0.320977762966103
0.299990861499026
0.299736842211758
0.298420556861144
0.290580373239957
0.292215639941517
0.324672914481306
0.316845006570282
0.289941586100791
0.285176925870671
0.277771689265973
0.299632958101801
0.281765817458337
0.27214678977664
0.274432993111739
0.275725755159783
0.309364386911948
0.348774113825212
0.359472575591841
0.348911777356785
0.284162019058542
0.26450746758365
0.272881790542048
0.300033039741956
0.261932073411669
0.264964407018997
0.254793991512061
0.31159642909775
0.271772887885136
0.256823970259154
0.255431530887945
0.253281934249323
0.279671682008535
0.285369984391462
0.260604059429621
0.283116283949535
0.284570741297748
0.277352194998611
0.301646037302707
0.31537712199278
0.26995283185351
0.239538023037944
0.237451128747876
0.237137332160425
0.245916893553945
0.287058144105302
0.238779869604627
0.248316087975557
0.220770320616846
0.221144601261043
0.223164389533308
0.239938164691021
0.227624683659008
0.234228446376434
0.243340994950854
0.214372578322034
0.232078668131804
0.236417026120904
0.252179399311913
0.269030116185084
0.22018983513924
0.212225712713577
0.244838800440454
0.247982023845197
0.214962193679874
0.222398955724686
0.189946140700021
0.204701493442355
0.217080838511379
0.196989755662899
0.215324405962506
0.213475461431132
0.218975525348992
0.258160701005598
0.265273745909388
0.250875869564519
0.196014248212473
0.181263882344832
0.180977313119347
0.187943800070421
0.183793017418566
0.182448251346344
0.212015453645853
0.195478103001237
0.182224818966647
0.238031191331156
0.194629819194552
0.187962708210188
0.187899064386589
0.186668406795223
0.19630106361245
0.226274620688212
0.231377654380501
0.21418039021253
0.216224462635695
0.228800946418883
0.204055297208573
0.212717919757903
0.204685308771372
0.217220612495376
0.21235414302477
0.239093050372116
0.224240622427466
0.233230458706613
0.231028232579362
0.24174477596685
0.263267548871876
0.280297917318202
0.244728118750899
0.293691459815383
0.287980346393354
0.336478470211403
0.287494702505546
0.279865416941638
0.283134295824646
0.294095939215465
0.289972617189713
0.297605506385388
0.300218709660401
0.340223994566375
0.304979882103652
0.320032018434472
0.308589794912996
0.327511053007373
0.323522652666994
0.364514524991282
0.35863168525252
0.402519826711142
0.384457241155337
0.364372452680436
0.353792551263147
0.338578103166414
0.355347890174606
0.354785635736673
0.346861687681049
0.354994582316416
0.350809409112424
0.386258595673286
0.356055194148042
0.363687902458119
0.353315106490594
0.361381609321577
0.358729322722693
0.368914867174827
0.362825908997406
0.369694925830372
0.366827588479972
0.378635091801642
0.367720501351488
0.449260457580278
0.39510762634968
0.387039853462455
0.391495871447812
0.401850805373424
0.39629680167054
0.401163898362164
0.424980625815584
0.413893737408591
0.403050421040626
0.412705839277956
0.408680301769819
0.419200498327333
0.426098373136736
0.44822670567114
0.419161850771629
0.436049287365417
0.423159512513138
0.461780092479008
0.477546557550529
0.456350961477427
0.458409852416587
0.43928653601331
0.445704276891982
0.43656848338382
0.439404445122705
0.447045664718187
0.447539870105644
0.446810142854562
0.443287932144162
0.449819439016723
0.442397151098827
0.44257659913274
0.444942780993204
0.471857111658493
0.442251754988144
0.445249559686139
0.442586784587554
0.438805403779406
0.442325793651548
0.471004734630465
0.452332264791013
0.44352886383672
0.446387618559697
0.451710711723289
0.452012808569459
0.453312444064416
0.433184879232758
0.438945404359493
0.438242479419231
0.438700666288642
0.434614790646133
0.449742732245827
0.470828947981068
0.454197824532819
0.447371742377479
0.446668648345996
0.448271823692593
0.440019819773974
0.450818995802331
0.455520249651264
0.454541946903242
0.459876278900654
0.463544629246574
0.46058824522052
0.459791893236643
0.469083022742555
0.473714272245442
0.473087685798916
0.45881917899571
0.460796396627166
0.454519300976258
0.451621069265807
0.457287404193748
0.445343939541076
0.437844089671911
0.437264726799879
0.433943876588877
0.431699835362483
0.46149952483273
0.429619512768074
0.432787619986808
0.424913797440555
0.411801131595754
0.412579768343349
0.404194642678723
0.40742739551029
0.403484863015383
0.407716516496747
0.397044695561389
0.395568200036076
0.394277069039507
0.396310221148224
0.39258499559379
0.396740073329708
0.388629723438982
0.390941411381252
0.389985298759949
0.393681367790673
0.389599430458768
0.385215201828864
0.383868646166549
0.385309883790209
0.397519665255151
0.406635091503185
0.408629542878477
0.391894445091462
0.387613205760848
0.391181848003662
0.377973596801741
0.388307675434541
0.376946477941704
0.385540378161058
0.378234818440597
0.384197538687834
0.382655059689092
0.386315648902508
0.379386745662979
0.378361001290577
0.378428038093966
0.383356762092938
0.38194409416506
0.378570250932236
0.376594551880385
0.384400647069411
0.381556336988721
0.392212565778358
0.384378723185941
0.382657798265767
0.384634978071291
0.380731632975909
0.383891692504056
0.382075618603564
0.385657247011257
0.383391505410082
0.378492127946752
0.38174658182093
0.380030018968786
0.382654580213418
0.37582235114696
0.379798497739587
0.374860301272665
0.374900583452594
0.371407381983334
0.368611626437404
0.367251403569651
0.365188956526303
0.360550393915868
0.361226631685478
0.353196496281608
0.356363536502492
0.349281609465991
0.348309974194009
0.340474690397452
0.339905937147713
0.33334075756192
0.333280201875987
0.332660152855416
0.332291420024057
0.325935059540374
0.333683033024051
0.325876627106902
0.324215652337092
0.318125245367052
0.32200471805692
0.323767571254905
0.321617556249023
0.322730206195419
0.321749546163043
0.320515796270047
0.323093328512749
0.321083680731809
0.325251325820925
0.322019120268116
0.32563188235361
0.327107327702877
0.328919612439579
0.329992393292202
0.328098241401321
0.331671156526766
0.33572040686976
0.332449931402005
0.338841026650289
0.334582289542458
0.339107237812887
0.336492831583169
0.341478538984914
0.343034910951087
0.343530610468145
0.340627546050871
0.343204721580608
0.340974643671077
0.348285288035618
0.343378577311687
0.347041435035757
0.343792866550253
0.342074675784159
0.342810467390191
0.342322987087502
0.34028172296379
0.338465474539786
0.334996829708072
0.338043903580304
0.33679431333641
0.335851738701574
0.336932220715204
0.336179193793967
0.333168755159038
0.33441070732903
0.327990799892896
0.33238221093594
0.327488169883281
0.327476265352495
0.325512495028105
0.324322178667554
0.321697893465788
0.320471389754834
0.318434113157807
0.320194598737227
0.318976922000954
0.321174814251286
0.316598948477232
0.315527572297075
0.31441768667339
0.315276958173631
0.312601429052068
0.313506939569871
0.310763123910302
0.312005645601672
0.311373003644098
0.308602693672968
0.307395522260594
0.307315657477734
0.30454514674948
0.301766328407243
0.300247673652592
0.296314945699043
0.294963750115
0.294786192598549
0.290024860909551
0.289124155263097
0.287002398778864
0.285667360822078
0.281747352375005
0.281479256440999
0.277401234723575
0.279015341703081
0.274837859668689
0.273519200181411
0.274165255366245
0.275317817413615
0.274634379632835
0.272586248325008
0.271827796185644
0.273994238637237
0.270479455085344
0.269277611082851
0.26791485735537
0.267546350392583
0.263827653236431
0.262141341299074
0.257383268619267
0.255591658829783
0.25068597078667
0.251591284290579
0.243642592890746
0.246029024424801
0.243218677495619
0.243235980598486
0.2404465049519
0.244713127127726
0.244524470540876
0.249296189280284
0.253185502931969
0.25980158216196
0.26609152030668
0.27422171944908
0.285354926480385
0.294989563405479
0.305119813406464
0.318133637154442
0.332610750948862
0.345600074319091
0.358468812662859
0.372417949425702
0.383099210898874
0.399126866701982
0.414286454138392
0.423364484446323
0.437032149478673
0.449931868179379
0.45956124362505
0.47069424366301
0.482930734392394
0.496365542404439
0.50549762775491
0.513225784375705
0.525891376254288
0.535211488944088
0.539864559717921
0.548177764350644
0.555231358617634
0.564257895412373
0.570821912052771
0.577676118375671
0.577488836512981
0.577596199918021
0.582513966571797
0.584569093954789
0.590599496621669
0.587418592233455
0.592307059628231
0.593162819632095
0.590760676067301
0.593905261909674
0.592434476922858
0.594918274848864
0.594408161683599
0.598697082434512
0.600886442485921
0.6046871984892
0.608476616175246
0.612170427522384
0.614194109326218
0.622044931783824
0.621656812055899
0.632375698545254
0.639978461049931
0.640971002789998
0.650340787113427
0.661172661005191
0.666432481462863
0.674703993121771
0.67621003458801
0.696595309578929
0.707201174335115
0.712023020686153
0.723785622651069
0.7380168995532
0.747358743816769
0.746295488347577
0.757606171572698
0.77078592220057
0.764282520995149
0.766743346394645
0.770621225772027
0.768893155794545
0.772427862319431
0.772116281097722
0.763058884151632
0.76603459440333
0.764824441662769
0.757418575226336
0.753698973577324
0.7534526334916
0.759815968159183
0.759486818880833
0.769045229504789
0.7801913768846
0.795035204190384
0.799067544009443
0.810599309685846
0.827863523004146
0.838221495858304
0.850871190919914
0.869174007164953
0.881494983442726
0.896845460442154
0.917163592348656
0.925535744380223
0.937505223498964
0.938244365260936
0.956319391698333
0.970401917168546
0.991492522913379
1.00648310230189
1.01621615365236
1.03985588620991
1.06147607464208
1.07211504336674
1.09489769363119
1.12031885832643
1.13851419592928
1.14011726426375
1.17242061733432
1.17785943124427
1.19251312515768
1.21940962612198
1.20963184470254
1.24272349398079
1.24498855699416
1.25052074713399
1.27859334493184
1.27926524020454
1.28954646332541
1.28750201491379
1.27700191143144
1.30070607881743
1.29179967693099
1.3041129897469
1.2969207213264
1.29230479759361
1.27247274003392
1.27162753723297
1.27906004479387
1.26152408599082
1.24404104242532
1.25739661993886
1.24740178671986
1.26189670555388
1.26303682408407
1.27437401470474
1.28553693471899
1.30838581275007
1.31653554727056
1.34700308676667
1.34080503736087
1.33472725438376
1.33540079681087
1.37980007575348
1.36923447827806
1.37780297455366
1.412454156218
1.42745779387008
1.39014622648712
1.46059964347759
1.43179271733646
1.43294438852113
1.44908867255667
1.43973872815323
1.40535171498617
1.43773985624147
1.45439581075273
1.41022710537987
1.47979160697344
1.43309918030408
1.47946939261628
1.50620587600929
1.41137702474513
1.45309765749234
1.44708404142283
1.46610713766626
1.48087415058937
1.45271387353444
1.42472348223267
1.45353779850038
1.39947325128609
1.40684450067077
1.39658934593395
1.36351139465098
1.35355655112054
1.34862742050172
1.30220663531353
1.2751763206631
1.28101289173025
1.24704470248289
1.1991448698013
1.17686213922032
1.10918702872111
1.06537880169974
1.01954190049229
0.974413435117747
0.947107055936688
0.910136669572797
0.885707935654295
0.861026839938727
0.844546453101699
0.829521175729284
0.807446562593529
0.792289915289352
0.789384921417428
0.781652705401637
0.774486329501902
0.770914613633984
0.765995518080987
0.762551967277632
0.746196426556393
0.738890278097963
0.720279146427511
0.710369130741624
0.703928955827091
0.696447099590991
0.67242678220707
0.657611931301339
0.645749351676678
0.627360594781711
0.608646949618613
0.588625678624996
0.570200099362328
0.544226948333421
0.525354669059949
0.50554886347984
0.484472680781748
0.462595147637365
0.442384686996157
0.424201998678324
0.398616415251932
0.377238454436313
0.360474933654496
0.34591344689286
0.329420540539442
0.319435690707564
0.303889139794917
0.29394166681889
0.28290466087951
0.274011897053654
0.26279310508159
0.256146723224632
0.249446719936167
0.243280045979328
0.237813519620107
0.237978361409951
0.232236592287757
0.229697305704999
0.233051840011977
0.231978353160244
0.228390647119871
0.230858972774705
0.228903034543259
0.231533165289254
0.233341119962102
0.235451355593509
0.23299428903155
0.237150601010823
0.236751250362535
0.236544519343328
0.237376999605157
0.238628821699127
0.238223521324268
0.235705796594666
0.235709651055868
0.231378674010244
0.233554178178678
0.232373184545213
0.227110544576425
0.23015138327958
0.225627149222352
0.222405520966294
0.220940077310414
0.224472806584201
0.22299829829373
0.22269347701074
0.220931653235903
0.22220474284618
0.22454750557778
0.228931624194415
0.224340436682036
0.233218571496899
0.231175338941938
0.232795489540197
0.235017516455095
0.238820315468466
0.244104123352537
0.248818272960379
0.247414399608649
0.247285884400543
0.244834432497535
0.250717581758968
0.249961515383598
0.255343643657217
0.255866608496151
0.253043831624728
0.257611295439629
0.257654952705335
0.256730206582971
0.255807706592395
0.258815056023816
0.261683784283835
0.25915488792401
0.26795320081771
0.26916532255719
0.270873301546137
0.279582964159076
0.283773883512443
0.291221557564414
0.303271805016774
0.309490247817151
0.320747390329517
0.327438432787053
0.338560480538027
0.34785264127282
0.349304800672872
0.349155314694022
0.356934512343757
0.356386109508041
0.359794588480159
0.353138339995141
0.343482362477411
0.33693430927807
0.335919741696889
0.328597370125646
0.326418088574348
0.314516377816077
0.313367885506752
0.30748827308997
0.313695946518065
0.307869291257818
0.305297524205738
0.306534617740976
0.308940473899183
0.308637530992882
0.309787950294888
0.295684066655118
0.309971742968858
0.308438771306774
0.305103961097524
0.300660398505964
0.30150576748394
0.293414704050088
0.288785464875343
0.291707346373883
0.282565210155483
0.281565909677647
0.283919993078006
0.28373488760408
0.275714938412563
0.274506223478838
0.27216903984948
0.266584918064514
0.272470308471839
0.262634403318294
0.263984562551394
0.258267695042927
0.262750455732844
0.25866325618736
0.260339015755096
0.248986149618069
0.251069962093715
0.252010000662749
0.246378342660438
0.246731655367902
0.251457623754162
0.24599167056585
0.243488928997584
0.239943363502375
0.248706724889747
0.241097030827787
0.235898694496173
0.234705232529657
0.232645074903057
0.229986387998478
0.232742537296527
0.231908426732925
0.231151909820327
0.222144727896505
0.223052755755918
0.227431233021971
0.225937428789112
0.220234122396414
0.228897923492123
0.217627782473465
0.22552928150545
0.228720422740593
0.222012260028279
0.220981158880242
0.232008230699469
0.223429942343857
0.227478727218164
0.218833470118416
0.229835293713734
0.22134469315641
0.228051640070942
0.227170018487845
0.219319463144153
0.236452810565592
0.245258744962166
0.235391392235361
0.241940130795221
0.239682536836227
0.241461567167229
0.239731003941671
0.238535935717842
0.241556671542886
0.250343257986616
0.247498735901427
0.257122315212649
0.258370579757383
0.263483650284465
0.265649017821784
0.274997630726216
0.271472477421376
0.27815517998635
0.277198142963626
0.296073534354583
0.299590128935517
0.310814307824788
0.310837382576706
0.32596465885513
0.33770078678953
0.341884901440901
0.345648730334905
0.363079810094413
0.366323266521842
0.398835902788959
0.379474887617409
0.388981637459818
0.414782316557655
0.422433680847436
0.433362212666909
0.441474923792622
0.429673015268616
0.440445421761573
0.448515556481117
0.427727662005991
0.426772757650986
0.431484222353448
0.430282176206002
0.43424284444778
0.425861270315556
0.432736655388725
0.430158611975352
0.415924901478028
0.400475316622748
0.413670074593273
0.399591682891418
0.405788018378298
0.404076058933495
0.397432717269913
0.397430965766772
0.413191641762572
0.387192606189914
0.375431203748318
0.376112267759328
0.389276027955532
0.377737316975502
0.393577147071634
0.377761285176534
0.370135197709981
0.373474278748562
0.364047753527471
0.347008236339663
0.364660209596479
0.358277911523338
0.372217617981468
0.363471817655429
0.363361887971762
0.335933593181091
0.35641266424135
0.356492202304615
0.353134505285055
0.369375770646294
0.378904381068105
0.368516495477496
0.394329971871698
0.367104158668665
0.368355484577938
0.376949529444634
0.376752456753876
0.348176296214421
0.365101771287562
0.396082869668563
0.390609107456524
0.366628460432713
0.361505166766989
0.381754932639017
0.40033175823092
0.400310916116563
0.375968203331602
0.380445932952068
0.409942898237572
0.38394343665122
0.381122623221325
0.384091175841801
0.427769059743685
0.385252333404957
0.393777389696039
0.419842140115313
0.411642469855187
0.389370178685155
0.43730665078249
0.434292595536015
0.406901254452071
0.378720640902176
0.41883915182414
0.437559294229332
0.436212077025175
0.457416411855602
0.474341702748944
0.476036679277795
0.481782547767212
0.489604812846665
0.466749404379622
0.493401267218051
0.546202258864259
0.553704309404945
0.622460741909454
0.5867893125833
0.577615678498121
0.541322846025483
0.493044487348557
0.503569030691806
0.59824403485231
0.501302054486206
0.491626199458933
0.485271214692486
0.516162448665808
0.466149614860823
0.487367082997813
0.487648227897755
0.394533563799481
0.44663773760319
0.509957233685291
0.480412166730031
0.469365182449443
0.469492893359134
0.47075436854094
0.444188745095653
0.455657216313409
0.440591557153641
0.5148822581754
0.540345255018604
0.454732645387081
0.4914427601833
0.569987004664917
0.52898770268113
0.533762700966524
0.500963428550154
0.531498855544587
0.512578536644203
0.499410652300267
0.464574101688716
0.569808232870812
0.53428429590737
0.372363915664324
0.531745959266913
0.646182717581962
0.543204945017344
0.599984537280307
0.650566508478965
0.541322258756079
0.474228225651214
0.455743714419184
0.592192617137643
0.416781783981092
0.434409449529533
0.426661119718123
0.322113219196535
0.483890920784455
0.540627852712666
0.609045402012813
0.612764679886152
0.605922049395075
0.458608439904015
0.71509276885913
0.678990229196208
