3596
4000.36533379555
650.420452594757
1
2
2
0.0601582353856851
0.0620081786540863
0.0660088446094799
0.0736746238015544
0.0636540737728519
0.0628577314203546
0.0698282410746203
0.0726708374473077
0.060316010307208
0.0765742075838
0.070704552538264
0.0685432991448908
0.0654944285227703
0.0698667290167957
0.0671323370011248
0.0696414943238021
0.0637222108015946
0.0668704891305477
0.06010917268478
0.069191708003503
0.0679458844367144
0.0665595287415272
0.0664109653375411
0.0634651268118904
0.0669689185923974
0.0788021932857297
0.0682095994716427
0.0748098744420027
0.0629000024384259
0.0685921216298602
0.0597087864625011
0.0695778464416557
0.0632039540547926
0.0792031431251195
0.0657551159857705
0.0728810588866535
0.0678605615817143
0.0746002132877561
0.0611011002836957
0.0715660202329412
0.072656928335275
0.067455720807764
0.0702728420240668
0.0658410087976669
0.0606791696064712
0.0750614251125346
0.0650610857534786
0.0734815133236784
0.0635561136492573
0.0694313959434794
0.0664169293834702
0.067387977119998
0.0738216185637255
0.0761318383810604
0.0631208654247014
0.0810061744162114
0.0745692981215715
0.0677344654811114
0.0599791804250844
0.0727805889668589
0.0804315556905666
0.0815185101724286
0.0664734719454625
0.0685025734958114
0.0642909416468162
0.0651560844099996
0.067732862286163
0.0688849684705202
0.0589621452382855
0.0623106553987325
0.0672664823661767
0.0803257027675338
0.0810397244657933
0.0630551778376027
0.0731943630383991
0.0708884540197092
0.0644561064333247
0.0675350541042371
0.0566006133759725
0.0776078499139107
0.0775676029297658
0.0711710126902301
0.0637005547963725
0.0528908930111959
0.067481635675423
0.083127052596841
0.0656105354266119
0.073982447382323
0.0874372352555693
0.071832926149022
0.0601651497812618
0.0695029249851303
0.0627866741736149
0.0605237361747753
0.0630889016857297
0.0608826807190961
0.061507722108331
0.071202067457257
0.0602407201753947
0.0713536331380343
0.0705469280846289
0.0835440670631031
0.0984339930164151
0.070601211611867
0.0981047245543376
0.0898567412193507
0.0581322446712157
0.0961659757561247
0.0747585389042807
0.0648202310431259
0.0634398677488003
0.061349641675521
0.0594647263112562
0.0677495752852127
0.0561330065029528
0.0737753811822441
0.0990090088428179
0.0755468007271407
0.0664479512311521
0.0667067414782756
0.0520306402038649
0.0924301742948701
0.104108519523114
0.071751631363642
0.0693460385380803
0.0646588230648938
0.057815130928231
0.0958773144988252
0.0885521618494202
0.062603501283892
0.0595450948173242
0.0664965880881116
0.0499756876173633
0.0619112312844297
0.0974639984321184
0.0771177802727907
0.0580097521287039
0.0614080355432444
0.080355376366594
0.105415262582493
0.0843396065711764
0.0670218072287263
0.0557329711073803
0.0735815086833911
0.0907931422309229
0.0718589620660783
0.0655196942303066
0.0836700078601992
0.0680817104206498
0.0602703589260958
0.0648643370989428
0.0539351401898188
0.0776757147702205
0.0773811686509877
0.0335275111341763
0.0950266253377045
0.112374747688198
0.0976247791313185
0.110415726037023
0.0709890352586013
0.0627962150999312
0.0644050352104216
0.0643261989105935
0.0613417129550088
0.0593942281858441
0.0584201810144545
0.0772280196478166
0.0858387169188115
0.0586542659535666
0.0649212977680194
0.0849283316812903
0.0736081191222764
0.0540415701101271
0.118644509704068
0.0799008068976862
0.0615475771061887
0.0907044946263795
0.0745335119809193
0.0529316910541741
0.0686938517463912
0.0827235560841613
0.0663229412341236
0.0650729500331671
0.060885341323293
0.0605706704100735
0.0726559723986896
0.0675921662699271
0.0643371951607423
0.0659076164903271
0.0519425733950011
0.0655339686628544
0.105611146688769
0.094483498445186
0.0714891804654423
0.0645351075662726
0.0340585505127686
0.0826676473197039
0.09658430497734
0.060627565673604
0.0633716989072351
0.0586677254295161
0.0616214137057165
0.0566278212104495
0.0617119686485829
0.0572075724513879
0.0469193321610493
0.0885225370984281
0.0741045216231426
0.0550289453467251
0.0598226016516464
0.0596611786425022
0.049081312667076
0.106498477696103
0.0957674615528839
0.0634553615578069
0.0675373992713701
0.0556881696859802
0.0753866760883723
0.0721921183445056
0.0592611162508423
0.0594601278398756
0.0568227793728005
0.0578345317310108
0.0679586655102329
0.058049340817915
0.0664402922776869
0.0557495455109821
0.0623257395906308
0.059052052430244
0.0617239767996863
0.0683913709635817
0.0641012608501124
0.0563559297245169
0.0602976203669806
0.042972635078001
0.0709962356558278
0.0824055127259799
0.0652721039750201
0.0592005886918459
0.0554867464509644
0.0596373014033334
0.0600001178632108
0.0546810327034004
0.0622687086753281
0.0558221358826179
0.057817084396326
0.086342118188458
0.0717994057584208
0.0605401901214413
0.0533416226366802
0.0734596383555731
0.0772103459849884
0.0630066308491929
0.0577172971506583
0.0631034519151937
0.055494833710571
0.0545603626270552
0.0962220446788285
0.0704313215529256
0.0576618788949025
0.0728675866381654
0.0738498640982196
0.0666166687130746
0.0566900242760381
0.0520586488781468
0.128289504659497
0.0817756389806162
0.0515577601831944
0.116390330454934
0.0772449502634982
0.0728759269797278
0.0597832239005925
0.0304403419084844
0.140858703103234
0.116278734831122
0.0650598491796067
0.0598581100312204
0.0774699502230905
0.067501482173896
0.0734264813491234
0.0697919249610066
0.0701905044274096
0.0908887611178891
0.0990889760854073
0.104857932196138
0.0594046746498357
0.084541951139078
0.0912574739477905
0.0682173801509596
0.0640739259253072
0.062002055454582
0.0583539395126916
0.07128462331728
0.0811078866434364
0.0753793111326053
0.0687112508817397
0.0641679355666784
0.0871994009452814
0.0705618810360453
0.0599590438769681
0.0712839547644346
0.0798447932400155
0.0641194844740017
0.0591559413792926
0.0638729165609564
0.0701401919693881
0.0594365421128944
0.0701912721743012
0.110463071895121
0.0834347540380357
0.0692579004930613
0.090469902288002
0.0689105117806637
0.0679862174278183
0.0657804462966837
0.0543182684518053
0.062313045142691
0.0531569678474421
0.060599296467539
0.0837106310231251
0.0694042575002401
0.0681389445246806
0.0620719974206021
0.0638448279913318
0.0615028256232042
0.0699324603309321
0.0655909563568759
0.0616226371563988
0.0668586910195336
0.055748631572684
0.0770855982201555
0.0908598176152508
0.0606867984518644
0.104174740835847
0.100546685727261
0.0753101239417808
0.0698050668583931
0.06620893204542
0.0692136555614747
0.0687300427020469
0.0705700456436681
0.0636590206764985
0.0686058270518702
0.088271622005798
0.0759805123118978
0.0725427144620499
0.0659552592227982
0.112065994621476
0.123124184075191
0.0971388550160639
0.0797472655253059
0.0652641440884098
0.108874087437072
0.0942078986842579
0.102400502720516
0.102934814988943
0.0837892534485639
0.0832421191790825
0.0772827906452033
0.0806506409579536
0.0708387640817147
0.0887077233577417
0.0722209907458081
0.0852615104724034
0.0878002692115306
0.0887716395453644
0.0764723300329896
0.0892374088208968
0.116397076936406
0.10231640657774
0.0892723013591374
0.092382573091891
0.07829899843537
0.113047897480577
0.104138158406677
0.128461929571021
0.124377575124784
0.12875911239063
0.142303681633262
0.108257956473016
0.10436328135311
0.0950622606799358
0.101901631274496
0.10406497442557
0.106426441553409
0.108683681096925
0.111117736288737
0.112982492923674
0.114520541725077
0.114276641137298
0.105071465338788
0.110535423892625
0.135406312484309
0.113224813048346
0.117571673144569
0.116411131030496
0.139122803609284
0.175391310256145
0.175389764479385
0.128748546048327
0.135881317555168
0.128191219322804
0.129422071147859
0.130129994264825
0.140087014389735
0.136885750820824
0.141211441546354
0.178320077682183
0.154814118744448
0.174198613210987
0.164473314581548
0.146965072268102
0.168661263911893
0.14981336685571
0.176445982456584
0.18804722986649
0.172686845657844
0.149450436382689
0.191867815073523
0.162483880291196
0.180998173495649
0.183571988029854
0.17225720543445
0.175388470196705
0.171750328161436
0.17672753919373
0.173798356527726
0.185918390659526
0.196614648341482
0.187242208079852
0.192796402433237
0.193619040858843
0.196733371913784
0.215930908759691
0.196340655164829
0.195929565136177
0.213107503455577
0.195140342837532
0.214621201025557
0.202285769948033
0.241771305613957
0.230402604792374
0.248948292422517
0.247471229738938
0.225274274746477
0.219993233959033
0.230079442184876
0.24156970350554
0.236460858782742
0.229793885353307
0.239230579935189
0.233898162848612
0.25386425529894
0.252545243112394
0.254915091750882
0.260144584053609
0.260094266089079
0.263855883800471
0.252870118752469
0.254522627340836
0.276456608299107
0.262776535181894
0.282569344365686
0.30303639758364
0.335060853051015
0.324921578785876
0.290130653375338
0.304817888222655
0.297314520988841
0.285701703611791
0.290804226933865
0.310480338976846
0.309732269730793
0.304608266173863
0.319693770024691
0.322280060851028
0.320334135157219
0.314393011493645
0.314375821103479
0.338446425791778
0.349210354041907
0.340411107401157
0.351847463374206
0.33785563839356
0.354288763180097
0.353603149688863
0.365218265122682
0.36787884842533
0.384337407734544
0.3538306315889
0.367571285804327
0.358718643513279
0.39480743890497
0.373261654424123
0.388363867300815
0.370015954611324
0.414916029311555
0.399832618819308
0.405023730516541
0.393272915178071
0.399898528958661
0.399175645891768
0.41189880454325
0.412254613245742
0.443121894575522
0.417623953644701
0.460432709742495
0.4232471337476
0.466545534780701
0.410526378611234
0.443948816423607
0.442986945913672
0.465118037042772
0.449054341816116
0.457891979111616
0.469413691605503
0.466849841503742
0.464229115154775
0.478295016964459
0.475719206598817
0.500475733315357
0.473374641618504
0.498704043118518
0.479728165806583
0.499406896506342
0.504028600653037
0.524694205545489
0.504330040970807
0.522893252932876
0.51130403087598
0.521551938678034
0.516756345228334
0.539468292119676
0.52945425181369
0.557103881112572
0.554517276118254
0.550510761870117
0.533939506762078
0.570447137600653
0.572300848528033
0.572054789770151
0.582097027415642
0.584557783304231
0.549297559513867
0.589540661607662
0.575648871248783
0.588963388426532
0.576795315099889
0.601295412249565
0.58892133748173
0.638330721907081
0.597350857057027
0.667830588477611
0.601977301871702
0.627420171204056
0.638364895089673
0.65374356179188
0.603128045465999
0.638931937952431
0.634298261910965
0.665208098124053
0.637686850146295
0.67252010174964
0.642074818124845
0.656134235558272
0.662051229073794
0.671618150256692
0.641941215907037
0.672198045750727
0.64417772172677
0.68446766624127
0.645809828772876
0.717576676301517
0.693888425555721
0.716640791903769
0.706199886994488
0.734947940921857
0.690873952664138
0.717818644972864
0.706358505056622
0.760060798418982
0.722185752066795
0.71758008255677
0.761767414491281
0.760476585595113
0.729582149220436
0.747430376519797
0.769202737171945
0.735127367190038
0.740743079026705
0.766967937387428
0.709787788218344
0.777981208274976
0.771299503813332
0.804682171356087
0.761775685200864
0.784583346942322
0.812958777827047
0.830006638257178
0.771755353386442
0.8088789460267
0.768708050518419
0.755225531916458
0.772504119026312
0.818944679295635
0.797168974762366
0.844198421684182
0.802154143934321
0.876869942877229
0.785646598876395
0.812805714689041
0.814130075626055
0.870338350340671
0.844819896469467
0.881493693520427
0.839022379420128
0.901353670048463
0.821590801815732
0.830549625077685
0.822666056910447
0.86771598635121
0.843910353745557
0.909646457843542
0.856828162531736
0.89231677392623
0.853288455941695
0.882805510183247
0.826504314562403
0.864293843726683
0.831536771055042
0.92064227894684
0.871241646698263
0.924334023345651
0.863435044313502
0.922975214990229
0.935536286302166
0.923914206770199
0.865120084144217
0.978857960963023
0.850996323427288
0.943482422076052
0.890088578240898
0.991237186328809
0.887186464514584
0.964239601383395
0.927937415502084
0.979293831672724
0.908297180522553
0.974513399232837
0.915862522043529
0.986564534336261
0.927472441549572
0.962918898451059
0.928561905381028
0.993926741117687
0.931523525499565
1.01617228016628
0.979003274061413
0.961621832859021
0.925600757318589
0.961077219442164
0.925551559699231
1.04060736952087
0.968079161624651
1.00465067005921
0.942263778348431
0.998493083025063
0.93385983252193
1.02139009551405
0.919089276308098
0.997880879071972
0.966906139446726
1.01949589468222
0.918664799938349
0.979723265364814
0.94743365254229
0.99876375240495
0.960168201217319
1.01908742448691
0.982566660303205
1.01984887758695
0.972275622472456
1.00332046318779
0.988485811117545
1.04293596096388
0.985229104166585
1.07036138504719
1.01863295833923
1.0167395514954
0.989187250547899
1.04394376666677
1.02211299467117
1.05995443004007
0.973050981805195
1.02991221371998
0.959049847240847
1.02896288225316
1.01904461994451
1.04478008176129
0.996450737162295
1.03402601768251
0.991111949983823
1.04207559368865
1.00853573015391
1.02219299184904
1.02557125756983
1.10358198840146
0.982222327263807
1.01781788314367
1.00689701077239
1.08109738819039
1.00508776085764
1.04436534558211
1.08008741708805
1.06264327858092
0.956046308287787
1.06223724816055
0.999463781748011
1.06677744366416
0.992911875793219
1.04604306107219
0.994633382782369
1.03173319492357
0.970579818212379
1.06813129657473
1.0023559104684
1.06885295408022
1.0062561514407
1.12779969316888
1.0249761426295
1.06821321184691
0.999322635969367
1.04871454465242
0.990114813732872
1.04015233047637
1.01845870666106
1.03423037751359
1.01108996295111
1.04494776212234
1.00248595293354
1.00690518535659
0.965235084928735
1.08602373656669
1.03489824858553
1.02177436543165
1.02298214893825
1.04975364054281
1.04361886005559
1.06542412393723
1.05713508557795
1.10336647032111
0.987590063563886
1.02825799625497
0.99419380962236
1.10188497314552
0.978818640366254
1.01460600064325
1.00922240926846
1.03655647025346
1.01900692201457
1.07016054002793
1.01336189907955
1.06117223231308
0.984737369282924
1.01283929737814
1.00596922322614
1.0078006382063
1.01789567881029
1.0842391675246
0.971486848251129
1.04688854947142
0.952308399887556
1.04250106631506
1.05307538365482
1.04219785028683
0.9704183035614
1.05009946356219
0.988092055319056
1.06466567952401
0.99246127783129
1.02166696139355
0.952931996372616
1.06036739534688
0.999326519860392
1.07959169186666
0.964854067344873
1.04336567003821
0.953696384456093
0.965301879649336
0.96032928454736
1.0130687136096
0.940972401418202
1.02173434281127
0.967862400292797
1.0343821154634
0.991725415777352
0.984225007092113
0.984543605593834
0.958969861310109
0.982317340548421
0.98311714699256
0.945679320062121
0.962690829727317
0.92799707626882
0.945940220456501
0.953806647172845
0.968964581925168
0.934047581153805
0.99567796800503
0.929958547816803
0.963996054878009
0.952840175706079
0.932728115934732
0.885949534568893
0.943548735062739
0.901167035233737
0.93675915533357
0.90834462155172
0.913117200798289
0.906344274669996
0.940365154705817
0.908996688828716
0.920066073628849
0.922279631164098
0.943399718629884
0.900647774284493
0.921322583281643
0.877485006824355
0.940925873232427
0.907581949044321
0.906827321247831
0.855794594493868
0.910649568870793
0.889356701892699
0.93413291146775
0.860849512004715
0.86913896602702
0.864138668314198
0.896246281448502
0.869849684299881
0.887285534379173
0.835600832522729
0.882707868803603
0.840596803642467
0.8767082913852
0.865216138991577
0.854095505609247
0.830507248028681
0.872627949387283
0.833239736230412
0.823616130883769
0.816665425362545
0.841658312069867
0.822093370556301
0.826231626238122
0.801565048895898
0.830394864861501
0.8065110749341
0.847177187280643
0.796305269775493
0.804278592351894
0.794466742626317
0.825076309615595
0.790697193403873
0.798704681396606
0.7909913658979
0.789235450299345
0.773931701816213
0.7806419853072
0.773250268972509
0.784264661378864
0.76922178539223
0.777357702573948
0.760321936205164
0.773023008154506
0.742071726879249
0.762319966648724
0.759401531241087
0.753109566825392
0.735131109957659
0.772790022992078
0.741580947927323
0.738041406554711
0.730557083236373
0.729121931800253
0.718038455603428
0.729431938168615
0.721913068788992
0.697469529888844
0.711653052588522
0.708368973845244
0.690767059260602
0.703258919815164
0.701494936267427
0.703685413093959
0.684381892779788
0.704603883626139
0.687625604641391
0.681103076164173
0.668659495626557
0.697825872785999
0.657618559119573
0.684196412657104
0.660030607388353
0.671995966307976
0.659764854960716
0.658856904390226
0.645829272060284
0.648494376406522
0.640613802547493
0.63970042192749
0.642515339748226
0.635362972058779
0.625844596807224
0.636683453796719
0.622623459753399
0.63038852225099
0.625298034485915
0.63339077290322
0.614685624768832
0.620386834944094
0.611395983561762
0.610272036550277
0.603023217184662
0.61100901323494
0.586003261766011
0.590815094867388
0.583408081665807
0.589052469871966
0.580211221297387
0.596995510058262
0.577155114485158
0.578452506217805
0.578989271848009
0.586208940444199
0.555110900099634
0.569176238646884
0.56445440966893
0.566939992826629
0.547320088679885
0.555458344975926
0.54607935520835
0.546085426212747
0.534360322988966
0.537571546556144
0.537918727658341
0.533941514366748
0.524285577425462
0.530791618387163
0.518517108418435
0.550335674042447
0.526474159276815
0.522146911204144
0.518831277210787
0.518996643541668
0.511938536136598
0.515448376575419
0.503733803419879
0.503637966866345
0.503206039124539
0.512466612743969
0.502223935152214
0.502298994552804
0.493404625821419
0.490658486214104
0.487831131620187
0.502382580803397
0.487144040814298
0.490138314665596
0.478141575808131
0.483819783317961
0.476277426316288
0.474775625022083
0.462192226805381
0.471204340897878
0.46171726491984
0.46545689577793
0.458849018487267
0.462195507683421
0.454072607567608
0.455503483205672
0.45910740882939
0.450456043626526
0.455587371659658
0.445946816613931
0.445464944566712
0.440651327286091
0.445112384599881
0.438012968882362
0.435662760647956
0.437873355156889
0.431027963308584
0.429956307910889
0.424292707959075
0.429030564555088
0.423321143059023
0.420112064453631
0.413517961218643
0.41458293836401
0.417853759572214
0.414279618174692
0.408365029724617
0.412619088120277
0.404255296107559
0.415783511327076
0.404019195394182
0.404324142882474
0.402390224607792
0.393689479751485
0.392215393523817
0.397000672280271
0.384926493523536
0.399984971733721
0.389342708216051
0.381802929109357
0.381964955473925
0.382184102973876
0.380990342883482
0.38141384522633
0.379689096800469
0.371498437999738
0.364882259229538
0.364622396808986
0.363368082841346
0.366511501828267
0.363263035236145
0.359045451488133
0.357248054776962
0.366700825514941
0.353488938642967
0.351661214343954
0.357666219941266
0.35136111949023
0.347880423223489
0.34537233713233
0.341771509699585
0.342422825079331
0.343900326548551
0.342371854090273
0.340695796870575
0.332207483782657
0.33139215143899
0.329467259721474
0.330113223029702
0.327080302873938
0.330729561950172
0.325285254577195
0.322651129099666
0.321399840377868
0.325795031006038
0.32369659653474
0.315717972349145
0.316051734042522
0.315362286682708
0.312716932980399
0.312475193906397
0.310284400590032
0.312901360361836
0.305429637775119
0.310417271236256
0.307359234522067
0.305459625793351
0.311481539249914
0.299972218380336
0.309125981727112
0.298594377675629
0.301233248135958
0.297400866855043
0.298320449537739
0.301215069000084
0.298311348795347
0.295724839563501
0.294033421240556
0.293329114116011
0.295820375392535
0.297982781390872
0.297937289841136
0.291987880013134
0.290114445709489
0.295787191255474
0.306043644175992
0.294356411094519
0.291050705003557
0.301301211427151
0.291256766502308
0.297431799013154
0.304137765587145
0.302034053940487
0.294822950851919
0.301243196362394
0.302612886541906
0.302427299564614
0.305613212335288
0.307095005342009
0.311865734341391
0.311092746297153
0.313105423663782
0.309379003156657
0.310928499481644
0.316575172806788
0.320652844298144
0.319817553539817
0.321233199029746
0.326120035625698
0.325263863185777
0.323647284791995
0.326857954183622
0.326319817361716
0.329036531702854
0.331544948193568
0.334156773397742
0.331884929543984
0.334000203878828
0.335463994259507
0.338393712697675
0.353206777284192
0.349637317109855
0.346663308634704
0.345804803644436
0.343500425873786
0.357589194372304
0.356423975519504
0.354887964850718
0.351259031292923
0.35197734441896
0.360051890192586
0.367976115714606
0.369146694511809
0.365372138580752
0.370445992593616
0.370289074180389
0.374305918144739
0.377685712927812
0.382035905305254
0.384723695063802
0.388639825645939
0.391793070463787
0.389605092771892
0.395187608806934
0.396368234582734
0.401595518656669
0.393530197395011
0.403609614864027
0.407512957068281
0.407796594258285
0.408245724318181
0.408044374500732
0.406822703116073
0.411262520219095
0.412352728477865
0.403593276981224
0.406217392395535
0.414742670164587
0.408037342702299
0.40317106214395
0.406105040801987
0.408306947949589
0.406094686940572
0.404997749638593
0.407095509877857
0.402926644983954
0.40174814748749
0.404489830308314
0.397518116274168
0.40741885481492
0.408090138552139
0.408924471973635
0.399410863318373
0.404346741809133
0.406619760312835
0.390391450869793
0.399248056703289
0.404808491744124
0.401537363596156
0.405130675217171
0.409224905063915
0.392788477612215
0.396022454168368
0.406071161056315
0.404806770040809
0.405351793615392
0.402939930587331
0.400126976065436
0.402068975181916
0.403707840086535
0.400886191106936
0.398471000667493
0.404672527715466
0.40957292714607
0.398921394946904
0.403197440976109
0.395188656083182
0.400227128509931
0.407755572103503
0.402106625726254
0.407301691645962
0.408465139603351
0.401252758461975
0.400560226429176
0.400435101602638
0.396311705648469
0.401462353237765
0.401511523940186
0.398308359585367
0.391307846953016
0.391262162883025
0.391304684027464
0.3904863876605
0.386723339770661
0.389406131380637
0.393771842884101
0.388151145884329
0.380588965432791
0.37591813624362
0.374462656431555
0.367581177529126
0.369035800845092
0.37414260221122
0.36752602746019
0.358074936930032
0.358787649125769
0.358802626306158
0.350516583453509
0.348453494286473
0.340281883671187
0.342036047891616
0.334311914779178
0.335918352895827
0.34095782688148
0.334318904803279
0.327656742532034
0.325390007426579
0.323107175108897
0.323107462707346
0.317194953280207
0.313646134857459
0.312219959211152
0.308502413211155
0.3066935376492
0.307492606395352
0.301657369490508
0.299649243355145
0.302302041689756
0.295676712418076
0.28812343245583
0.297043321964874
0.291438228686503
0.289960734572554
0.286152593037713
0.287937736280179
0.282733119696602
0.278650344487649
0.281483835382728
0.278301032867287
0.276351604729658
0.274778409015522
0.274488358679389
0.276098076602627
0.271230829375944
0.268698935847158
0.268505532073217
0.270539530013667
0.267539562165987
0.27002485001447
0.266020389662314
0.264786946038621
0.266233675143631
0.260489528611196
0.255950647655643
0.25616840314418
0.251980881722319
0.25204657223073
0.254988461535788
0.252238877339493
0.248781467634554
0.252157542744366
0.252115658285626
0.25196215901728
0.243788655746435
0.244489474147427
0.239948704709679
0.240883488900489
0.241793120940808
0.24262206354203
0.242294715124867
0.242096529814046
0.235757538554729
0.23817515518898
0.232420348794487
0.233944068926385
0.232887188018937
0.235678805416215
0.230018248742217
0.23056710912374
0.22675599839654
0.231323002278293
0.22888075945331
0.230896412847904
0.226160514204688
0.22576595185212
0.226716022179284
0.226532256041602
0.225699539860282
0.225782640195834
0.219710392950248
0.223298646380492
0.221155736356845
0.225222437813314
0.218418845550226
0.216216639169595
0.212926704445283
0.217506571072312
0.216707061471932
0.219649462121636
0.216136750657401
0.216094412715239
0.215944626748309
0.21660287150512
0.210643833277322
0.211458368518493
0.212444644190016
0.216857875443121
0.207477574979571
0.208676321104075
0.211756539264748
0.210645441170128
0.204260489866317
0.208332049443322
0.205570786593245
0.208397503412076
0.205197622158214
0.206476808610595
0.204393126165491
0.205308620209201
0.203763936794208
0.206061481992753
0.201152335776802
0.201530074785428
0.200009541096956
0.202243053730388
0.201389258341117
0.200207676466265
0.197967811653339
0.20275001458828
0.195972047745232
0.201239220507542
0.197459892363992
0.196164294907523
0.197725410723039
0.198924591486914
0.195886876584528
0.198706615690839
0.192550135497787
0.197334271081152
0.196594594979779
0.195440802506371
0.194744831380515
0.196587087566003
0.193798024868528
0.195556527722014
0.189760338134994
0.195517718412167
0.191065897352194
0.192711080793772
0.193127250926593
0.193155682633197
0.191414166414277
0.190458139309004
0.190468632689196
0.194628176837543
0.187199817895208
0.188533493603963
0.18933302540017
0.191503018001169
0.187230189604284
0.186716513574688
0.184308894570375
0.185297452280153
0.188268994031893
0.190918271587036
0.184287271338513
0.187367167490338
0.183761743407733
0.186337938770053
0.183948533585455
0.185881323323031
0.183175161882934
0.181840345829063
0.180414890971967
0.182309203316478
0.182948648131318
0.181935559721733
0.179054196770107
0.182184588844433
0.180427737389664
0.181577566534242
0.180012632471092
0.177056981914696
0.176115969869732
0.181773570426561
0.174616275863529
0.175353008249757
0.174796065095475
0.171275285524454
0.173342831907343
0.174118365677604
0.172305976443882
0.175039306753009
0.171986401379415
0.169853042991666
0.167334671416523
0.17363893746567
0.167534581302381
0.170522139003499
0.168268385243785
0.171327067181223
0.168699338554083
0.167518992008325
0.167483672900493
0.166658778886507
0.165442820295933
0.165366743749464
0.163695142298156
0.16200095187765
0.16187720188234
0.16451932579798
0.159198241891795
0.162278227895398
0.161160381242913
0.163640580224794
0.159711399836165
0.162756448001105
0.162291497036122
0.162852887788052
0.159703787456732
0.159394282269718
0.156340372248934
0.159342312731702
0.153726309370596
0.157940103737736
0.153055921566477
0.153854188113171
0.154595233032014
0.154587475376395
0.150518084319312
0.153879009971232
0.152376760023847
0.153085148490842
0.146408305265655
0.149747719772983
0.145730838448273
0.14882274583587
0.144222437699686
0.151382473200178
0.148334168893908
0.150622254822305
0.144571434257075
0.143233294839892
0.142832639135654
0.146930737681192
0.139866214837031
0.143469389689012
0.142125743102686
0.141767776751012
0.138672651746987
0.14134512163918
0.137980039130074
0.139878556379996
0.139840901887044
0.13965571635008
0.137191091782117
0.137842927578082
0.134191555547961
0.135267872371735
0.129751094408647
0.136910453630359
0.131394944910048
0.133956742812233
0.131180499657523
0.132947641826213
0.131004237496814
0.129683128860867
0.129444509101132
0.133060135432782
0.128779929264687
0.133054295143035
0.129467947961806
0.127694526598181
0.127226906947625
0.130680725041237
0.124823416631056
0.129953521511977
0.126756351749078
0.130232166772201
0.12675562769124
0.125877490652656
0.120445660669221
0.12345647358518
0.122125595345621
0.126661830854976
0.124055347680435
0.126922198518552
0.121465256231125
0.12330765048846
0.120380312697822
0.121981863075442
0.123060702984572
0.122333420063095
0.118168269399474
0.1190482674139
0.116793697916609
0.121286604859172
0.118132220156463
0.12141646507457
0.115130747972669
0.116697643133504
0.116140566048764
0.117801422668156
0.114658170065005
0.116748340621584
0.114273575469027
0.116106232816075
0.114509446748222
0.116320595530848
0.112943487318117
0.117836067002047
0.112984888823175
0.115123423217191
0.110887436670215
0.113704962180922
0.111161161979627
0.113457915056315
0.113820394961793
0.115885178067867
0.111364781713789
0.113558304936577
0.109990732478099
0.11590554453334
0.107852589470384
0.112441424224945
0.106792171431134
0.109851335367074
0.10969600249322
0.110987352387221
0.107889369220126
0.109153417554961
0.10887058060716
0.109746409499428
0.108718596636377
0.110980856189612
0.105882738450706
0.110859876325487
0.107881199342262
0.112276100431761
0.106949194682163
0.10833433477534
0.105388204723448
0.108760446112125
0.109173213300675
0.10754648285855
0.10391333015057
0.107306899549332
0.107240692000005
0.107410745081877
0.102887207179797
0.105214758829037
0.101966294520626
0.105801167359636
0.100965965364274
0.105942788889986
0.103722769425101
0.102873245881913
0.103569965485261
0.101633495927926
0.0998873745567696
0.103509629262346
0.0999402816805692
0.103345903483873
0.100177626483716
0.102427053289718
0.0987720175337618
0.103239466035902
0.0999094212221937
0.0992811756455275
0.0988635728164759
0.101520249511467
0.0987665672544305
0.100723974725119
0.0975637481729111
0.100852934079483
0.0965489511505457
0.0995815928178381
0.0960384200204166
0.0980561872197546
0.0992480967347203
0.100384687334407
0.0956010943032067
0.100037848726558
0.0966640392874802
0.0982019556634217
0.0939062837558582
0.096226901873035
0.0943169043432718
0.0978573696649416
0.0945002455304184
0.0971145907628186
0.0942088647682974
0.0964225962672135
0.0965924515994352
0.0961530464209583
0.0923103365675687
0.0948818822303649
0.0930276078733108
0.0956566814421518
0.0946870717835802
0.0950229686999365
0.0932001916715415
0.0918193298183911
0.09086614576621
0.0957086717281733
0.0915104518262912
0.0949769794641171
0.0909740287728387
0.0905042350440784
0.0890811858935902
0.0913138254603725
0.0886685563414573
0.0919277186920132
0.0876628219939419
0.0885278262835276
0.0870193174261834
0.0895994635211953
0.0885996212135585
0.0907429476725793
0.0862816272096291
0.086701990665271
0.0844912957677654
0.0880910233810826
0.0849811400095402
0.0911304653343566
0.0868562918717329
0.0868885352208821
0.0834114561477385
0.0859156972162217
0.0838452972486064
0.0828363508101083
0.0815385851069398
0.084697507781777
0.0823251994340148
0.0844984734856363
0.0811267200137929
0.08225274831497
0.0786458639507981
0.0814353608380769
0.0806864171793353
0.0812889340952073
0.0766610896651805
0.08323674663183
0.0784982614236345
0.0830914899342121
0.0783495039643191
0.0824040368216343
0.0785384073895394
0.0798927698738753
0.0792526746831468
0.0795855947848341
0.0772252592137957
0.0786966368667033
0.0750514521028804
0.0798479894559471
0.0771848992779333
0.0780606548530272
0.0777818158443928
0.0764748488766055
0.0721836693240278
0.0772547101198058
0.074360850066914
0.0783932921177057
0.0722081142827659
0.0740752316364103
0.0740013191737488
0.0755517114096645
0.0748998222019141
0.0727190767735216
0.0694807126072987
0.0756558769047369
0.0731024703743061
0.0741080014589281
0.0726286410800077
0.074007554812738
0.0725006878793338
0.0723076133398657
0.0691790226343631
0.0744296243825776
0.072479979667468
0.0724583891716841
0.0701209293799826
0.0728108397087735
0.0684796299207358
0.0706569634018937
0.0692845674471629
0.0708312886687742
0.0690295675504956
0.0686036247506278
0.0673868531668167
0.067708756282022
0.0695105539733325
0.0691115588672482
0.0657816361687224
0.07051675059588
0.0648659933484394
0.0692727245213681
0.0657587716625355
0.0665913016680659
0.0653310935695804
0.0666252880309532
0.066581743028687
0.0671975718746139
0.0642480958096643
0.0667269148494059
0.0647266949422602
0.065533787292181
0.0646498309255599
0.0669927065846237
0.0632157013774568
0.0642764805033622
0.0638707796294977
0.0635567814061816
0.0601422307717037
0.065181345349735
0.0635294993668343
0.0650686046690828
0.0648644937833645
0.0640796314594658
0.0641868797145935
0.0666184991581065
0.061020171795277
0.0648272278937254
0.0647167802616649
0.0642231664948121
0.0616034167440101
0.0652701090275931
0.060676144561981
0.0637216385871378
0.0606141233381058
0.0629396029492827
0.0598349787704945
0.0585227416772172
0.0588627543240331
0.0591560503909072
0.0516655791391045
0.0516823863017225
0.0533820038360467
0.0543039603605755
0.0518720808209447
0.0538089306209173
0.0487053477419492
0.0533835884508148
0.0511163843784102
0.0497836196180839
0.0465719298757775
0.0506844035972625
0.0501676816403252
0.0523080118576553
0.0495163980145091
0.0549163170841409
0.0485805810176217
0.0522318281117567
0.0528269423848286
0.0562398602740492
0.0548140431133711
0.057750619990269
0.0548700225652955
0.0539682538015731
0.051824313431257
0.0496209693012846
0.0537304435026313
0.0448485744316568
0.0538183181763528
0.0485695264871265
0.0533332074995484
0.0464664712445655
0.0555698108115156
0.0439344043650332
0.0526880103609788
0.0443618382415159
0.0576680664590154
0.0421120140306231
0.0551333457432829
0.0383567607184313
0.0618607502692984
0.0400878021995531
0.0679194918760264
0.0388020712653987
0.0669932850257404
0.0353117779031886
0.0731134778019061
0.0403838118401448
0.068213044455661
0.0358292835008209
0.0721267038570639
0.0402520383425069
0.0673988168686557
0.0377016589737404
0.0642069042376111
0.0506113337933538
0.0587397073725504
0.0583025374167169
0.0540049791594202
0.0608401040659779
0.0493254185769725
0.066371404114659
0.0460016578457685
0.0667647460186514
0.0459099228130119
0.0658652919241049
0.0474257158618133
0.0621482138286011
0.0497260956453877
0.0604709405162054
0.0547770186566643
0.0557393164627512
0.056021732784921
0.056194705999169
0.0554668659634244
0.0571972836008873
0.0495144329255923
0.0590457605975283
0.051170997710403
0.0574633626028543
0.0510207886669723
0.0574457569829404
0.0520585336620715
0.0570539613053349
0.0528996225504974
0.0566130682216943
0.0525544189528565
0.0577262776216331
0.0508446925278661
0.0585471362197689
0.0524549866636751
0.056982512360104
0.0504014353754228
0.0547423991680976
0.0520968131140276
0.0559362803014146
0.0538604933917553
0.055353074943064
0.0509894766283808
0.0553933290799535
0.0513729288161603
0.0578481771756687
0.0517062746291306
0.0555577004931232
0.0512382676093934
0.0558960287707398
0.0512358937660283
0.0574910758446863
0.0516732552976428
0.0549009372545234
0.0524486166028829
0.0559354638083686
0.0520143064274787
0.0539250234129045
0.0511761436590977
0.0562004591008847
0.0507005858592852
0.0552331076718518
0.052848736090433
0.0564324978896568
0.0522306068948133
0.0576417481666593
0.0514734465146308
0.05531358659071
0.0499836463482693
0.0547478408084378
0.0519774163925985
0.0569335918559624
0.0492962227652619
0.0551662087637154
0.0515020324247432
0.0550913194737454
0.0495714686346945
0.0548390924335964
0.0514121965534359
0.056241078765058
0.051017548754671
0.0549805448615212
0.0496184399482128
0.0545819456960985
0.0518756168241467
0.0553624829945559
0.0521664904599546
0.0550400130407619
0.0526390145028706
0.0538982146761284
0.0513576292500698
0.0559344212813657
0.0492046895553695
0.0546623447430925
0.0513279092828447
0.0538609098159238
0.0527014472063983
0.0551932559587396
0.0522725583117526
0.0574092340052127
0.0521393051305035
0.0555899368974552
0.0519399017966304
0.0571323584837121
0.0518690695011676
0.0555676407628668
0.0523373038283127
0.0539025540593848
0.052190839575957
0.0527343723071276
0.0531234347883457
0.0561811660223235
0.0522995418808191
0.0552399274161034
0.0515866158967633
0.0552224541647105
0.0514644753396204
0.0572780909845136
0.0521189630804515
0.0561022965795348
0.0539387477200476
0.0556135419854934
0.0527145549647448
0.0568816691978713
0.0520798098090702
0.055990837980559
0.0530277976076197
0.0574008269516545
0.0525824918820039
0.056529482267242
0.0538521986475344
0.0569386354623465
0.052699549985335
0.0548578106439408
0.0523526424167683
0.0576576840087106
0.0532334708581512
0.0549140978624298
0.0523760418981746
0.0565299164425156
0.0533615696986929
0.0586237536334281
0.0516533908211591
0.0563659032081757
0.0517007414668451
0.0544528670218471
0.0517692733781991
0.0570104317466097
0.0522253669935712
0.0561860445233431
0.05272346030098
0.055422051810511
0.0530898510531915
0.0569241587574143
0.0538813182987822
0.0579219000510513
0.0538995523981488
0.0577205218514616
0.0545057327415335
0.0558390031375545
0.0530915326188561
0.0576069256735614
0.0545647266782083
0.0580100793633639
0.055734456964973
0.0588358119350898
0.0558315441611239
0.0586433707458094
0.054046390127874
0.0578613321904588
0.0514889071049351
0.0587965800159984
0.0559297265392941
0.0569317532609654
0.0558516139154261
0.0581639501403313
0.0539779664478506
0.0565495008623794
0.0549488867602919
0.0588146384720434
0.05338085970154
0.0599468387621277
0.0547171857004499
0.0592059509329239
0.0534019869239587
0.0584732330235023
0.0545901358711036
0.0578792809760164
0.0555683660557319
0.0557202591070695
0.0540696921151276
0.0566733455507748
0.0507488629166456
0.056365267753924
0.054248593026236
0.0555167397973106
0.0529271256773481
0.0551745401451944
0.0522669714423216
0.0538847791867937
0.0532893989558857
0.0576456446043398
0.0512610829421925
0.054549908829715
0.0510482846101199
0.0543868352591825
0.051698217284646
0.056730103036353
0.0501270371217597
0.0570464466499991
0.052531309891672
0.054291326845657
0.0528611424689344
0.0548646329976171
0.0520336433903754
0.0547627898935266
0.0492497464554407
0.0561465774163718
0.0529307831907911
0.0543974853981019
0.0502496491345371
0.055634124769959
0.0514595338644106
0.0564102591857297
0.0499501358974967
0.0532515742817053
0.0508381441495822
0.0515535944495036
0.0516373421601369
0.0534226261537345
0.05082093237357
0.0534335513086897
0.0499511998171466
0.0564249745452084
0.0520221157248843
0.0534874634130637
0.0531016221358887
0.0545817281364218
0.050251327656639
0.0537050729794387
0.0505431649243573
0.0527262305270725
0.0495268823135214
0.052595862418708
0.0485558655084098
0.0538130294521659
0.0495542382031016
0.0533640823097312
0.048497646765647
0.0532932474072487
0.0493068172579387
0.0518738000365044
0.0476770229255977
0.0529127159362298
0.0487606444422594
0.0539690178652565
0.0505520100318644
0.0529379588522708
0.0486796837993919
0.0519821681740977
0.0503418207338957
0.0537899626058343
0.0477677291458594
0.0543139265784522
0.0490520148290698
0.0522831045287637
0.0491816177401405
0.0504999410446548
0.0483082415754413
0.0537855000426693
0.0524631811724247
0.0545352088192695
0.0490296549612171
0.050782002486695
0.0501558541912222
0.0531492528626834
0.0499592274428918
0.0511916428539227
0.046764362932783
0.0540576738957268
0.0474628612535526
0.0517179731127177
0.0482889997635246
0.0493803859824591
0.0468082813859711
0.0504931960433803
0.046571995294956
0.0524514569188561
0.0488293165138437
0.051882877754967
0.0475168596737185
0.0503878986612162
0.0497717566174908
0.0506181193961945
0.0454744661311291
0.0516357518675362
0.0476448656945206
0.0525959796652353
0.0464099095972686
0.0522106139558219
0.0481902133123694
0.050236848401137
0.0489136667906548
0.0509658104246909
0.0456478310095221
0.0512859617837975
0.0469253015803257
0.0506913046330357
0.0454130032383356
0.0497295772225864
0.0454126146783598
0.0487505362445063
0.0473163788742331
0.0498381562971233
0.0445397385001623
0.0481537802165227
0.0447290812063941
0.0478437845987924
0.0449639923802245
0.0502820588913856
0.0453995929114157
0.0487545725739732
0.0468418643804238
0.0518064300981642
0.0431301574537362
0.0443332158950316
0.0443894942504541
0.0479175440130085
0.0431082541814634
0.046536696369072
0.0442381650353464
0.0468130083416965
0.0438617135764799
0.0468657915899097
0.0415691413869571
0.0449343764075151
0.0427482999731395
0.0480464859332245
0.0399026595595786
0.0446597340285346
0.0435618364719913
0.0467020183968033
0.0412152499945987
0.0462319750315887
0.0424268126032523
0.0446662061457971
0.0415862626808167
0.0452473505748797
0.0453505091620937
0.0540879073361199
0.0449061879051416
0.0449643779681417
0.0447166045262772
0.0470934909662421
0.0425377155866543
0.0444775061456181
0.0423331149063115
0.0434463703374818
0.0417319216763309
0.0447798767264664
0.0409584528790279
0.0442715531123559
0.039790374705165
0.0441552922584513
0.0395179724254725
0.0441962652735548
0.0400449257302006
0.0441013185603571
0.0408530123589714
0.0435650481797686
0.0422943370598807
0.0452278255861546
0.039747626149733
0.0419045623976263
0.0384348608570507
0.0498237389886482
0.0446233980648392
0.0449272913829678
0.0397979364401704
0.0437125049395566
0.0397792019014228
0.0440058613757952
0.0402252446103327
0.0424415265069017
0.0382652545398672
0.0433967472988207
0.0374568900592371
0.0425010019918501
0.0391869015547262
0.0453861684336515
0.0389451108631581
0.0445554742344354
0.0404637291162478
0.0429973959789319
0.0396322355886123
0.0410567333258864
0.0373913998263926
0.0438953154026183
0.0372728895333347
0.0465309385054528
0.0352626913872399
0.0455267235525336
0.0549685257819189
0.0467703449973442
0.0382895168951186
0.040813057445254
0.0391565071919941
0.0415136134211771
0.0389976184480339
0.0393401231002085
0.0366352090579912
0.0402915233358027
0.0402500153125554
0.0380501078910041
0.0383833346462647
0.0413177509701853
0.0376063415608032
0.041202366882182
0.03890016593844
0.0414865823811458
0.0390699192055636
0.0387578488212434
0.0440207553139062
0.0508340532034329
0.042192639671287
0.0452410631794692
0.0376515551520316
0.0372918897636251
0.050497141437304
0.0478404884251201
0.0385594692025869
0.0432610980583814
0.0381525542194681
0.0408755860982298
0.0380769453286616
0.0395717569710768
0.0415440877756238
0.0467521909878235
0.0390695776721437
0.045475677929449
0.0365176654547377
0.0405353108908987
0.0347168962684636
0.0407792932875868
0.0359195500478551
0.0397600889531311
0.0372322427895633
0.0393657365220797
0.0367796915299839
0.0421888369708491
0.0377642324770241
0.0406143556804584
0.0408412833163916
0.0441061357521981
0.0380316521643897
0.0406164779879361
0.0360538699020329
0.0398668386392928
0.04113682530133
0.0552429760428786
0.0367442037144684
0.0414793146377496
0.0370918032122952
0.041944732156678
0.0370156778218962
0.0397870721460887
0.0356681853280681
0.0400295631263623
0.0373526144948967
0.0420556976288522
0.0370679151909978
0.0402955196771053
0.034658273873764
0.0397013600456464
0.0361617911796456
0.041231891701489
0.0392051658924576
0.0404732427784518
0.0392170140772655
0.0410547643015846
0.0486152040586262
0.0629991524322615
0.0478106019127093
0.0525808756577991
0.0424155021795185
0.0427665102298426
0.03790842276997
0.0412735835025597
0.0369219954408196
0.0419559460123759
0.0354038458068249
0.0403476540747242
0.0357651025159706
0.0406879180256992
0.0344832544379368
0.0410354442470706
0.0344779307225051
0.040129451320282
0.0372004627027639
0.0418597944524392
0.0354142446962401
0.0426133135790752
0.0345843537954477
0.0474630780249472
0.0435282474399842
0.0448592290994494
0.0318639521398326
0.0649151991308442
0.0614477899795444
0.0449323759850762
0.0448575760859062
0.0386439145123502
0.0405427036465766
0.0385172902205235
0.0367863916753988
0.0453895161615868
0.0393447788982689
0.0408653795689933
0.0385115019744114
0.0437335656836621
0.0415370266242991
0.0389157611359934
0.0416338622919725
0.0665798454129449
0.0476693018235013
0.047644376704102
0.0365907908478465
0.0467823177029945
0.0562138179872017
0.0466446241153801
0.0431226552124803
0.0464929881262997
0.0382495146286803
0.0411750952196761
0.0367478107683519
0.0422886403509092
0.0420538794184163
0.0433082814221017
0.0384838644247109
0.0412262076178735
0.0357520316110255
0.0475801883367352
0.0405098701121643
0.0547845153596923
0.0492316643480151
0.0430897699464548
0.044381443769001
0.0471650381528523
0.0399420718671649
0.0462548855808519
0.0406541593846203
0.0438793299789526
0.0517917534844858
0.0570098212769996
0.0435219709744582
0.0577703417606475
0.0517734832554831
0.044621418228697
0.0439558939047373
0.0514095998363462
0.0482994703612969
0.0429037086396571
0.0439638878331534
0.0739263099170128
0.0534245235746743
0.0674936826558678
0.0427566862871871
0.0493580265671134
0.0407169854750044
0.0479469445677452
0.0390112638190774
0.0628780769047242
0.0434058748807075
0.0488336834142043
0.0411099459664205
0.0566728178766045
0.0544048352034317
0.0498953857281364
0.0487790506363415
0.0477719401976081
0.0441212337267558
0.0599404018681189
0.0518405495888683
0.0425848122455187
0.0673247827100198
0.0804218954777393
0.0662197500385368
0.0557376475414104
0.041188195659352
0.087277206921518
0.0505066658601151
0.0528174887234596
0.0460166437984503
0.052633988860078
0.0453167722145429
0.0471355870676124
0.0747567831712252
0.0599315432347607
0.0466639740758609
0.0567110567616648
0.0437744380969504
0.0716577112345358
0.0608780901100727
0.0549276450202663
0.0505088999065501
0.0590219210694727
0.0473956086170603
0.0960748811389307
0.0706871855699838
0.064081328128527
0.0757936766554608
0.0712881098877807
0.0700138505796418
0.0659732193145388
0.0612039696124911
0.0713468119644001
0.0784329972773894
0.0648078422708542
0.0560694716915524
0.073998416653627
0.086728600451182
0.0647841195271332
0.0697009874241705
0.0640559597150681
0.0615837470645885
0.101168096549236
0.121276259640059
0.100160329011181
0.0734429905661293
0.0743511005979375
0.0987342106365032
0.0779380048345377
0.0708801195031204
0.0710265381319372
0.0718433348776614
0.0717777036363049
0.0712764838344519
0.0880134002069337
0.0766487345491985
0.0791972732534249
0.0793764460564826
0.0817866589527972
0.0968808286144073
0.124858677163196
0.122736549829414
0.0954898371241721
0.127501183317643
0.115167791380202
0.0957191733702139
0.0920159624999367
0.0823214026105494
0.103404514041496
0.091162320116862
0.0948790529258392
0.0902997042670341
0.121682901568174
0.111679725856609
0.0988376728003397
0.126213993466525
0.104666811934155
0.112453058469118
0.101725920444523
0.251373551686666
0.147211041752852
0.129551096142483
0.139439644908355
0.122917990221436
0.214073736860742
0.148673059026356
0.148830749675834
0.144430186596078
0.150877863167148
0.156010558662186
0.173871673682949
0.171829403747408
0.186327327277251
0.182777971206691
0.183646514747512
0.187049788192321
0.270998138172227
0.246585106690456
0.232641747154721
0.209364605711541
0.235482779204535
0.236292382861443
0.227549892638388
0.230315008917659
0.243481744417112
0.237340523427676
0.305923333999253
0.258858480253974
0.271166141875737
0.267163366121605
0.313108103187455
0.272677122849837
0.328108856488723
0.318392369026467
0.305949266630188
0.305285147450456
0.310871750974458
0.320056902666124
0.317714099100385
0.362395572655517
0.354074637688158
0.343953581712651
0.354743488799713
0.347366360873556
0.362277726160946
0.357977078148676
0.374485002071314
0.364465777548455
0.430880319081439
0.39047259667541
0.536720952529265
0.41155852595731
0.377474696353846
0.386115753249149
0.377173258870764
0.418793836945319
0.411880804399829
0.417000355350121
0.424233938258401
0.378743662763445
0.390833191682871
0.372734156858457
0.391574779936472
0.377125157736824
0.403545785836201
0.374153174188127
0.41343057669949
0.391583144432108
0.405773720453476
0.453925211927306
0.39030895612686
0.37726809758684
0.379649060036566
0.376587832163305
0.379126194322061
0.37479193652746
0.380237465306176
0.390602205263543
0.360089464179431
0.366675926532005
0.350386193307132
0.370201312352328
0.378376844504042
0.336597785359913
0.341000241150992
0.324342287513005
0.333456055827994
0.318042579641746
0.319884085184512
0.361522531535498
0.31316856123335
0.30936914388267
0.309075020280779
0.29854889239288
0.301856816847477
0.296761549590161
0.294706529093416
0.292518295149772
0.293950977073375
0.29523750675617
0.28964270441371
0.284489308894644
0.288762664137915
0.288089127842945
0.287476814020825
0.281698544681399
0.291272836233772
0.277972203000316
0.287311996794376
0.276315212784177
0.285614232510142
0.281871430953566
0.289152701290022
0.290148101290334
0.286290748685486
0.286145601553701
0.283689698799332
0.285097889607549
0.290838464476713
0.281511138014875
0.290613577377992
0.281255406980388
0.282820381433565
0.279659857352226
0.291243825811094
0.282304428110576
0.286457528143133
0.281075150376504
0.288540133356031
0.279770815441663
0.296552344247244
0.270255469912018
0.333489489197532
0.307557248186976
0.27131350771387
0.286816905856117
0.272019071608386
0.281469229680672
0.26579216835527
0.315283527078459
0.299438927568648
0.267937965549333
0.275146338599879
0.264496040239275
0.278143997583649
0.27901376470214
0.262985760501665
0.274225558049778
0.261890294912886
0.284498405870884
0.354781341983053
0.313729920670301
0.362907120321555
0.282060647837932
0.272724296170562
0.264741437247379
0.31784709582688
0.262744013895537
0.278598633186208
0.26086395322185
0.314829205816953
0.281006329705718
0.265143362343615
0.272072877925566
0.269776399302254
0.279659746897322
0.297594377684234
0.277810007196609
0.279702426481371
0.304198746330316
0.284104380801306
0.308491631878445
0.322692615173258
0.292246984349029
0.255818214882465
0.248911481699659
0.254689185072471
0.241528034283759
0.311483076560993
0.253310795628656
0.259154687232701
0.242099732574296
0.228909062715425
0.238890230461707
0.246066147042096
0.248313266981242
0.228168632598942
0.26784861490472
0.222252379848863
0.236537072677367
0.245291389676892
0.253356593730423
0.274859765097362
0.228782568296366
0.216145947374099
0.232878657957243
0.261035265859474
0.214889171827837
0.228758339995296
0.203505993699038
0.201520527638672
0.220344150625864
0.200696768193652
0.208486063509015
0.218935284714235
0.207380015044487
0.246387407285185
0.247437390748506
0.24284029812721
0.199684593637251
0.178244062887583
0.181475332918211
0.181500876771607
0.180922093292602
0.177037715406214
0.191394148892281
0.201455068781931
0.16068619130362
0.235086480831191
0.183930471260458
0.176581415971358
0.17781552201512
0.175704609877425
0.181216376888884
0.211882325297021
0.21252421555323
0.206225549481844
0.187498459355673
0.2184947506146
0.182834754463081
0.200685720589214
0.183673031055834
0.200499334677511
0.193775583567624
0.218033278206801
0.20343542111666
0.213248238995288
0.206872242548459
0.225134127226026
0.223061555650193
0.26813315578519
0.217716088110739
0.266774819576506
0.260400245014677
0.301679101287365
0.267567292460392
0.256198563801388
0.266827423534651
0.264956146196045
0.268620519249781
0.275546009210518
0.269676834649227
0.324125605358532
0.280308133202231
0.289959037854742
0.282444107090271
0.301181969892943
0.296663543611399
0.327021613435372
0.325369268513354
0.340852438737563
0.366483561323544
0.326224383197599
0.325001478606335
0.308555428799128
0.32676171118876
0.326290308341857
0.313850208879849
0.319912794101074
0.314140063784323
0.352077222559884
0.323299915032279
0.323790124493961
0.324228438979847
0.326778211657635
0.330714163024031
0.337604592053813
0.332542167643767
0.340171443277496
0.329891458859636
0.348153753177121
0.321632580251415
0.41966862265767
0.368703672216852
0.349532157055251
0.361143769238091
0.355956722173303
0.361169972845826
0.359945774402668
0.374932107919995
0.378013849332401
0.363175344228514
0.374556280013174
0.369976095314378
0.382440557876604
0.381988984193291
0.404808256353478
0.376542382093971
0.3885227720123
0.388577824939288
0.388964883578448
0.449379174415183
0.396759911274021
0.413655821424039
0.391645737097242
0.403083238160996
0.393994320495867
0.395819210124854
0.400234573300326
0.402426008370166
0.399068609999556
0.400482955502782
0.400771572713696
0.398485176244154
0.402071978751118
0.394493768355835
0.420414479173585
0.40473827902248
0.398590970139408
0.400085585617141
0.399258320901375
0.400620387351893
0.41439518965972
0.413477704050009
0.400035348247088
0.407107739404647
0.404660126660418
0.413406729778605
0.41129202494286
0.393050250404287
0.397170933215926
0.397647319082291
0.39434498463043
0.397851502584275
0.393646338328156
0.429312793655872
0.398588199476433
0.400296754856335
0.399516079920272
0.405019921800578
0.403662719650745
0.408213091757969
0.407123675821067
0.411138803004697
0.40715341720072
0.413094280480916
0.410511679401986
0.410564807207287
0.423018576171527
0.414993925913721
0.41688067323476
0.407628001545574
0.404517545322808
0.40714815275226
0.400065787716434
0.409091829643799
0.396388342154005
0.400004985943143
0.386930406029817
0.39058361056827
0.377630238633086
0.407335052905472
0.383711140563872
0.380474114685832
0.380204869290377
0.361699731782092
0.369413321851874
0.362184594322065
0.363827088850438
0.355091171288721
0.363828287438886
0.351086106943161
0.356531434481395
0.345874728548118
0.348332060864936
0.352340107273059
0.352303905181932
0.34623308756038
0.34394606965042
0.347353705154556
0.350409888892159
0.350442842199363
0.343541158955907
0.341007633938724
0.344027703999416
0.353382864115199
0.362200598511566
0.357078150665724
0.356084111485452
0.34293078364335
0.351892296086781
0.336441640206714
0.348470895303095
0.33757365366418
0.344009669139923
0.338543354828293
0.34503151544944
0.34247729201517
0.342352003768763
0.337807746069933
0.341982603539519
0.336077249408201
0.343554558459089
0.345647065361331
0.340893399713365
0.337349237794771
0.340840227484523
0.341018066716419
0.349147056769944
0.343677641475676
0.340402563531042
0.34321242306337
0.339550147455412
0.343005196658949
0.339184284045645
0.343095475810812
0.343194360046089
0.338739974729157
0.340018149890186
0.339049019212272
0.343374677191339
0.333664932806429
0.33802068916562
0.334700385202693
0.332151398286619
0.331316388170748
0.332663976716219
0.32625781666726
0.323952535317838
0.322531751072073
0.321168327404717
0.314914454239062
0.31356650397526
0.312516393611402
0.310203447786235
0.308414098117234
0.304437948515103
0.298593465268623
0.300580662376984
0.299061865431869
0.298418723559097
0.295091958021818
0.295701182574879
0.294717009224026
0.291740119965692
0.289635914225844
0.290727687047248
0.290170776690725
0.289696431485468
0.291341768164936
0.288184047108483
0.28852422765637
0.289844652312834
0.290468406845375
0.290896029039007
0.290790894527447
0.290032999431311
0.292439122922818
0.293556165961424
0.295939674652106
0.297395766898353
0.297725803456069
0.299570418265761
0.299940470678461
0.303855729622055
0.303316104943352
0.304909933280208
0.303769478872652
0.306309206480161
0.307782215614865
0.307539427090091
0.308241370242684
0.31219196924861
0.310761378317566
0.312439793179963
0.308050061896277
0.314192505803671
0.311010685236594
0.312684730030212
0.30785594561832
0.308640714744664
0.306085253170665
0.306135479414664
0.304269999216326
0.304827308725112
0.305332060200205
0.302997571930313
0.302293065677158
0.302902974144512
0.301434870750131
0.299488981142023
0.29871303233366
0.299889087424005
0.296412288409027
0.296078818244228
0.292401926517052
0.29547261021978
0.291449333489666
0.290836893210085
0.29055527528359
0.29107191950984
0.288985873974147
0.288855645245593
0.287564390979094
0.286044435209016
0.285633987752294
0.284073567613485
0.283926472623494
0.282841652200471
0.282493882410793
0.281318144758341
0.279369460494846
0.277558121088094
0.277696274348403
0.277067756942212
0.274642585711271
0.274281004081794
0.271239021566506
0.268034802692033
0.266018028423652
0.266498689834981
0.262860326878914
0.260530636464892
0.25981353050444
0.254617223556613
0.254924007735159
0.25319790488186
0.252364474769282
0.250602639941409
0.248552203427853
0.248326818280583
0.250133869260835
0.24716546803881
0.246368091177355
0.246911536529708
0.244400233398551
0.244158697957524
0.244181120628611
0.243654545390828
0.240372177167787
0.240446799731362
0.235223733998106
0.235501674668061
0.231055357665111
0.229808042990843
0.225825499092255
0.22433401284537
0.220650479493893
0.220711840595875
0.220934344564058
0.221496273181493
0.219676237138992
0.221167154658705
0.222184064779991
0.225880172997199
0.230046499701049
0.236530094841317
0.244615789983167
0.249807294802751
0.259057642455808
0.268836058609962
0.278092010044386
0.290849264127424
0.302641916092327
0.317110072342099
0.331970350334584
0.341079499124201
0.352297308457579
0.366291557505108
0.378566911806515
0.390783906375282
0.399599547442834
0.411219931827245
0.423182189279251
0.432801396051121
0.442038538130145
0.45100166045454
0.46098261541722
0.465585021864571
0.474116582399523
0.485709425680781
0.491048923934426
0.500533244144542
0.504963868373504
0.511413487006164
0.518488140040882
0.523720979654819
0.526568936881051
0.524768828984789
0.525895806971524
0.531894870745625
0.53461618241848
0.536890281570697
0.533857220575624
0.533548035121428
0.538361528428411
0.539024709436447
0.535311119419963
0.538843995472284
0.538292813146906
0.539375537856828
0.544188260094404
0.543774960661599
0.550451457804038
0.553256620634866
0.552593017075828
0.563391132307501
0.563226707291322
0.56820458063652
0.575794324686052
0.579923527205912
0.583786792679438
0.591878444572704
0.600598059441639
0.606908967957933
0.614012475256964
0.623959149622088
0.628975491368957
0.640173481122717
0.649647320887617
0.660368950585063
0.671534709159256
0.670748041559566
0.678759021547385
0.681762905808783
0.683233051512533
0.69103503795851
0.688333745967197
0.687029953424043
0.689891732129107
0.685397089493219
0.682916914497004
0.683714006875038
0.681167903142689
0.679192098501089
0.672644007886306
0.67229505183107
0.684470846236939
0.688122917754331
0.688369012966289
0.697747335161796
0.707762843926548
0.72276635969536
0.731138413117445
0.74341410354294
0.762496093010695
0.771166800873009
0.786051916947985
0.795597141974882
0.809745269826529
0.825069321623174
0.833294575628606
0.848339457657017
0.853285570718314
0.870165059695533
0.88481536026351
0.902195180489888
0.914933925099694
0.921577259089924
0.930667283773244
0.953554241121931
0.96358075746984
0.984918358114826
1.00364468610291
1.0135170656943
1.02895274675377
1.04194830941029
1.06424254243828
1.07330211340629
1.09358302927857
1.10896676776883
1.0966012003774
1.12582252242474
1.14038724747749
1.12887380720801
1.13369276956622
1.15485737402466
1.14965911041948
1.14398362208373
1.15908820850636
1.13884903953462
1.12905281461509
1.13394849738844
1.1211546755179
1.11663666850391
1.11476204833361
1.10724961343873
1.10603646036911
1.11933717794165
1.125419378067
1.10896607754689
1.10057368275958
1.11887961219971
1.11600497439215
1.11822473422656
1.14969082272734
1.14452022397374
1.14880798895672
1.16378871012373
1.17397733705193
1.15989527750127
1.18809437223566
1.19385530680239
1.2036572158676
1.22062458748703
1.21885262222398
1.21745441793711
1.2336864430871
1.24337232607756
1.25786037080915
1.24783043582893
1.23942821429833
1.21866938502544
1.21954530533785
1.26733595900867
1.2552353295898
1.24488327024938
1.22864845178247
1.21842633212577
1.21770685775922
1.22526600776045
1.2059682577219
1.21189381533244
1.20483976446658
1.18096273871978
1.20523189292092
1.18663769351635
1.17291821915816
1.17075631256818
1.1518327626171
1.14149150028988
1.13279749932285
1.1235712151307
1.0938162860108
1.06988320403946
1.04225728042591
0.993156941901077
0.975825705162977
0.941965904798744
0.905297079592616
0.877060451708894
0.842379451732755
0.808935944988273
0.779330710890733
0.755253762713881
0.729523236011729
0.702277535701358
0.684623394238649
0.671233738408115
0.665649020793797
0.65786446789913
0.647065180697288
0.642336744343645
0.642682557112731
0.631086013600454
0.618839112218918
0.61843989139058
0.61305994253113
0.603498100541581
0.597937910349253
0.58638662487146
0.579996406719931
0.574169522429273
0.564755808758744
0.544669220179403
0.532362906152596
0.529450119917841
0.513934941804487
0.493990474389468
0.481356472376743
0.465029687178756
0.449977418161977
0.438221231952286
0.414897630514657
0.394323713321668
0.380873428861351
0.368181313275607
0.350395670340665
0.333488092394555
0.318380187746085
0.306718878816373
0.291449145841054
0.278522094671171
0.271212844378527
0.260542865097016
0.250554745916876
0.23999160204689
0.238032292097002
0.231493425503699
0.221806134855359
0.2161465983844
0.211432445969466
0.206951346330329
0.208434891729767
0.204009183013443
0.203178285181735
0.204040689284385
0.202613122497109
0.200580954424233
0.20157940220221
0.201395046261788
0.202740115660667
0.203706006708199
0.206410505411281
0.205396482398548
0.203588889142012
0.20534254066384
0.206294227086339
0.206226774011188
0.206232731527853
0.206882148178053
0.20792492434566
0.20234671966996
0.202052196055089
0.202886887548438
0.200552097042351
0.196706934120249
0.198504780754977
0.19593378413231
0.194602163164254
0.192499108305839
0.195166995539564
0.193655369780812
0.19627027517338
0.194629525572192
0.193000375480102
0.198662090766664
0.201928303826462
0.197763600654713
0.204311342052672
0.201141142155399
0.203608988254182
0.208420569565
0.210208697176692
0.209785522592211
0.212642684433427
0.214405859747737
0.217405854933562
0.21704403583448
0.219729066675112
0.219704113741692
0.224339592528065
0.224423023324107
0.221044226033707
0.220343715026098
0.222788424002451
0.220838206518678
0.222752778654534
0.22959361100011
0.226138283740791
0.227511291579333
0.233953953650554
0.23486301467511
0.240809741301833
0.242033262081088
0.24868341289639
0.255124275965352
0.257564380288242
0.266952278253254
0.278745754608881
0.280399788290088
0.288606274486586
0.297210823637955
0.30394539508481
0.306955355122226
0.309673344655664
0.308165915323401
0.307319295909559
0.295676584249817
0.29980850441068
0.292043558092122
0.287134652214256
0.282019347612648
0.277646431989544
0.270719482490656
0.270830554954603
0.265430736981514
0.266729293006094
0.263699161955026
0.26810854866129
0.273423028454963
0.271435748842565
0.26581170616588
0.275235697118815
0.268799587639476
0.271388743451087
0.265841296596691
0.266487910366274
0.260538416844731
0.254514271181905
0.25344909747901
0.253833133464487
0.251702775423672
0.241816038115948
0.247845725610808
0.246179809822494
0.241303025269048
0.236870876510945
0.238592781860811
0.237450217932826
0.232642118129293
0.23417870782515
0.226993159117656
0.232813850188165
0.227282042740618
0.230423810343192
0.230427620995834
0.23209468677421
0.225363829644148
0.2256905784651
0.226354915214298
0.215304926237702
0.214671785550196
0.223437961015726
0.219172100177681
0.21837084229855
0.219056705543338
0.219758518050981
0.211900958047952
0.210001287968772
0.212907954445859
0.208950953572269
0.206748907738242
0.204728066046627
0.200273724922119
0.201063265252496
0.20279417427471
0.197834553950764
0.201710174520186
0.198085459687738
0.195134143781231
0.19557222943542
0.190098499114978
0.200476021360593
0.194872964251384
0.201188231034269
0.203001209448743
0.204194090883394
0.201562709224566
0.204785852461888
0.197319028881759
0.200222404677707
0.19938624072819
0.206767667276784
0.205188321289715
0.201576006504229
0.207952611372609
0.214591423780415
0.208285124691963
0.214037998016311
0.207246757362341
0.214465208791685
0.21292916365687
0.205560484553812
0.215022182328353
0.220525289321897
0.221395351900065
0.228200170901039
0.222944410432607
0.231727193279884
0.227904492408136
0.235670534579985
0.242370966093029
0.248705382235887
0.245656544966333
0.251148928421395
0.257410209894244
0.27341368643978
0.278754140373455
0.290574940226817
0.290654374620837
0.30197609945555
0.309534539850754
0.321940006610211
0.331087127327655
0.343191141045218
0.343805208452538
0.345396478171214
0.361094473230213
0.384264201290817
0.371901016126057
0.378429548515595
0.387403533286412
0.385158663523332
0.388995464293982
0.378789580564069
0.375792646049426
0.374892618945845
0.370656490253538
0.378794550356528
0.383634706303208
0.378549694868301
0.370464638908291
0.37551517667723
0.366122399410563
0.35825402115134
0.357927284443658
0.363205428099946
0.35814526878356
0.345048299071453
0.339184403317762
0.368265067869103
0.355975954980153
0.350293650418701
0.347813378645595
0.341587528136133
0.351425294071823
0.355295545666811
0.327528695751561
0.33087710466143
0.324715144226148
0.320237158763398
0.314681771302951
0.3147702367608
0.30944057886533
0.331873675372337
0.321250978849023
0.33627563254268
0.323300949648302
0.301512256937958
0.312963726469029
0.337968366468198
0.312191355029142
0.314931863736156
0.320943823891414
0.307299675650235
0.307162792672242
0.327669734285182
0.340148468979396
0.345566083209895
0.316288749232574
0.320683843395074
0.348031561037276
0.33617477959923
0.33742758157476
0.317253972036187
0.326529008624681
0.327567825336408
0.345676997150607
0.344373656648134
0.317593882004843
0.368731277294249
0.350011121636217
0.355261236007646
0.369254711461919
0.376105623184586
0.344789600218956
0.320137482358071
0.343610561275847
0.364581524735936
0.352784824749029
0.402468917357278
0.414361184415075
0.399383378377623
0.389722583914894
0.380193718094295
0.407239505641358
0.427309313516302
0.422904495275139
0.425581725255276
0.447579414304907
0.411270040529895
0.397822390087191
0.427828761431001
0.43340266441565
0.434943164889862
0.464876558863806
0.506633725846253
0.44664327821797
0.437682711227279
0.452925399421967
0.486039145715477
0.47651949161178
0.466924364959667
0.436982694687233
0.45297411664096
0.477075439065023
0.452017793900987
0.476038727465786
0.426335285468581
0.446618786305968
0.407353557430861
0.444216676945635
0.465674152009838
0.398639408532624
0.439826200717763
0.459748100039208
0.454063380272535
0.414297408336322
0.427063458914338
0.403294993427379
0.497541652449311
0.428294376127028
0.395293794172793
0.43984728696499
0.409108465357588
0.399382599450855
0.401321936113524
0.429874986430824
0.391195796979727
0.375079201935231
0.423346601296405
0.509507500721059
0.461809632304127
0.581649316578017
0.484885720761378
0.413446152289197
0.391448746691572
0.504773577988234
0.403269234140078
0.575013759308671
0.557466565965108
0.392256642556141
0.479426045296981
0.494373745119029
0.487435559527395
0.509694307065709
0.60645343872362
0.511649352021015
0.439904158263308
0.408787584074727
0.499326386587163
0.573598295349541
0.508952213805662
0.353685244216587
0.425917187215136
0.569825130796768
