3596
4000.36533379555
650.420452594757
1
2
2
0.0622866593952689
0.0905474937779048
0.0683926163912329
0.0915559238143355
0.0714563264663819
0.0788839295133342
0.0703175204621954
0.0929740045437093
0.0628611519348049
0.0988562517626208
0.0691164330008135
0.0823597676596576
0.0686696405224022
0.0929607871947832
0.0704488838432708
0.0822714683323286
0.0732695013967985
0.0861938569379316
0.0638374483951602
0.0815441658409517
0.0773779625983892
0.0819533600401854
0.072057332522323
0.0791488627638959
0.0770664482911388
0.0934431439276969
0.0719109890272762
0.0952860907903664
0.0596617305181456
0.0866786495802978
0.0677607170821994
0.089471547514345
0.0716904673957605
0.0927592662932394
0.070842112209595
0.0840381758688347
0.0697522623004175
0.0868837808875784
0.0619187431780039
0.0864992443909669
0.0818986454907416
0.0774791208438655
0.0743839061265238
0.08339494687839
0.0722794162642992
0.093411192757687
0.0637157918611201
0.0885338414165005
0.0763621444540021
0.0865565960169568
0.0711004535261387
0.0821824767583118
0.0863548366052427
0.101324561418374
0.0675968031943908
0.100535175877392
0.0716323281364203
0.085164057315049
0.0671639580760155
0.0848090811233219
0.0898934396650661
0.101817014913726
0.066118792271162
0.084616078825592
0.0651807905535978
0.0880772582436142
0.0707666783050213
0.0841355848688528
0.0578355914194312
0.0845140949052835
0.0694415686388435
0.104180775914091
0.0866166449010792
0.0944895975452951
0.0774740183270428
0.0925683424742437
0.0725795440113758
0.0845819764054667
0.0633839331408999
0.100627776442151
0.0806910583311966
0.0906789516119306
0.0654808668113012
0.0784496167368136
0.0777188809296165
0.0974413774726919
0.0691946392488876
0.0940956575210327
0.0865331417675762
0.0924927617572962
0.067170423223181
0.0885295925480826
0.0694333885867444
0.0801103497208656
0.0732295767645618
0.0797628092652726
0.0632816486728346
0.0865078613157119
0.066287899971111
0.0907917708955967
0.084327400942635
0.0938454163735627
0.112709864125822
0.074459179909054
0.117040182365048
0.104146501595418
0.0580354481412783
0.137361307580448
0.0785463236035829
0.0922670275372481
0.0643261756162735
0.0847884041215143
0.0623710440278289
0.0953082458136366
0.0624947530610741
0.112584886713663
0.095174472349872
0.0889947697907721
0.0674416207745765
0.0851064784575921
0.0582164131585025
0.113673196831003
0.11369129402878
0.0863958484270601
0.0795058926066751
0.0753042557304867
0.0565456759042884
0.11788782241913
0.0986584982581744
0.0773066780856838
0.0676076063993402
0.0766556774333661
0.0673676697367983
0.0685054404773822
0.114869088798916
0.0905129201209251
0.0736321586758732
0.0916019830669631
0.095906312716298
0.138828519841439
0.0778826075134259
0.0788500508666219
0.0641471507073302
0.0890644049156632
0.107236784598957
0.0919072061359297
0.0687722769042055
0.108326157570575
0.0848879973178662
0.0753708008383872
0.0723088729838234
0.0701206981767907
0.0906877301287828
0.0929439095134846
0.0405829166186967
0.141993176538388
0.144704536498719
0.1058743063307
0.143358068144207
0.0750601774671435
0.0823215581738975
0.0748241380488777
0.0734809786268883
0.0709361032013949
0.0709036651780031
0.0726104587965349
0.0744508737124179
0.110301627052554
0.0705467108477098
0.0889242784716422
0.0964408845297535
0.101173345755308
0.055459945643948
0.151362924213787
0.0871350999903885
0.0745401094853694
0.106201515783077
0.0895166057857947
0.0602355282331149
0.0819309952184559
0.0972055202485944
0.0713953662398197
0.0746638786459363
0.0762148375934484
0.0731721818779845
0.0946109023546418
0.0754683504197027
0.0728308034120916
0.0770008881445325
0.061882243874065
0.0844118067067471
0.128718612715648
0.115356656798658
0.0837377576737401
0.0816373824238845
0.0479563550134104
0.107161652056012
0.119060760059381
0.0600051995372579
0.0778674230864577
0.0629664691221051
0.0707458034427706
0.0772798446490263
0.0746788430863088
0.0683872947106082
0.0584204375260535
0.112542618511756
0.087001751145097
0.0668543389915256
0.0696613502024273
0.0737268872881893
0.0761479910692123
0.118866607436676
0.113352170417467
0.0589072370297459
0.0902963511794312
0.064458492509616
0.0897256893307685
0.0870525242015694
0.0798266436952577
0.0603070880020691
0.0761668461978436
0.0662336845114346
0.0765851255852065
0.063970970764956
0.0753668906510025
0.062647676272737
0.077327714179087
0.0682521475072987
0.0800774850534256
0.0779540162247757
0.0782841427085861
0.063041065210997
0.0808072558457457
0.0566551058215574
0.0878041708664751
0.0982160097489324
0.0703607009339015
0.067588276382999
0.0638584437301231
0.0746482287046003
0.0652537230457964
0.0658770010962529
0.0639526009681828
0.0685979355138325
0.0677860257202177
0.111494192340371
0.0853428371644735
0.0755187669782292
0.0685178622562954
0.0793553898177185
0.0925052269597961
0.0694740171705822
0.0762096887661138
0.0628219273643196
0.0722581308229214
0.0667186587947405
0.116459931705037
0.078805631145731
0.0823888610744265
0.0856132972042441
0.0947743309246047
0.0625449931952235
0.0886283999507615
0.0583753451725569
0.162833687542183
0.0969338043409243
0.068816281343047
0.137172490894479
0.104563099804418
0.0859248300549216
0.0900567401847637
0.0313300977749102
0.209713621137237
0.116215504537943
0.0856350792120755
0.0735664627982346
0.101089389529295
0.0717846180997569
0.0909296390561114
0.0852911481012535
0.0870385876084181
0.113505426227295
0.114411171389451
0.135774547039913
0.0722303251494075
0.102236735386576
0.114133404142399
0.069159133958491
0.0834552130491751
0.0690446167347796
0.0772021332401222
0.0822339163337317
0.110741812724935
0.0793919066441827
0.0977681048358235
0.066765384890787
0.117661180536577
0.073588133152447
0.0863101617241586
0.0723924847423809
0.101542725196913
0.065427607035076
0.0805493817977689
0.070698246006101
0.0934936325642648
0.0741444709748538
0.0908410531334147
0.121755572043117
0.106864005338538
0.0729767697092309
0.119055017356032
0.0725175857337229
0.0897375709270538
0.0655832160443494
0.0768621510398393
0.0628256098071759
0.0730293423309501
0.0632534103673982
0.119087090122272
0.0840677805691791
0.0771386172213689
0.0695222087573018
0.0724705482968866
0.0724053413740503
0.0822608965522417
0.0729257191896668
0.0756807694906891
0.0733992372497694
0.0801886148579696
0.0888199491041903
0.125602117687522
0.0682458397066831
0.133872144540329
0.12084178486252
0.0828009062024169
0.0859523038356383
0.0826701466016646
0.081895034187171
0.0819445661813333
0.0819760908613301
0.0833852380458443
0.0808722541783137
0.103190943404308
0.0946341599782832
0.0915587724480435
0.0888655548909418
0.138826664979152
0.141845122356573
0.107537459047682
0.0911094552155409
0.0871989294226302
0.111284557676222
0.138209328767743
0.0961567214957234
0.132645719408259
0.0750288014571717
0.104039044347571
0.0809722579487538
0.100160276929778
0.0834171791547717
0.100533147108792
0.0850277704840238
0.106216406375246
0.0944539693458203
0.101373554397224
0.0926328737660811
0.103731517315558
0.136905467020796
0.124887816832466
0.0965058390830515
0.115570623061989
0.0956566981520432
0.145348866865173
0.152253183575827
0.143986096436855
0.155687065337039
0.142216235354618
0.169335479278642
0.122731692989131
0.119047556351094
0.10898425580612
0.112496296479477
0.123164462190677
0.1217293271908
0.121194660013743
0.12505031721532
0.126932337713955
0.131526403362055
0.130035749037883
0.123046953789952
0.126995676340953
0.149655119000108
0.131135657272261
0.127950581118756
0.143608881643293
0.14922401494208
0.2027129977349
0.177154200330052
0.165242925148352
0.140262653969625
0.164146742808681
0.136469541565379
0.166818577614386
0.135505717553603
0.157983880795361
0.157763729544073
0.195054975774383
0.172870890069466
0.184680713628137
0.175891343212065
0.166621587251357
0.186392954163214
0.190645358066399
0.181755689114403
0.216049017267963
0.172085669169911
0.188104119740235
0.192118708027466
0.215362262258709
0.173904348727099
0.220060494498978
0.176720689090769
0.193088658144638
0.175852637230946
0.198032321431194
0.193576834593177
0.214488438903057
0.199942066680509
0.204726805444649
0.202458305617149
0.204418807679765
0.193921134139914
0.239657149611905
0.227360551807911
0.220602601315982
0.221348011587167
0.215468603490883
0.219405569368017
0.223776801604218
0.245436106202541
0.27046981995435
0.236250122521395
0.278971395357845
0.22727740997635
0.241538709377627
0.231187187075713
0.251657652461989
0.230957795673731
0.25234831447207
0.240942901657353
0.260304181189719
0.246951552518913
0.257971509728322
0.256174418210664
0.276709647287482
0.259771015952166
0.275235615137094
0.264662336189885
0.271373212283749
0.282372186026189
0.293876044350686
0.290350597680922
0.332363618617037
0.312334520012949
0.336427586380354
0.291616905473887
0.312346313281497
0.294089267580507
0.301221264165376
0.296340310691691
0.334267493820929
0.310635739518296
0.328073868337804
0.316966797314741
0.319027582070927
0.315439889895342
0.343828671585327
0.32492018039702
0.350364604265519
0.338196723500733
0.36065209337372
0.336558326070594
0.357147491897911
0.356939873712002
0.38011973164334
0.358769767295576
0.372877973619195
0.371215137783938
0.391459274799612
0.370529688811165
0.371629098262094
0.36602107541899
0.387631785813204
0.377419322330401
0.394146389750622
0.377503917634373
0.42162258727374
0.395097992830539
0.418728597033164
0.409534854799187
0.416732100362287
0.412389990221402
0.431749422852323
0.422295852850785
0.442649308627019
0.439184003540278
0.458449398497628
0.44136442316027
0.452876756076208
0.433237428188102
0.478222718961428
0.451016147741287
0.447621357214626
0.458771957984798
0.470631565642089
0.462964306495411
0.499422507497454
0.478688081722889
0.504557285585976
0.48030834046753
0.486957640919375
0.496195669366259
0.517067138755154
0.489373014245989
0.522250186984252
0.517633124701623
0.529545716771903
0.510298733417415
0.492233437331577
0.512962290763065
0.541731880019591
0.547231138022582
0.562577427414844
0.53801597218092
0.560690804415385
0.550576181490913
0.555655468170823
0.558393138703345
0.569208723665754
0.563227602867591
0.570905875381231
0.55440785851878
0.572811381429335
0.561272304948713
0.590702025250264
0.562614128963856
0.603873717848572
0.610526733837708
0.616967672090432
0.609374279923136
0.607172830425867
0.608154761785611
0.641485894953746
0.601068337316682
0.635793725357575
0.61899563440198
0.627672742635573
0.624140956148704
0.654431181558393
0.643745632890661
0.65547308499959
0.641757370572355
0.659870873829275
0.622827079807982
0.656450346183336
0.646767866557937
0.66928711786047
0.680822203535889
0.702885730693348
0.697203625381182
0.697637222728917
0.687330864422104
0.728246597005435
0.713242403710194
0.730743214996369
0.707951027349121
0.701506294216582
0.70974969270235
0.711126451115217
0.708173634066668
0.731102158893549
0.739673458975072
0.763973467720891
0.753093873225507
0.775584220970786
0.732118160787133
0.729306003702884
0.737356420274829
0.769132982750902
0.772076457668241
0.792966946147052
0.78384693772482
0.797674075705932
0.790389274680095
0.820879652275903
0.759546583407497
0.791237448610424
0.771759267927126
0.799061874513825
0.816595627345207
0.782182268506103
0.793845762252666
0.803695235027473
0.802749380149418
0.83467816239281
0.791955302769682
0.814824901372558
0.794532760457219
0.831310020983136
0.849018738871128
0.829106163011718
0.863002207498488
0.854918471543621
0.821637941336213
0.877119016641272
0.865933292901577
0.864869107501298
0.862919855935371
0.86868409700423
0.867302128148112
0.873127978405043
0.900030947202731
0.905514720562751
0.841233976066113
0.870851549574355
0.890839713637176
0.857872564003096
0.867703687471212
0.924733871905621
0.917373058903861
0.891280568009807
0.892496081197498
0.895913085741442
0.912880537395179
0.964043177450238
0.937084259587453
0.934089582109874
0.952170352112372
0.919772360467678
0.895132949214463
0.911000044194999
0.911596355264204
0.955020734621571
0.967349438164096
0.956197768999435
0.964154594777669
0.987974216633367
0.929254580099361
0.918604348271825
0.964086600862245
0.918012080149221
0.93920604262182
1.02181809050368
0.978023300203218
0.983225549900259
0.983989258772299
1.02413602040798
1.04860803591796
0.99453640452548
0.946333101324183
0.956337382225532
0.979916514068448
0.997150034644086
0.994864221461247
0.974180960653115
0.993892729905944
1.01938063586261
0.9880704585078
0.990711840076526
1.01674319142475
1.01837147863892
1.0224025673587
1.02026749044482
0.985165117918365
1.01064850254529
1.05004074450047
0.997740063968293
1.00806836522543
1.03466808469025
1.01825295799292
1.0770234128262
1.10031362701591
1.04577019042558
1.03400610618936
1.03735060878234
1.04923567951688
1.01966645267407
1.00586511170802
1.04563718465587
1.03718187000278
1.00648493109908
1.00324420073172
1.03144053361246
1.07903592347604
1.04017192903491
1.0463416306375
1.07587928316802
1.03549885838199
1.07032722162296
1.10213062076221
1.08987904861654
1.0588438609822
1.02421853566988
1.04815012794652
1.07526909566745
1.06188296220434
1.05870296078989
1.06860896762911
1.0246289201479
1.03037684245756
1.09088211107284
1.05538199614572
1.0435413701616
1.09034295908757
1.08043205717948
1.09923763499236
1.06688176374983
1.03829788905748
1.07038058212543
1.06713523635608
1.07119589061129
1.07956800848154
1.08273730346798
1.09319597939582
1.07103235370723
1.0960255776381
1.08597516025124
1.06106462925588
1.03477147886328
1.06213674890598
1.10343281526103
1.0694790075109
1.04017304875713
1.07450245558539
1.06433888833322
1.06984078320432
1.08930179013005
1.06494229777562
1.0622422843372
1.05833698840896
1.02949762942935
1.02130256910791
1.02767275290071
1.07120902107844
1.0529092935611
1.07832624268332
1.08456947049195
1.05466164700486
1.02672645991706
1.0477936111142
1.094692465165
1.12704154295133
1.07744633537481
1.0772732188015
1.07261650008609
1.0684452335473
1.07895482329026
1.08294137897886
1.04574557531401
1.10716802298261
1.09593297141207
1.05840136315055
1.07229736103175
1.07912302454378
1.06944484817623
1.09707618761348
1.04712196468668
1.0657754671028
1.0488544232182
1.03025058672788
1.02739927188607
1.06078623041756
1.05977267385059
1.05717468641477
1.06994974275488
1.07494781065097
1.0240333340942
1.04497091742321
1.0342678699916
1.00093773935307
1.03797026316805
1.05166930339967
1.05765431933615
1.06254738270855
1.06315303843363
1.0898807469452
1.04985952162859
1.03303827832461
1.03803573100005
1.01307377497021
1.02142797366288
1.0197455278921
1.02959083057246
1.02512170598616
1.017484650187
1.02408465702133
0.996513051423047
1.01155362891572
1.02357789697589
1.02852356337549
1.00511149220461
1.00939594876626
1.02324639670597
1.02831259348857
1.01976549004293
0.991416277190573
0.9809004391482
0.986377102773496
0.968129709730606
0.976565308812086
0.98870985178149
0.991237436418562
0.988342817767459
0.996131520726101
0.973593275456464
1.01323849178709
1.01274517914998
1.01387725785979
0.974810502248426
0.990828907319524
0.967677159828781
0.978039766416264
0.979753633215647
0.977922688036942
0.973093937463984
0.948741366029633
0.957393723283512
1.00287783332361
0.948631582674622
0.957056325507597
0.925351071230284
0.957160355844822
0.95000560818903
0.949062474189566
0.97633375902341
0.982419837957819
0.97659051862611
0.942034900461838
0.939453721373312
0.934898726979435
0.908745651813252
0.92451667379804
0.917390135398338
0.924111702615956
0.902877130226322
0.910794600806627
0.91548786900907
0.9082135625146
0.888856417704552
0.92114012781309
0.888838263712487
0.895693547673594
0.891083258592324
0.885427644113771
0.869936942535709
0.879664712033979
0.86560511833983
0.889286114109463
0.882865116200976
0.873840082658151
0.839377429194569
0.82651579510925
0.850799390807753
0.860218591450373
0.843718320921494
0.855557969189093
0.863696013238771
0.842003265327865
0.850516062338637
0.852428932468492
0.817771372487534
0.834320390802393
0.83879555254419
0.818888197009614
0.830941982562158
0.83479716954743
0.812001118064942
0.843783088618196
0.812895071038802
0.808907586288849
0.80478146039429
0.799253516742073
0.797889531720439
0.790698560239794
0.780439443168254
0.80774761781116
0.79261978241366
0.784003310385825
0.774514186417072
0.777828009226386
0.76933880065283
0.7669754531714
0.76462070495441
0.769896430981328
0.758844579520763
0.764412767931319
0.743270338161545
0.738407692814732
0.734617146317992
0.744236028229486
0.734981684474975
0.731688650790621
0.710811141662545
0.737988052066786
0.72742006257722
0.719111776356906
0.71981902064438
0.72038226279703
0.725919341922653
0.708902018574215
0.705614599323628
0.715190875409424
0.6942909617008
0.696984873481519
0.691664832167784
0.698886315876707
0.688330518388863
0.678311200024819
0.671543338721806
0.680219031124056
0.665169088963769
0.684693272720477
0.664676365150135
0.669577385219032
0.662607683614295
0.65439429918065
0.640610029315747
0.644903320283383
0.64651263121372
0.643024443292698
0.638357189924334
0.635831396462639
0.626554635128817
0.637636137509958
0.621629490059006
0.629621485811591
0.617831072156135
0.614624926946331
0.620803308020947
0.617589904584844
0.6113704980319
0.607505264011297
0.591516333538326
0.602490482539531
0.597633728007921
0.604402011758685
0.58587131354637
0.591397126843908
0.584631335362336
0.601364762908296
0.586518569086094
0.574053098441955
0.572777440798393
0.568138545160833
0.567550438637846
0.562303541460801
0.565962881837413
0.560231616700361
0.556721141689811
0.566622731387765
0.55593536169549
0.551206483057135
0.543189847810503
0.551911042963115
0.531870907297648
0.539056841239587
0.537744951112211
0.542977881153271
0.520174281882374
0.529556170931757
0.529169057591709
0.52241589605387
0.520160756010522
0.526575184074028
0.514736406650305
0.505197691765054
0.507039494876319
0.507531618683425
0.499047749691012
0.498008909216126
0.506336555516811
0.504375701906416
0.498109503032553
0.497908184464035
0.494422580333564
0.486248860066713
0.483223320177962
0.490086270969166
0.476493059319945
0.479916352190454
0.472813129648339
0.480493801914439
0.475199933005315
0.476943863546315
0.459806981556688
0.454298368477468
0.465558482296836
0.459711523788684
0.454090973607898
0.449674569556719
0.453523637753398
0.451729594807231
0.446788437411207
0.44378866509353
0.444537401444946
0.44137517708385
0.43163502614478
0.429325479021858
0.426912395474003
0.429611938080541
0.427139410957304
0.439105914183408
0.425847761711596
0.414029961624749
0.418093097829947
0.414742060914947
0.409388479094358
0.418792511910632
0.412869846896443
0.412187083793034
0.409708359111969
0.401236107723142
0.397742537819052
0.396738221849498
0.391399011711105
0.4078621131507
0.39929547272833
0.386214230183268
0.39059644783187
0.389662848454997
0.387598433330089
0.382714074559025
0.383039194210184
0.377326689597425
0.377751581027436
0.374695449003371
0.376025036195275
0.375511191402876
0.367328297074371
0.361347683958674
0.36317034244114
0.36293137261606
0.358848951119548
0.353052901935408
0.352370968980146
0.348718390476419
0.348421283624734
0.351199446302601
0.344618671258229
0.340772699860288
0.345187614141003
0.351741340665457
0.348285959775578
0.346244368951735
0.341825185720498
0.337827256362177
0.336184904492375
0.337399520049429
0.335967627638465
0.338163022956498
0.33326643199112
0.328679629081272
0.33201048109033
0.330498065393925
0.329976070747465
0.327419745848357
0.317186813941564
0.320735105252586
0.326750833235918
0.323057729287423
0.317958991096962
0.315361685826526
0.320699402495595
0.317379976247622
0.322066236647293
0.325375250217484
0.319433715226369
0.316606802029672
0.317197023800354
0.320697501670437
0.320734268357693
0.317681174115666
0.315401119519977
0.321268304112097
0.31534663802219
0.323428638554409
0.322770237844051
0.317949228955837
0.324709870955536
0.32491853386579
0.328449498277861
0.323980288920034
0.330609288575143
0.330399754773727
0.335417458286516
0.335236430240294
0.328939015625536
0.332569729527189
0.336279955403815
0.338350462958324
0.335818715709081
0.33736922139348
0.343005243624246
0.337332807697586
0.344730949893248
0.337176493570781
0.346413764507497
0.346792194461738
0.347557773325583
0.348839130563363
0.351933195471982
0.345675408297952
0.356853385705749
0.365008671419308
0.355982638971887
0.350228847695061
0.359408726031628
0.368341401405461
0.360651730757377
0.367351018721415
0.364488076853829
0.371002328350758
0.375365280968288
0.378929319633353
0.379858560396931
0.384608488300807
0.387774218096209
0.389526925305034
0.388973112069529
0.397117479529676
0.393873732221608
0.399685912419676
0.40036799585178
0.404816431950197
0.410326360188117
0.421426428683674
0.415034465775256
0.421556512847475
0.418476064318008
0.428939320804024
0.428638881105182
0.427238664643784
0.425818890010149
0.433401322936584
0.433672057836364
0.435845966181045
0.438415956979682
0.436137042194578
0.436245867946031
0.438821615417824
0.432767409362593
0.436198518736771
0.434099097739931
0.437641259647194
0.436121226374987
0.429760305626366
0.439096987193622
0.441093529286158
0.43070688953717
0.429885340263415
0.435291022912284
0.435878483160032
0.42761513477115
0.444599048492485
0.434861432799384
0.430973817806242
0.431669037326937
0.432104406397722
0.431095164689892
0.438396355573097
0.438858443014453
0.438570560705406
0.432731061980007
0.435173117859475
0.429382833579656
0.441473753917873
0.437836981434062
0.439225401746875
0.433439048341313
0.445179525038501
0.442491749215889
0.439260329521903
0.4383400163371
0.444166779448587
0.435818383737323
0.44501297618389
0.445528062889822
0.439017942644824
0.441249938086757
0.451336327688034
0.439484097583472
0.440611286530182
0.45093569814604
0.446545049058357
0.433694916880483
0.44412412427044
0.44269498896886
0.440532080277999
0.436888851927599
0.444720302278771
0.433342095129662
0.440484834653214
0.431449666884928
0.434055955948213
0.434657278047421
0.433488105041061
0.428004726072023
0.427508071460241
0.424229170370057
0.425680542490605
0.421794949648776
0.422998131086555
0.421289444244883
0.409574873190806
0.414735431058456
0.40461912357044
0.406387405946169
0.403036834955845
0.399081603811822
0.395600295899737
0.402710286643708
0.390537362266715
0.391610143713282
0.382902430263686
0.378056442329986
0.383731087483824
0.372315308755417
0.369380836422488
0.36714299316718
0.367406782627475
0.355091772063038
0.36231819069468
0.355610309259883
0.35138060708957
0.354474800423692
0.351602508808575
0.339239263318065
0.342881752292288
0.335959172365689
0.336441077658886
0.331989410357301
0.333646052300743
0.332435286075173
0.328633483090746
0.330721885649716
0.325606154071844
0.325724586018672
0.317034193402953
0.325142039204905
0.316051060416792
0.308217338895054
0.311451124503245
0.311732346853878
0.309177975796185
0.30461362744552
0.306810190986954
0.3082603554479
0.300298106538775
0.293616190811528
0.297877749523948
0.299945073401411
0.300710888275429
0.294260817326838
0.297499111997268
0.291434807955615
0.290275943222586
0.290284948351669
0.288987841294538
0.288488182642694
0.283177921836731
0.281574829121
0.279103014947062
0.277516601298407
0.275568628563364
0.277076639303417
0.277252599756108
0.278900601473614
0.271704524377341
0.271498643786737
0.268643594952813
0.267354919849082
0.266855754693537
0.270606631206078
0.269676722977578
0.267323910725871
0.26654924566006
0.262249702734208
0.263020541689096
0.259648110021608
0.262082552048586
0.257232241004762
0.257635856776732
0.258833262362172
0.258635027844066
0.253674001180392
0.254310605052957
0.247748065079603
0.25248000784518
0.250238803731941
0.251659875746893
0.248954626600361
0.249152122707403
0.241885987286332
0.246070827770536
0.246460812241186
0.24930774484031
0.244121955858947
0.245915076503684
0.241354828992423
0.237282252701055
0.240179950227542
0.242483631424111
0.240232674735874
0.24095860398536
0.239664766995093
0.234991162722971
0.236736897550511
0.235736023751959
0.238186921654686
0.234807794110199
0.232797417177379
0.233271160850515
0.228128993353367
0.22686430051353
0.228499075352745
0.22809873286335
0.232320664895566
0.230236784177547
0.227684969475881
0.225143078260818
0.223518029048279
0.227148358478295
0.226514391712058
0.224541360687165
0.223765787199064
0.22114060340924
0.220216100948954
0.220314053329724
0.222698274219045
0.223968813686742
0.225844441324334
0.222113372374361
0.222036725302718
0.221629154761491
0.221311939015119
0.217533290612711
0.215875621180116
0.21769480045288
0.213493543407005
0.220366779987246
0.21677829236081
0.21537757526076
0.219934555719395
0.216438216694015
0.212379067518194
0.215589910006294
0.212915031625464
0.216596736215126
0.214793342548163
0.213208956931006
0.214265603678551
0.213581386543454
0.212915639606691
0.215447705756961
0.218469193731004
0.209370736326804
0.206956756992365
0.210225637703588
0.21104144719113
0.207718520711421
0.212650904540912
0.210483749587824
0.210816905820539
0.209444971100598
0.206299068113463
0.207989271421982
0.205411527252164
0.207245710475546
0.207729825373879
0.205898085744945
0.204414298051652
0.202759707868094
0.205129168315599
0.204150320296689
0.204482194224983
0.203104610542794
0.199463352287428
0.204672648154172
0.200478348344018
0.200668242053612
0.198231605680019
0.199597593079052
0.200569664192387
0.197978942016018
0.199105012917779
0.197823430008822
0.193618896372339
0.195664362077978
0.195338299988635
0.192206722957434
0.193335942812693
0.193681515940169
0.190235613675571
0.194564625622548
0.189986987849056
0.188034536645107
0.194133216775565
0.193678724992974
0.19095742868972
0.183541478375767
0.189769595886307
0.190076725872621
0.186912701156189
0.185737950892945
0.186442317037093
0.185392986101327
0.183949303343756
0.1818119293896
0.18156164933549
0.181758525777307
0.180951217369668
0.181816131037895
0.179024697687893
0.180418305986291
0.184090864435191
0.178158434826068
0.177940114055943
0.176623106172123
0.178661663293604
0.176132623821338
0.178840515944843
0.175782979682936
0.181903344228475
0.17295145632176
0.174747502176574
0.170317021752904
0.17355679181421
0.173408886096654
0.174012831475278
0.167520384879046
0.16806981612069
0.166931708110336
0.166319572004812
0.166212143840621
0.16865636168906
0.168640801413204
0.165658563905353
0.162323870972175
0.161233750031323
0.164077964398189
0.160412574360723
0.161822694426832
0.162821281567359
0.158541486614438
0.165765838569037
0.15875337860508
0.154261515206611
0.157643983818664
0.154063024061036
0.157637214443958
0.154026607481866
0.154525468199534
0.154214531542161
0.151848028801498
0.150498141989856
0.141790158127835
0.149499550365445
0.153964698271283
0.149927964712017
0.14651968270049
0.147461384700478
0.144425049803466
0.14929657907148
0.147240328325099
0.149786829954211
0.146418569633817
0.145978841916425
0.14144776105664
0.14313885239433
0.142863166828231
0.141699945633052
0.144580210939237
0.141929706627384
0.142918642834137
0.141676943581473
0.138998507289443
0.139749503490542
0.141153347552172
0.137830257091284
0.137576363437068
0.141662094534642
0.140869790500593
0.135609307161903
0.132188534200013
0.13431178102788
0.135853442865183
0.132268095093454
0.133098790744927
0.138507557452144
0.136453108480494
0.13416419865703
0.134374140174686
0.133163068675844
0.13276263799089
0.131420920394175
0.129941201685574
0.131436882511685
0.132311750232672
0.131482454939576
0.130763071714576
0.128477916340344
0.126834769022369
0.127083330061827
0.124503876178306
0.128645401057454
0.123139632341208
0.124869486618936
0.12628386950041
0.124794802074047
0.124916828075607
0.127383527549888
0.127963424822615
0.122364460952016
0.125230255881947
0.127822064253505
0.123418183485398
0.123354044337368
0.120392907596175
0.12333549736795
0.120041465451451
0.122014534893415
0.123154963443484
0.121735716005989
0.121648330693223
0.125305140526187
0.119908704812221
0.123143313253997
0.121616416164485
0.120419687428745
0.11974254106912
0.118513906381358
0.119195378624472
0.12058484659157
0.119329611292133
0.120841415200997
0.115758491966905
0.118711826054315
0.119262201930952
0.115782511865178
0.115361867882411
0.118143567016554
0.119824232840857
0.119957873097188
0.118315119361842
0.116610500321179
0.115718324695158
0.117171856859967
0.116032411798687
0.117234955802018
0.116455108342469
0.116550716082225
0.115339689450074
0.114773173692464
0.115238295492841
0.116691961035255
0.112062060241488
0.11273760425606
0.112380994187644
0.113321029057282
0.113420962509996
0.110622883091247
0.112340299941565
0.111142221874428
0.107199402867776
0.111041812411966
0.109459242712142
0.11005393080574
0.111304486986527
0.113670987300713
0.108331831226303
0.108550840590212
0.108017839510537
0.109829032702759
0.109141803264051
0.106041101771637
0.109504038030898
0.109459942998942
0.108495035849049
0.110038785948475
0.105519503919687
0.107936578729546
0.104107051938331
0.10697341002172
0.105130972212808
0.10868824265961
0.105025846041651
0.106544425230629
0.103207057321601
0.110109642694412
0.102845012026828
0.10398410916529
0.104908337657846
0.104900393069425
0.101421470058106
0.107050026920907
0.102697758971522
0.101531459909001
0.107086434846676
0.102306628899706
0.104462921494959
0.104194821156981
0.101182658156961
0.10099278368573
0.10112705988244
0.103900014237467
0.0996287079253933
0.102995544382813
0.100405771724695
0.10357677812835
0.0985924386564081
0.103482229869939
0.101506407594612
0.100930121320757
0.0968603495223606
0.102104032233648
0.0972504894260805
0.100589011273092
0.0955155569566329
0.0959698666069482
0.0953404656540378
0.0978898105970176
0.0956505192441536
0.0980198109161301
0.096183840265866
0.094437374619263
0.0927523784749242
0.0949517383417672
0.0921328942744508
0.0944839716192119
0.093796886149938
0.0954729646249706
0.0916828909303769
0.0936670726479546
0.0920289436990904
0.0933291372355469
0.0896125845966543
0.094278128775407
0.0900291517823211
0.0918484115936724
0.0888956059512329
0.0902290122311186
0.0896690506714181
0.0884896572874417
0.0871145206641639
0.0891821319496841
0.0858817485118406
0.0890132196253518
0.0864922328080458
0.0922097676936893
0.0894131527020842
0.087979986608055
0.0863472755436779
0.0860282009475671
0.0874696879572817
0.0870852028981578
0.0839845224270787
0.0861529769308958
0.0812048599289681
0.0855693485109471
0.0839223445348702
0.0844765094938356
0.0838705634735012
0.082307843045778
0.0826528443099691
0.0840946177660075
0.0806826880495828
0.0865677508776011
0.080992609146736
0.0810473716933312
0.079970114590643
0.0833474841832242
0.081467362299152
0.081930097422861
0.0771329007611367
0.080313855913669
0.0803891014026587
0.082221156996886
0.076912954186509
0.0787739492824676
0.0792280501146054
0.0803583113037155
0.079199473171829
0.0801522542072653
0.0784098929766405
0.080589607998605
0.0741399551068831
0.0787966163361275
0.0742471920258006
0.0773122419107648
0.0751867038335508
0.0779510701527693
0.0758106848496412
0.0762969644077883
0.0737987704900971
0.0740625151391323
0.0734039383292806
0.0762223415731799
0.0720852931159746
0.0739223215408533
0.0721963262818716
0.0760364927973986
0.0700825360759752
0.0734451462621148
0.0715910317471688
0.0753696696734784
0.0729781219911271
0.0741566086965772
0.0712232546276319
0.0761418103580287
0.0735654951833678
0.072570338955636
0.0689248003558085
0.0726325402562593
0.0691243614442707
0.0728317779789119
0.0703152376158552
0.0714002494728226
0.0677132660392574
0.0699678377734359
0.0696493515947754
0.0745186513884079
0.0700912409862036
0.0700108901976113
0.0681843065908889
0.0739657521854647
0.0686871444140138
0.0740488310059056
0.0704968305255075
0.0725862597530596
0.0698559356974181
0.0747446078354639
0.0694135338033467
0.0767541686133093
0.071459057687374
0.0747054933012749
0.0674342452301803
0.0726242379641103
0.0658136785504519
0.0665766264414986
0.0529722987324396
0.0641656006862075
0.0659735771675812
0.0693936464241754
0.0582428271083232
0.0643906134295248
0.0571831828020991
0.0686743218674401
0.0576086361598068
0.0691846228486391
0.0523768332137668
0.0628900303494639
0.0611515101822147
0.0619729520980598
0.0582170346864319
0.0626082388707585
0.0567238161219143
0.0674627493887041
0.0573802829009933
0.0731589594583975
0.0611859508318275
0.0712336471724951
0.0562172500577258
0.0713353816555504
0.05585517614495
0.0692206952199517
0.0591718668377033
0.0639588584129229
0.056476456598087
0.0634573280644685
0.0572610262857299
0.0678938714941394
0.0585385970598811
0.0651084964683816
0.0562947797659025
0.0626020598832826
0.050951032730646
0.0535424626082857
0.056540033652024
0.0594915363432305
0.0692366332810689
0.060112159898162
0.0695748696885378
0.0471618048616379
0.0685047894382343
0.0460748743658593
0.0844458356145883
0.0450938781510664
0.0821083656980485
0.0334535859106715
0.0965943564658242
0.0358486685989092
0.0915264303456918
0.0271082983429376
0.101287811621593
0.0327579437108105
0.0926660512346583
0.0399621694329753
0.0888737238431176
0.0460543117841961
0.0775024424522379
0.0587283930329149
0.0688544644591443
0.0640708562326239
0.0596467570003635
0.0684780572996859
0.057499728156904
0.0706164076625955
0.0579929739097475
0.0651852941266948
0.0634805179582573
0.0597500095181257
0.0670740646892791
0.0587956665686359
0.0671583649145051
0.0580479393465521
0.0623911006703468
0.0580668297366678
0.0619359852225965
0.0617450009226192
0.0605720500123463
0.0592112446497327
0.059451338492253
0.0606452219282948
0.0609570945124856
0.058292602518183
0.0593669529970703
0.0583685308427452
0.0617833992651462
0.0596868485291549
0.0595363627045414
0.0620550595958719
0.0604955940248671
0.0578882433267102
0.0589517128180373
0.0590832687000054
0.0623135893381083
0.0601321412488654
0.0595253983142886
0.057503960416081
0.0598307300714774
0.0618807300978658
0.0615518362429014
0.0596850881742526
0.0593467244881766
0.0587190030069573
0.0596969352580759
0.0600391924725332
0.0596104120196595
0.0587858817577039
0.0603360431078135
0.0588134117133882
0.060905628311162
0.0571784080967248
0.059934117367866
0.0606888438459524
0.0602369490027331
0.0591467703894764
0.059251241288522
0.0592654771324967
0.0601239315435083
0.0601808772729129
0.0593093950771415
0.059465778433053
0.0579635442934903
0.0569475769737562
0.0610512804305693
0.0628465135872802
0.0571782136508447
0.0607261207045111
0.058165279165783
0.0592309058513722
0.0578525752396635
0.0585503243715319
0.0588886103837069
0.0607042272174866
0.0564071161518417
0.0571903631172811
0.0577244061831595
0.0600923602167652
0.0598388540899823
0.059350347926015
0.0582570860421322
0.0586237749123879
0.0579842257726239
0.0570192216879959
0.0595263738005923
0.0595918286962004
0.0586364764110728
0.0583981243538779
0.0568683956588963
0.060140547438755
0.0596786157084262
0.05902223426672
0.0597157561553973
0.0593691984879613
0.0583008263912128
0.0608438844924917
0.0611618383985535
0.0607480568354074
0.0585011086797757
0.0609069337599022
0.0583601527597459
0.058106758938607
0.0583197624730267
0.0579262043988876
0.0600584978845024
0.0599872200259124
0.0593651398380633
0.060276629174704
0.0598896564553349
0.0607120681234227
0.0584848440976729
0.059973689278588
0.0599770806151298
0.0612602080690115
0.0608640359039004
0.0610419647394709
0.0597625595598988
0.0612317829985389
0.0591084750653551
0.0615597079376436
0.0613411611409061
0.0627890371876522
0.0620119567156451
0.0605953957654809
0.0599621990209983
0.0614847566765376
0.0590000981030119
0.0609283619509766
0.0612902666899037
0.0627068656127333
0.061755224263035
0.0600224341991961
0.0582421002232769
0.0626245651920751
0.0608104284721503
0.0609506951438952
0.0579470832538933
0.0614419938713904
0.0594515448168446
0.0602295091322691
0.0592596908929545
0.0610311631595095
0.0586411691787623
0.0614008450820141
0.0613686371948225
0.0623823279206482
0.0614403883856089
0.0614332580202724
0.0603705314454825
0.0607850183701135
0.0607199654313432
0.0640314298097594
0.0614393029061537
0.0614571752445079
0.061337113724228
0.0629718326448207
0.0628591199211801
0.063356764534995
0.060850715907625
0.0626459985404177
0.0617998424336644
0.0635377425694266
0.0615773610139952
0.0639284602542123
0.0608884889083308
0.0638666176006978
0.0632758399203817
0.0635949393642979
0.0626245790548477
0.0634753678397505
0.0620686285907528
0.0605735438646288
0.0611229862877315
0.0636162557558089
0.0627610252975803
0.065021703445531
0.060497018426288
0.0639651327587737
0.0625186975307541
0.064233946892547
0.0630085780687153
0.0623511181175691
0.0608505565516896
0.0604420118118329
0.0623624886808896
0.063243182204322
0.0591805005779464
0.0619794038080368
0.0625018670601363
0.0603108860950039
0.0602767281562499
0.0615349773261124
0.0597228535460813
0.0585907996533244
0.0597858713126385
0.0612897045779035
0.0583254497743678
0.0596727766733246
0.0581727877485651
0.0605541629842867
0.0608696404277897
0.0624683988273142
0.0579803126806235
0.0621226341162317
0.0593658357555178
0.0590415434991919
0.0588563299539614
0.0574245438724017
0.0583427583500764
0.0590103514967143
0.0580711280722204
0.0604895195996791
0.0574124668983455
0.0619927255860317
0.0576168194363922
0.0595407971361944
0.0599074050463373
0.0590057239646814
0.0574474591237404
0.0590931881934115
0.0564418313817988
0.0584963533220966
0.0567014642096308
0.0576698967620559
0.0582706281433613
0.057183328133108
0.0555916255171848
0.0583608026555709
0.0579559073890061
0.0588323445741694
0.0578099191936711
0.0602543525270596
0.0572762277824182
0.0601985106472301
0.0566669081329803
0.0559323088984184
0.0566415035670697
0.0570223507294108
0.055967461702377
0.0575175415421508
0.0551730295271886
0.0563693647285465
0.0549892324662563
0.0578987160820731
0.0574501155754498
0.0592968284394329
0.0569662420232573
0.0563897156993031
0.0549488652500938
0.0589526591452938
0.0554081763768292
0.0557873471269784
0.0553606735312423
0.0590050077434117
0.0561158478008702
0.0580726662010138
0.0552324333751579
0.0589951223145953
0.0546428373204772
0.0561612530152047
0.0548100094546215
0.0543494718055599
0.0540566625571481
0.0584032644400634
0.0583295848296179
0.0586165176867289
0.0538134312242164
0.0561975615104916
0.0559030830846952
0.0570005192631731
0.0549939379116739
0.0562114489845105
0.0546806989279749
0.0565967186118713
0.0544570546371758
0.0561126920656613
0.0542367102253426
0.054563588705755
0.0539067537512675
0.0573860508878804
0.0536395332331905
0.0557923778351128
0.0555254505216295
0.0553794083150227
0.0547890502288932
0.0544780675876491
0.0552919231375992
0.0556159061178569
0.0530889679851717
0.0573938449861196
0.0562078703850968
0.055890273702606
0.0536049910627142
0.0557596160715443
0.0526771884865217
0.0550975194206694
0.0541624252652807
0.0545065246639702
0.0506863195808632
0.0540864683909794
0.0532170425749563
0.052766875774428
0.0507294458235132
0.0550608896513872
0.0527756548408335
0.0542258769195407
0.0528927185444341
0.0544549777666824
0.0513625066368351
0.0529856015035066
0.0509592084723532
0.0520171076135245
0.0506530209521782
0.0540086535214151
0.0523482750817333
0.0555586890412222
0.0536614310329475
0.0573808812556337
0.0505481700893577
0.0530644989030518
0.0478922030305369
0.0509358312274746
0.0479292218840681
0.0502373031676042
0.0506224799117943
0.0497816297325825
0.0476887562529949
0.0508788616627956
0.0453760926487896
0.0493978967236615
0.0481774208345427
0.0521913843276085
0.0458821324163579
0.0484902598622543
0.0482263660581217
0.052829104863606
0.0471197177900852
0.0497992547208356
0.0465190589912783
0.0513598363160652
0.04462378564567
0.05162946302878
0.0526052156886049
0.0601718471569406
0.0487465293681032
0.0495242107347816
0.0508295597935825
0.0508989618527933
0.0480458764597002
0.0461119178184656
0.0485690508771208
0.0478766907948243
0.0466153870486005
0.0467124042839497
0.0475589097003218
0.049585089756681
0.0457573794313157
0.0481034879880614
0.0448749890759552
0.0479873762027168
0.0441641043024532
0.0460735310290197
0.0465761982592135
0.0480923961228052
0.0447989838915513
0.0457556468671352
0.0462365322520605
0.0465682545462008
0.0443940792522389
0.0529683783394543
0.0517561675291654
0.0472697450945859
0.0459026287914135
0.0447649590844007
0.0458559312692724
0.045132620621341
0.0454588206754979
0.045825851987926
0.0439268491629735
0.0464444919030023
0.0439114260691272
0.0460331047926082
0.0462010675292553
0.0480276818287046
0.0439891673947674
0.0468070779218593
0.0457857946954265
0.0452965379172509
0.0457067286275539
0.0453376430168203
0.0437346726803814
0.0451662556881939
0.0468398300132732
0.0465282102866162
0.0411776758197814
0.0531299148931857
0.0602112015228189
0.0542343366823104
0.0427616847916587
0.0447985593763017
0.0399218802990543
0.0440167264462817
0.0422064861463103
0.0462146254069229
0.0414282713436569
0.0442329976243393
0.0441511475527406
0.0455606197936264
0.0435923581549876
0.0479387267419972
0.0413663248265277
0.0444829901765499
0.0404298669552956
0.045680770523014
0.0416953639338688
0.0425969017840186
0.0478165233582058
0.0595941563826155
0.0495243792457568
0.0479922047427984
0.0397239671605724
0.0492106432527149
0.0533011414751566
0.0570966251163185
0.0373450977523405
0.0492711525313114
0.0410093834808041
0.0465140197510598
0.0400510548176218
0.0452563715197874
0.0447980622534399
0.0512434196218857
0.0453150988863218
0.0486456132265281
0.0434041543809544
0.0424561194224548
0.0405837632482967
0.0465037312371524
0.0438093692290159
0.0444226032356827
0.0419411863972629
0.0438114493997166
0.0419122649126102
0.0461932969597337
0.0402421743978382
0.0457699778111198
0.0459090900004466
0.0503954701275236
0.0416510740146718
0.0464857907245504
0.0391876710843697
0.0432001097776342
0.0508604471025923
0.0554931193822491
0.0472607238992566
0.0415856321929882
0.0426388561969584
0.043128052141229
0.0438251985205049
0.0430975299741786
0.0425354512656984
0.0413992830836912
0.0429481723579543
0.0470563136683276
0.0422972345950678
0.0433424993579124
0.0412857977759607
0.0433722353410597
0.0408264997080026
0.0439339452097097
0.0428317822020153
0.0462904012877042
0.0413281664047827
0.0502717732273467
0.0555395937984913
0.0700873303074525
0.0555649443198031
0.0569033391554732
0.0472497651674942
0.0449109450232674
0.0430570222345299
0.0417789677857738
0.0432155806628544
0.0436910132675639
0.0425857833166663
0.0424343963453169
0.0435200580537153
0.0412927230072235
0.0435780636665345
0.0435998342784301
0.0407450600873396
0.0408592270574126
0.043805174425624
0.0420597456279439
0.0441687850529231
0.0402414805060612
0.0453446379800864
0.0487452541924368
0.055121737046687
0.0410375155779018
0.0548678285659829
0.0633638581769895
0.0715111613570921
0.0514680099199679
0.047720180266214
0.0463682737760882
0.0397590003184837
0.0433502573842378
0.0446062187570262
0.0499044655226722
0.0449691253890744
0.0444459597407147
0.0428636797719575
0.047363590467975
0.0434914068316614
0.0446177293531131
0.0552721630259141
0.0737872041360212
0.0585021691871084
0.0471118912255001
0.0411564061082221
0.0591152729895479
0.0636904874793593
0.0540898437628571
0.0442821106215289
0.0520504938064322
0.0400600278472917
0.047365579556618
0.0409646469551159
0.0483206881474755
0.0467008902924568
0.0490895068476752
0.0446437446505346
0.0431869488838946
0.0422657439031142
0.0478771868632602
0.0483540402567109
0.0587012048957151
0.0545216439416012
0.0495693477948754
0.0482005239491209
0.052877728633685
0.0450580691961852
0.0488185287432862
0.042688787820466
0.0491587664910321
0.0594166892481136
0.0633162069321152
0.0563426153298664
0.0630624133474027
0.0543060598811907
0.0508620079498588
0.0472232712496819
0.0637194699179973
0.0496244091566359
0.0501216583254413
0.0594042033624309
0.0729571115364199
0.0756171378681658
0.0607526849233145
0.0600888732371366
0.0439097014838231
0.0545169859193729
0.041443470529193
0.0590634969450347
0.0591743042898031
0.060357848150901
0.0426843384221588
0.0515367775027882
0.0579639240687621
0.0634336394171294
0.0544208846408155
0.0552462257135143
0.050388543487298
0.0552025020276947
0.066336682211334
0.0533631604106994
0.0596810150814498
0.0696398765935724
0.0977041007753438
0.0711404411717128
0.0588958927217647
0.0610017233145377
0.0814154873340103
0.0655364759086008
0.0488599580830228
0.0538415629686018
0.0538505862499787
0.0506638017630216
0.064757060923457
0.0806031144803174
0.0647662606057188
0.0535797340514415
0.0573732272660345
0.05858321325003
0.0720924133734817
0.068527613017348
0.0541012161324777
0.0593053197272294
0.0525023326794682
0.068013837613692
0.0914771599388198
0.0821415352214074
0.0762504048172221
0.0830792878350514
0.0856602558936143
0.0728157082681041
0.0719741220895702
0.0637510316342153
0.0842717711619939
0.0839392025286467
0.0684824683191982
0.061984717020804
0.0911019964629651
0.0812830638761727
0.0787647716061999
0.0662597285447631
0.0731455953732934
0.0694409158499251
0.115008414618484
0.131695537686161
0.106977903938394
0.0742617336996218
0.0885857119776783
0.0964705283726411
0.0867440106530778
0.0715044518528176
0.0764960657102731
0.0753015420885724
0.0750754230195138
0.0801129344276637
0.0870737659106997
0.0847611482486426
0.0868031769569507
0.0824747107386164
0.0957675217252605
0.112702107534551
0.147935110659151
0.115609491580248
0.117600017516815
0.117638428401858
0.123430525320594
0.0976770234515147
0.0962514879524349
0.0894033734371361
0.105202926972151
0.0985958101645215
0.0952541173006061
0.0991024797596459
0.124869902748471
0.111835447686964
0.121800522211933
0.117091114949068
0.117095179680366
0.103931984879993
0.155937866442574
0.194088021805447
0.163694737841104
0.115485762377315
0.141409343230175
0.144599418033007
0.192443125232635
0.140798236695073
0.132645378595058
0.130650939372838
0.136599442666856
0.14213918492371
0.154882984126492
0.155901913195267
0.170703585776334
0.152691932435942
0.165403880199056
0.176816652502415
0.252103607372696
0.233426451427241
0.197307320997477
0.183952637689891
0.205894022741754
0.202863215846282
0.197152193545155
0.192296441299133
0.20074210429847
0.224175761740723
0.2447300543446
0.229832474841415
0.214180124282352
0.240584907802717
0.244337730281629
0.244730138597802
0.276087059316686
0.277623123601774
0.25272137804754
0.249810788824604
0.261235394546622
0.253441206186882
0.268509935218936
0.293979143673058
0.293864369241195
0.275068035706816
0.285530300956855
0.281425098783012
0.28827751457865
0.295890262207559
0.298739412519326
0.304703283534663
0.345613038572456
0.363808444630859
0.454253988407989
0.335176586355015
0.311130991170671
0.301836603459915
0.327250371956839
0.335658905850829
0.363279751277307
0.355146058604238
0.339269190710562
0.312715463413047
0.315922741735155
0.313381721346514
0.318142948003339
0.316916273964086
0.315515723184185
0.310410904744209
0.33798473993514
0.328110319507713
0.383735166989044
0.36803988761892
0.331583988576699
0.309695998930238
0.317856502030094
0.307414135088923
0.320409347158798
0.300855898766316
0.336096197569088
0.328029595989062
0.323220041938799
0.302667007358801
0.310013852404459
0.330518189050892
0.33602123597231
0.306885217527616
0.305956862278497
0.29751701579052
0.301871703463699
0.295372813538089
0.330561085131277
0.340481395936084
0.31257444921376
0.29187827172917
0.299377280544001
0.288476877757381
0.292409361681666
0.290043564287705
0.307135913719362
0.294757543878274
0.298597802562301
0.293608334957984
0.298191911918657
0.290215257569359
0.302759277064405
0.294361023017577
0.303408884427394
0.296336134286675
0.299483148226374
0.290182537985951
0.299842325026738
0.29486997398807
0.304594552611219
0.300546132193823
0.309590941031417
0.30395726319832
0.306769893728499
0.295648326250425
0.299838238306371
0.299928793124996
0.306205013964683
0.296192069149529
0.29971586475394
0.294742915923287
0.30374519840563
0.291518637986778
0.299307193908219
0.295644223240678
0.29711616729046
0.293373614143171
0.293913719684209
0.288313594697159
0.293881430463618
0.297238521161038
0.359955125530366
0.303998445236145
0.282365340891877
0.274596861722918
0.278443176272406
0.268101131298562
0.275380958211312
0.308837775071421
0.294513600406047
0.261428611859581
0.259268894884343
0.254195887887074
0.277926081594526
0.254430457087067
0.254510175227619
0.245640705988691
0.250759981629504
0.285753738636961
0.332358127618242
0.356154673250887
0.319267333838456
0.254744398326779
0.234289657858332
0.257737210815901
0.262204557865429
0.230671644279977
0.224415188536388
0.222922446896926
0.284167968901405
0.233307488789297
0.221278210700169
0.212087754690695
0.218629146112575
0.247668781054808
0.251024696747587
0.231479852221723
0.250085422917478
0.243937174905479
0.244509755048617
0.273879579069526
0.286128299283118
0.228627253994504
0.206477894607135
0.197961302895373
0.197884571978324
0.214690301559799
0.246360091785565
0.209169352591839
0.211966141331162
0.18368117583772
0.186831650799861
0.191135601125585
0.218290584869887
0.193605014936363
0.217468057796969
0.214774624008427
0.187823853481901
0.198855730730775
0.210973924323021
0.235147207241769
0.24378867800143
0.191152919330663
0.181220931122305
0.224009885156159
0.217940970933403
0.192992785761196
0.192198811059911
0.162268186960025
0.183371278045452
0.18669465045035
0.174601424164207
0.191158022397587
0.197084026753006
0.211010701178574
0.236406770190356
0.247670938404561
0.223945033496747
0.175897131140856
0.165053442653999
0.162419434629459
0.171872596929877
0.163347467504988
0.16801820577257
0.198752797141218
0.174995920855422
0.172786931553942
0.215091562664449
0.178935174598999
0.170864086503301
0.174427171232865
0.175168585417042
0.181139482671825
0.217350671107687
0.229139285110395
0.203128702084504
0.207740033249381
0.217490069335897
0.196033889099594
0.196837191919417
0.192271912484262
0.20059753194644
0.206432288329174
0.223242031848228
0.213586033247483
0.21888995963976
0.219650396383253
0.223659812011768
0.263928289360162
0.260259185709645
0.240871781261262
0.279849044801865
0.282307656781004
0.322781601376947
0.270479814021805
0.264236581906143
0.26252644024285
0.274200988397187
0.280221779001331
0.276811207543216
0.300774346667144
0.320098742434515
0.289863857389721
0.303520053625167
0.294122582542402
0.30849578301918
0.310439614259278
0.353389885488119
0.341443806454841
0.407381372982466
0.364420272374905
0.352058273139042
0.324398960137319
0.325321264926072
0.332391831311439
0.337632417612396
0.324928037889866
0.330737429805782
0.333434201365033
0.360701471967507
0.334234704984304
0.3377476011036
0.337655961802547
0.345372621161479
0.33601384432678
0.354499247329139
0.345526180451915
0.354233225884927
0.349401850569211
0.353952164892899
0.368795717647865
0.437667478261521
0.380310323342051
0.371329975446699
0.372167023190868
0.38306714173422
0.375653588690567
0.387255572151282
0.40337078586423
0.399768330585941
0.38798646873375
0.39385461154919
0.395661852786985
0.402215825986764
0.412206321166905
0.431305714677747
0.402803995184596
0.416579778531393
0.405361716755415
0.460386719651315
0.450843085806387
0.443615059308596
0.431210919877304
0.42896590774645
0.41736314651594
0.421581054709244
0.414377949429214
0.425668896953948
0.428815534497265
0.425770136664659
0.427549003166307
0.425974413627238
0.425521317930192
0.419249378366221
0.430257116490811
0.451233444111386
0.420361166621822
0.42801977974276
0.420970965974167
0.423021955300964
0.416146321000643
0.451606300505762
0.432910296942016
0.420793884193909
0.419997271088432
0.43877992950692
0.444102254931581
0.432966684027052
0.410418122605835
0.422926441917771
0.415499276573181
0.424864621781056
0.41228772978613
0.436866068263216
0.454040311579982
0.434076489819784
0.423358976433147
0.428507678515313
0.425968093708815
0.430338804072969
0.430084032047738
0.43535426830331
0.437817065248044
0.43976283863774
0.441727590124264
0.439045089901698
0.44299695082799
0.458064923425592
0.470206622103313
0.459703146480855
0.435558640951451
0.443559365604199
0.436971867429372
0.436143332522921
0.437770001356509
0.435491139710556
0.425246208855344
0.42949298116882
0.416426983746433
0.424890499593012
0.443615842377111
0.4155646296985
0.423383012723612
0.406467709165668
0.396903085562643
0.399520533934208
0.393844344605516
0.392563736150468
0.395024643163138
0.392916177722734
0.384418072115154
0.385551258080157
0.37697573614872
0.379127471544435
0.377995210296718
0.380147675227306
0.372450086426415
0.377359063100307
0.369692777291709
0.378591477739573
0.373471922726559
0.372420668764815
0.372158434607453
0.374284199061406
0.387333000356973
0.391730850615019
0.392392224336551
0.382586890407065
0.379732515358251
0.375917902698873
0.36576848946552
0.373422292810649
0.363605496001452
0.371344136476285
0.36425508840235
0.372925511671266
0.366490779490521
0.370121509889733
0.36868749363304
0.368103103951982
0.362837017323534
0.372030748713697
0.36644696751412
0.371057244308572
0.360076222786973
0.369826842975146
0.367329527877704
0.38034458023494
0.367533497296151
0.3726228498978
0.368668634796889
0.368338638536113
0.368529790702214
0.373347464174265
0.370833428663491
0.367863299432524
0.363567484603521
0.365861227081125
0.366761477612948
0.374356656006141
0.36357561887519
0.365622172147295
0.36075583794586
0.362659300013526
0.356444587228833
0.358159208382253
0.353150925793683
0.349595855782623
0.3478030483689
0.343289415560274
0.33859949412292
0.340724816200777
0.338187453373934
0.33531321463354
0.326765902280632
0.327992465419628
0.321212801754137
0.322893106613887
0.318572189571064
0.322256435368094
0.313589450762597
0.320623575545282
0.30999115059371
0.311983870927488
0.311414221195201
0.30799310445784
0.308486000862171
0.307828038923007
0.308455072584487
0.308530709045302
0.306436411884896
0.311814138271043
0.307749101836679
0.311404578902795
0.312118223807124
0.314054541715585
0.312911202224214
0.317625298874426
0.31370506017428
0.315377891702062
0.320042608188329
0.318846941030693
0.322577059670291
0.323980104750908
0.321457590495968
0.32477008529635
0.323141487247726
0.327063342009059
0.328826653184837
0.33224230233449
0.328499132703897
0.333070653551456
0.330848450333588
0.331253668604001
0.328527532434614
0.331904204430888
0.330279874232333
0.328402162583025
0.329635464164704
0.328134965915832
0.326700888559543
0.324006061877983
0.322600740436359
0.32478522208218
0.324110839955526
0.323748359931373
0.321600550997282
0.320485512701138
0.317699434314548
0.318884211885614
0.315722882828267
0.318447543469235
0.311602605238501
0.315540179569832
0.311731493948749
0.310407494628513
0.309313444174024
0.305351491064477
0.304522797559462
0.306922425224949
0.30820919173696
0.307903085998365
0.303136872536596
0.303886131094773
0.300671483791034
0.302987310776667
0.299670002964831
0.299513720195758
0.300444574118756
0.298584526968561
0.295200350786644
0.29649152225421
0.295013271055715
0.292695287193644
0.290747429896626
0.289988856098686
0.287499818693882
0.285492050431927
0.283642812230099
0.284458415696054
0.279152657789808
0.278728340293674
0.27699527048689
0.276658567756298
0.269839740299364
0.270200019949239
0.267932265201023
0.266075091195169
0.264995400692988
0.265718734523632
0.265156548686282
0.263373928498158
0.262691488574957
0.264826886944962
0.259158858429484
0.262327269589132
0.258956651942281
0.257617138200346
0.256931729193877
0.257755734834684
0.251783071942345
0.253241858224415
0.246549374364078
0.246201233540189
0.240878992651791
0.239406218959764
0.235497445191345
0.236629650155422
0.233638568129612
0.236235864244253
0.231793283650032
0.23464540624695
0.235736359070083
0.240080572874052
0.241704341379051
0.251211598136245
0.255074800103284
0.263031769220967
0.271736820212689
0.28215462275799
0.292124271979949
0.305028753786467
0.315599716910017
0.330034263183134
0.344298669945805
0.356457677531418
0.367117545803959
0.38008627830867
0.392925954647132
0.407301220018401
0.415111344372347
0.431331928023842
0.439782435901745
0.451603287232306
0.466493546006318
0.47626913656522
0.481071206190425
0.494840548217186
0.502454838773408
0.511468369220067
0.518424955210285
0.526531567567547
0.532057276896212
0.542868554905863
0.543020861827505
0.553626799850796
0.553256336350804
0.556800998294525
0.562218649470453
0.562959870110207
0.566076750693567
0.566950405359606
0.567253571565506
0.565583886520568
0.571016225260991
0.571671429235139
0.572168184991251
0.574784020936067
0.573485556662603
0.574513529359194
0.575977362087308
0.577159554491145
0.582985977896045
0.590064783540914
0.592410592302672
0.599998504406516
0.601155252092283
0.606692640968005
0.61708016213058
0.623897828013948
0.620584360581645
0.629443048182287
0.638116324820076
0.648407254168437
0.651200476436621
0.661740464966109
0.675012786043989
0.685439714121562
0.696378433972339
0.70967909727699
0.711125306244116
0.720972464631943
0.728208219039424
0.733252784318697
0.735077190468413
0.742763419025282
0.74423561579946
0.745389879658632
0.740750474682943
0.746471737488484
0.735284155937812
0.739058911760996
0.733370420205153
0.73315399768322
0.726675780548009
0.729591468861035
0.733525638214468
0.724488612098251
0.736815069523017
0.748595443200051
0.750817199948862
0.770198313271637
0.785284961354773
0.792809523301079
0.800919456827774
0.818441785307895
0.829522099248398
0.84481747018752
0.853452786044279
0.867996612394772
0.885002641889426
0.895670144723354
0.90608950007041
0.923457786183799
0.931559075625201
0.952413172245962
0.972022336932224
0.980332493267811
0.991975512514362
1.0070661974726
1.03132676109829
1.0566637946018
1.08093050420448
1.08254724361686
1.10536622480716
1.12474943950488
1.12576259657227
1.13585742656427
1.18659373310823
1.18839833209706
1.20671437394604
1.21451555151297
1.22578762773132
1.24279435155843
1.23800010819652
1.28535625128694
1.26748306929548
1.25781061381422
1.25519674007796
1.25514368420538
1.27232064908902
1.26396622383493
1.2498993620471
1.2424873800212
1.23368057995611
1.25385485640011
1.24163753066105
1.22936309007208
1.23928649792526
1.22172390631498
1.26320651663173
1.24979865918345
1.26345481537078
1.27903229263109
1.27254915642321
1.29524047774349
1.34363090731346
1.33310132106894
1.35348509429456
1.32164607877292
1.36866163108592
1.36108703560503
1.34995441214131
1.38199594653941
1.43681623307887
1.44169663727637
1.43303259795292
1.3823917788624
1.43170655455353
1.47505182060293
1.39890369785412
1.44608744646848
1.45677451112521
1.43024767974769
1.47154159692109
1.49196784854008
1.46595220945697
1.48627024936919
1.47294022011096
1.52414565601819
1.53435416551346
1.47038205566429
1.48464398051667
1.47112754250765
1.45679857039737
1.44171011932068
1.46638199993763
1.43183922627226
1.43499866414006
1.41575268654464
1.41995044458874
1.43778292622386
1.40411801921111
1.38298982451574
1.33317133638786
1.30510996226915
1.27317589355586
1.22862504328539
1.19513021499496
1.12164477318543
1.09630808598751
1.05023832322964
0.997781554573559
0.961154481179074
0.926515249808239
0.895841175606906
0.871469175748168
0.845501067254695
0.828587082693393
0.840693942936053
0.811774643503225
0.802817215410793
0.796158060925065
0.789135486640831
0.777755264690203
0.776005881487663
0.770599279848731
0.755943616576951
0.74972805364663
0.745045362447943
0.733138611709041
0.717025728579714
0.7045255793872
0.68524387214259
0.674568551460791
0.656692966531477
0.630957987634802
0.616577390539999
0.592303683433298
0.57129998246714
0.550686313083121
0.528242480820832
0.508631727428597
0.488337194841535
0.462771204993154
0.437769225661819
0.417187359301647
0.39555492311241
0.372787384784621
0.359048505762436
0.345480471020237
0.325840899648899
0.314851236450611
0.300047884081143
0.286273531563704
0.279266427119808
0.272092162311697
0.259689134697202
0.252604834290568
0.248370536469903
0.241730239498765
0.236285707817361
0.235720848094623
0.229386742215996
0.227977991724433
0.228399768150266
0.229246853860213
0.227841450932694
0.231372137773204
0.228898933102509
0.23138739256833
0.230722719479507
0.229761241015776
0.233221448979692
0.233380228374054
0.230952758922416
0.235877428650598
0.237391864458202
0.234931327652564
0.235016221932116
0.233211867237373
0.229316301519095
0.230741248091532
0.228421585751986
0.229960602247737
0.226828152048291
0.224499826096959
0.223006522052203
0.220395601836058
0.218416015977085
0.218985949487167
0.218284066774235
0.221288806190227
0.221248403653523
0.220967732687342
0.22671088318729
0.228549477694257
0.226276731890635
0.23343444332391
0.231235268893962
0.231479300631934
0.235034232578156
0.242944877591816
0.240229611192262
0.244391469443578
0.245643800123819
0.242006399748955
0.244142986990908
0.251040702712883
0.251213459461979
0.253025469286913
0.253864957065111
0.2530065216712
0.24906946958283
0.249882117168553
0.251733588554621
0.255268435276446
0.254690256960701
0.256326435651325
0.259314671382443
0.264876319461146
0.269039055387148
0.275208502610689
0.27850745853539
0.283239474871621
0.290588636169722
0.30348073317764
0.308891375044717
0.319528863729515
0.326095608680731
0.33234472986441
0.341707003412969
0.352436252038992
0.353925445482593
0.359716031420247
0.355932041816801
0.353447747803511
0.347391975235282
0.350871279908232
0.339755548349181
0.333430120224359
0.325227642982894
0.317525019343275
0.314146138189366
0.311347034038451
0.303839568867295
0.306494286116322
0.305579866790616
0.306123742795787
0.30287535091426
0.30859633219385
0.304765417270753
0.311640312091855
0.307634849536604
0.309759311382903
0.304308282579498
0.304093424416493
0.298612890909638
0.296158562735214
0.291332360819842
0.288243108976488
0.278354739979804
0.27664781556833
0.278333119032374
0.271898884828751
0.27561082986963
0.277191188899627
0.27199191912151
0.265356864702487
0.265574459813613
0.26664467393745
0.255118225135354
0.264581040612886
0.256434464852839
0.259841017993827
0.25400512895371
0.258012113162257
0.255609801702605
0.252501776751692
0.24522907086707
0.239489689619127
0.245097919566031
0.249524333775179
0.240167820984901
0.241484714895014
0.23372580631988
0.240118773935297
0.234638535023166
0.235607809336789
0.235253703978219
0.229211087258479
0.228219679574666
0.226091233320156
0.218634180173969
0.226819808056491
0.220153467790851
0.219807759910934
0.224472058337848
0.218167872078654
0.218165525463327
0.218347346566753
0.212673861596382
0.219947938226393
0.215465573432214
0.218509883130189
0.216789497027591
0.223402167495828
0.217382008543204
0.224477695253096
0.224440040136021
0.225186480789368
0.214516607290689
0.229489650425578
0.222116297641046
0.217509199398469
0.212352336960113
0.231124076898738
0.231145239344065
0.236870248119918
0.228606434788279
0.234974172697956
0.240910890870278
0.241469162186926
0.233047601379994
0.238184311776133
0.241715719222301
0.246581736641102
0.248081244131346
0.250499549081603
0.256170976037781
0.26884438515478
0.260935459853795
0.270844479732092
0.26691357095641
0.286155219150186
0.28706595830551
0.303547540372396
0.309040418159977
0.324164364101859
0.318665694496915
0.338630408273131
0.341935150755858
0.363035721256704
0.372170553156585
0.374813021987405
0.379124701584252
0.399432239517794
0.410804005498498
0.426923661455414
0.419126206809114
0.428887241746152
0.426212469457241
0.433158868597855
0.443787356335271
0.441255728267258
0.414251039869138
0.408130040017898
0.411049354054867
0.41334244784177
0.418752727178026
0.411235618964118
0.402714695141108
0.425705767933314
0.409218833289858
0.407895452922384
0.389096195676686
0.410499143287816
0.391832202157379
0.397863922806504
0.398165861268904
0.39348732363191
0.378696367611028
0.385240353397171
0.378793676477654
0.379420004804553
0.366963199969228
0.379218945200219
0.350299172469222
0.374064646135473
0.366720219837765
0.354229740780469
0.354562917800092
0.353611161140069
0.344815873044293
0.359901179183848
0.334567064238563
0.347053518178041
0.355750442811309
0.337396211792381
0.346422175580243
0.355952128129388
0.342110121709873
0.376603151385388
0.363842454903556
0.351474530909903
0.352347271975934
0.360440792197106
0.348813913522073
0.37645158421447
0.34727731397316
0.35682748524122
0.374335829007988
0.354734095676774
0.340566742905429
0.341587534257098
0.384881853424476
0.385850333910137
0.372394621924753
0.390391816618
0.351855729075735
0.386747951838619
0.404094753526077
0.394029303030427
0.386433139373926
0.410004414531429
0.408253562240619
0.406104407167697
0.38093027656956
0.434711615448741
0.41718783000054
0.41687029535291
0.429393880290328
0.418011251309016
0.402641731065898
0.441482189660953
0.447339781069115
0.431912084401109
0.401550327814722
0.458769791493217
0.462706487475468
0.436965430213052
0.459727838292468
0.520584927951031
0.475831681986631
0.507220795155992
0.545973540424238
0.545947225722776
0.50937373051316
0.565011005024983
0.547346861718795
0.516845236020402
0.531035135529869
0.525471228761757
0.492542711749683
0.61509236799314
0.514796442408749
0.473361048498219
0.441756941458637
0.412713405712227
0.468869603590357
0.47254354736396
0.474621394487408
0.470245736668071
0.451731502984671
0.561868544695658
0.50326386183195
0.488642776853904
0.509901810647039
0.49658409868477
0.489986090148748
0.538192956418514
0.395331513565764
0.416752656080588
0.45467259757579
0.431405592369926
0.529094491802189
0.611350264506213
0.504246354479335
0.46255462614051
0.498782029552503
0.542835320519883
0.557851014864674
0.441191265546656
0.461986459174287
0.459903114310575
0.397184323833636
0.535992380837127
0.537433554804529
0.541950035855443
0.474123164570882
0.498559991767475
0.557156608993258
0.664303049823108
0.574860769936616
0.482553849075175
0.50202738308297
0.570040636205322
0.391078506205379
0.359454087523434
0.532468764236558
0.580335219469302
0.422289726405767
0.81102328792481
0.527378806258499
0.418219699987672
0.537551241679588
