3596
4000.36533379555
650.420452594757
1
2
2
0.065503819126357
0.0882739213214832
0.0714337932029285
0.0842502501924988
0.0694352893393283
0.0847366769572497
0.0663433242382765
0.0835980987915504
0.0651975971208571
0.09665568812069
0.0717236840177784
0.0857049205418275
0.0642472978016497
0.0903918424752333
0.0725582769734432
0.0866505305081942
0.0662859707153634
0.0810406821896215
0.068264484639734
0.0834915316130997
0.0712931406184875
0.0814508634059674
0.0679384301510068
0.0767483655111174
0.0739488763400168
0.0911477223225991
0.0661076611690799
0.0927641014692163
0.0639808990095198
0.0860527827700767
0.0632952774698215
0.0842873169690039
0.0670866632416933
0.0882102939568408
0.0715158115224757
0.0856986812976451
0.0687481517180192
0.087787585944812
0.0643784163044035
0.088844519687121
0.0757424833947015
0.0808639859119955
0.0711256751269912
0.0850726224824177
0.071750708692619
0.0885546787555938
0.0639449789447871
0.0889797905484192
0.0708282495738308
0.0857150947624739
0.0666227626486268
0.0820434452302496
0.090251877619645
0.0922272396393212
0.0696195362185264
0.0983283677404041
0.0748298577927645
0.082544896524387
0.0729724297384303
0.0793925734063726
0.0994712551552144
0.0967379106873479
0.0654798140247471
0.0864269321900914
0.0626542589614898
0.0862758663417288
0.0675479917169983
0.0866975167783854
0.0557137982152623
0.0869908782608127
0.0644915738249273
0.104714382702482
0.0836731585439989
0.0838876633726549
0.0799426206362254
0.0847296060770817
0.0700195546506096
0.0783040363099032
0.0621715785300662
0.104994526796857
0.0717772745309469
0.0844432918724354
0.0696283619827975
0.0712149010430128
0.077889402283416
0.103071616602698
0.065701476724415
0.0938614021791052
0.0870706669638148
0.0981133855895057
0.0656143446970459
0.084677810672149
0.0643355484476664
0.0782626029401188
0.0636611506914628
0.0802648275549511
0.0619263924222975
0.0881470015109139
0.0622404279666025
0.0975482265688113
0.0831601384336386
0.0892506403559357
0.113451682164339
0.0764956683666804
0.134636241950331
0.0995205421822416
0.0650292317436379
0.131305350002222
0.0754187838220147
0.090658122651961
0.0606149839881762
0.0793943604858615
0.0552100915224499
0.0897131960899777
0.0545899528386238
0.114704667761272
0.104837485915159
0.0895114575226731
0.0616991674021361
0.090025485670707
0.0451236679728803
0.126164363306639
0.109190052954751
0.0852766418880518
0.082953152391124
0.0850995767786813
0.0662318355698129
0.123940874999327
0.10045945971879
0.068953133704666
0.0668681537349176
0.0775246266062631
0.0630522103410532
0.0725303415701483
0.108639519641488
0.089900814369269
0.0713677429669263
0.0870270154432917
0.0949675428620089
0.139998106350541
0.0787735317665662
0.0808040383783146
0.0591066914261929
0.091096052616947
0.102310883786856
0.0913190571093491
0.0595262317366319
0.100643829169645
0.0835595920200165
0.0696878360329747
0.0761030858656534
0.0679015732602047
0.0927339116143269
0.0975886901852556
0.0387069990050586
0.140841252885753
0.137637386938382
0.0963429294312435
0.140143133385813
0.0745847499353937
0.0797136634041649
0.075014196736213
0.0774014737530809
0.0682106862329831
0.0733961830417598
0.0717617294616412
0.0799102732429275
0.106588690923449
0.0589621001332351
0.0885410257449053
0.0986578606129699
0.104536309355918
0.0546199793015211
0.160315781578309
0.0840551258528039
0.0744564433106367
0.101697010433231
0.0938734978415903
0.0583161980701871
0.0829852315039894
0.0951412317391358
0.0661079653838272
0.0671851810884113
0.073371837605912
0.0740127166091237
0.0907409270380614
0.071349461152379
0.0750742798099397
0.0781738988801537
0.0686345513150419
0.0883970210400291
0.139483559216882
0.105819956623053
0.0833566305820406
0.0836625865301982
0.048149107444851
0.102063050929344
0.119405738082824
0.0686715885362742
0.075110236763717
0.0632711080507529
0.0679696489444341
0.0652500687614481
0.0754696342116603
0.0707506590553774
0.0566816745926923
0.113356118831202
0.0857801978373871
0.0666021651088602
0.0713786774237209
0.0751830946364128
0.0720219013324617
0.120643123042018
0.114784784544418
0.0614052254954462
0.0856881228129418
0.0601815827218253
0.101628708663458
0.0875364701974483
0.0739156364451722
0.06075874826022
0.0758751133270507
0.064370673966118
0.0784672820721769
0.0633493938258738
0.076609727134337
0.061820606052677
0.0787539348583905
0.0648092227238926
0.0806511573666052
0.0783454455636126
0.082721300970112
0.0643575689266313
0.0746437994253561
0.0568901875431002
0.0841423109072153
0.0963630739935571
0.0738717290932378
0.0727169597589662
0.0641265226442602
0.069824969412118
0.0702029081989185
0.0636066954567591
0.0662581808662929
0.0689649856510349
0.0593785884374389
0.117276079314003
0.0841049344871782
0.0747657554393344
0.0669454099143797
0.0826337932067711
0.0953568835900452
0.0645111525535007
0.0772245004515573
0.0647105576348681
0.0705243048273767
0.0566318150620152
0.117437610481574
0.0790136133403433
0.0730711655527419
0.0864762699887302
0.0915423229415781
0.0597501459525514
0.0826668111546338
0.0550331720060404
0.164731395497943
0.0896194478336658
0.0802264707522024
0.139836856982447
0.0958388979135826
0.0808979600215636
0.088325673983711
0.0445322910231839
0.223001871541841
0.121094348109625
0.0839781036505346
0.0731097409916184
0.101699772778494
0.0651316156825923
0.0909590335966496
0.0791574625250301
0.0927175528847141
0.109160340051346
0.114096374718791
0.148232066297017
0.0707167237006089
0.102607633529634
0.116548497730924
0.0687708197478915
0.0804103627850775
0.0713139423350286
0.0796717448700821
0.082937998355415
0.105129288890969
0.0794695806979394
0.0931055374371193
0.0647501058968629
0.123341493997359
0.0697353926473848
0.085986815371184
0.0754675941772451
0.10238022927098
0.0608958112835347
0.0779861810166309
0.0677801472970614
0.0896572715955458
0.0707841295506371
0.0875254198910287
0.12557062936002
0.106910592775
0.0695248640810989
0.121967570605198
0.0725759127719323
0.0853836397937668
0.0640790277280892
0.0723304791970333
0.0618881319263148
0.0769288670962678
0.0569731986471429
0.114271345320909
0.0775861641104201
0.0787884072896097
0.0656599489999477
0.0758520153000034
0.0697518765590203
0.0775825274784557
0.0731773497851096
0.076986203469729
0.0723029279157477
0.0762040779411225
0.0869504799914454
0.125982617997218
0.0607250756865309
0.128921331196803
0.116033805795473
0.0811185156647581
0.0854965373516818
0.0830533721194452
0.0794183900204382
0.0803273447431818
0.0780411152981131
0.081484818742406
0.0797442181993623
0.110647154698515
0.0918502453469963
0.0899350501383542
0.093248951768994
0.151444543301479
0.148344756103322
0.107853197485802
0.0917767966253778
0.080953203499926
0.114272450782787
0.136173078762269
0.0956102286201086
0.137414142282311
0.0747517380830676
0.102636998951368
0.0729958843257149
0.0971720302282136
0.0806849509593431
0.104269833625846
0.0758141592006628
0.101245616295429
0.0868269652232606
0.1027872294113
0.0903662226396976
0.102458687628723
0.127991785310541
0.117469226170206
0.0890960810526743
0.10726159885295
0.0870521665145246
0.143916056067666
0.137766960101401
0.156348006787224
0.150475003610397
0.135686405076171
0.160049136363762
0.117708031413623
0.117077617532694
0.106997470064649
0.107184247596534
0.124004518649397
0.116455487817301
0.119268451470358
0.117714926472004
0.123984440263629
0.126908029193355
0.11564781695019
0.117745733201474
0.122201236084869
0.142525903930222
0.128137678821288
0.123449154865555
0.134811523573202
0.145791796857712
0.212827032486185
0.173905452676876
0.158498397387389
0.13908361588382
0.151885341821486
0.126827945473697
0.151497513775775
0.127332660710842
0.154266450934193
0.137869860638703
0.197641821402749
0.162034653631879
0.18545759910182
0.169110340007331
0.153539947122711
0.174207257570511
0.183366894878486
0.179811795939055
0.212186626101278
0.156623792578244
0.170401387373764
0.18424334171235
0.201089749622952
0.166202226705323
0.214488133987647
0.160741891500059
0.182405329719345
0.170853200764126
0.196373127351579
0.171958846848344
0.193717341294082
0.192393463410957
0.201730158941074
0.195217194095686
0.200021745535674
0.192453878754427
0.224077863634079
0.203474449989979
0.215408428260362
0.210459179142944
0.202305575433439
0.199927541130344
0.204525945297004
0.218985830512256
0.24735601291637
0.230436782977922
0.259431843888275
0.20530027275045
0.231270320605056
0.205265572493936
0.239296182991392
0.218016823250064
0.228959968236444
0.228146187151896
0.238196001884284
0.22328431586696
0.251230914762479
0.234497651023758
0.250614766032767
0.235971102939792
0.246881113470417
0.237762621038793
0.259704307748721
0.259392295415439
0.264534061532612
0.270748550939142
0.330149304315824
0.301086866871632
0.32053892311329
0.25692779308599
0.292521898489831
0.269134316452956
0.289746042980875
0.270966177566703
0.29293127166107
0.274443688778691
0.309792950501937
0.289380104590722
0.299806588203822
0.287942916645307
0.304299486304764
0.304232034110863
0.327411203831764
0.305487924197616
0.318017552791298
0.313578350187667
0.332283036568189
0.325470111167964
0.355938543625481
0.327705226772264
0.353370905642112
0.335115630150913
0.350099950388921
0.340515901741158
0.350029243265031
0.332095923006169
0.358137857608256
0.35189847617593
0.376311889846976
0.359946033956754
0.391806856984098
0.36324929068587
0.368261466827569
0.351573696444479
0.378077895095062
0.359341595135772
0.38595228165313
0.391622277163006
0.418907894920816
0.401510633643304
0.407533512885493
0.387927073982897
0.399371958012609
0.408799346472875
0.42506326758961
0.398952462094482
0.421089978578675
0.40983190968571
0.430404969311116
0.403075345964465
0.433232606762224
0.42822818916187
0.448370422148048
0.421712356722278
0.44324558425503
0.442617982976565
0.450933209086875
0.439992330740085
0.466914535457992
0.456278625441665
0.474526007265972
0.440112523985676
0.468569792814242
0.459974289688988
0.468306057003519
0.483580455879254
0.501292347390793
0.484554893005411
0.518016687577563
0.492646054690566
0.509270550692957
0.494423165440453
0.515017489576996
0.499813647157275
0.513900471966186
0.494457291705794
0.523169641116495
0.510543550919339
0.519969057088948
0.515825194376568
0.533558373477888
0.543868811310972
0.550143796844907
0.529087145606639
0.551496959060088
0.542998225877504
0.58455036260087
0.544075589973403
0.572334987751549
0.530673599193159
0.555473875281575
0.544978044927656
0.562373783501861
0.566719369026662
0.595766248804908
0.556794103854554
0.604723414818346
0.585172125762883
0.602184904445012
0.582841218334162
0.588283233008569
0.556268706494363
0.600911720759974
0.619962130704015
0.623853591483959
0.617875195469865
0.633746831246913
0.607954076861218
0.637258862268694
0.628154256445882
0.630076912229355
0.62520718332476
0.658045237660091
0.65098243925961
0.660455057320322
0.626834612249663
0.679913272962388
0.671957874715292
0.650450932288264
0.648667544755642
0.680187590404597
0.636929783229623
0.685111808795563
0.700540069364271
0.715248097846625
0.658672239922229
0.68742851851323
0.668833392190741
0.683431068080246
0.680217374024311
0.676879452338634
0.676043739484574
0.725148376823608
0.704913641834457
0.714564088456366
0.689786449497147
0.715723149219176
0.717478723663456
0.700875362594145
0.690337527423861
0.758843424891917
0.736845837786812
0.711904164796647
0.71627334230602
0.739066576185861
0.751638185614856
0.744321795104778
0.709797673211858
0.765436678157801
0.74346163601874
0.780307255409588
0.777940902116275
0.751005112868377
0.784830338905756
0.779290890718441
0.75302037502476
0.793927503478489
0.775407844275683
0.796605582381209
0.771828955995984
0.775169079680196
0.786772326769083
0.767337461019826
0.765541465845032
0.797155416009005
0.7539591967175
0.81014041890179
0.813809068824625
0.826421584303555
0.802124401599679
0.80410700638816
0.795198165068993
0.803243334028426
0.773412606593719
0.791747445969239
0.799474492929401
0.816220945782442
0.822727559838675
0.850801080408376
0.860789444342707
0.849592458897415
0.849210447315506
0.850103049767969
0.809390613656067
0.845061226737264
0.82095564637975
0.867906841970725
0.875403531321343
0.852308514877712
0.834077214029411
0.870821006291585
0.846683925797365
0.882889607722456
0.860500115864552
0.870032415038355
0.8545755549654
0.850282657693809
0.826227380990591
0.845866851746669
0.870759074568022
0.893668385351445
0.872542704561586
0.871728915589931
0.873671249580027
0.858496077099134
0.865044558065024
0.880661821292013
0.866233104798867
0.888281909908987
0.847276234842913
0.86532478970982
0.86456747713691
0.892227279951059
0.926042782551949
0.918128169151969
0.875342451779233
0.902316548606103
0.904703284090065
0.89846003495736
0.914860997624591
0.912489806139999
0.903773473881107
0.936947014224366
0.910330932678686
0.914341579663005
0.910359318807643
0.915016764634612
0.883305946456115
0.908636769740658
0.888400309807363
0.92511811769315
0.980456563040119
0.910098757687967
0.884779526271145
0.931999475897894
0.872767332281354
0.896769783396543
0.92684823123799
0.918220393632803
0.917821442853955
0.921700593761539
0.919703836265722
0.927951355955408
0.900355559066905
0.916869411272549
0.913730669781034
0.916523202243733
0.923402025579103
0.933639808278967
0.917380775344336
0.925583205370801
0.937802701168086
0.937313239049604
0.901627272977777
0.933983243832783
0.964711587104474
0.931073590898633
0.913402041889871
0.916514389946791
0.908068526388449
0.934087933545561
0.93792858521779
0.950076505423154
0.929911637626918
0.910920866079314
0.92558597874485
0.914381887031116
0.925679721628932
0.944004060202996
0.937731865576279
0.939174793768159
0.962792652703668
0.932999304940539
0.904402756364
0.910257120486098
0.89476487556333
0.929833484656182
0.933316642672077
0.921959335076091
0.939863023379628
0.931478042906996
0.917282615519474
0.94588801740803
0.920699422258925
0.924925882118182
0.937913706107825
0.915145236958979
0.905660165904827
0.931351965639286
0.922545593276802
0.896067930242876
0.89739416128353
0.927122150462721
0.927960382470505
0.905181723198959
0.89149228645464
0.915878963545345
0.911209385825385
0.914211294581511
0.924776676738337
0.911374670924611
0.905618928065843
0.906908619573817
0.898305029315549
0.91003628005768
0.914520119982077
0.913366723680909
0.917502961179914
0.91909358277691
0.903778995735496
0.895664071253133
0.906483195345761
0.903167569503159
0.903572339891511
0.91164358529369
0.915011875000714
0.88464546901581
0.890700306516943
0.911200595797247
0.904381629660904
0.910980369695547
0.884959915680593
0.88237534625069
0.909192909890238
0.886090121687549
0.867672503407822
0.877140714060594
0.87527555847448
0.877161137468911
0.880671825207993
0.887674982340047
0.888131880149747
0.873118326322711
0.902066433484628
0.890350849409634
0.870779947433418
0.884555933677626
0.877688845049856
0.889244420417396
0.860128985542787
0.865872377774685
0.877006172732262
0.873673515665523
0.856098315708862
0.852602247939639
0.840526236894
0.840963664079121
0.857737771397115
0.848368189737387
0.829920345343012
0.835461843825729
0.843006713676568
0.844818801779224
0.850137268803011
0.827497631562324
0.840552794592533
0.85334750757986
0.854576072703473
0.843163459953151
0.841724477738689
0.819924648181923
0.829053456684594
0.833216683415196
0.826592433173848
0.843597020137242
0.84465771972134
0.830553094985214
0.822157635789124
0.838013522150163
0.823239510199628
0.817879777645028
0.804461413830239
0.810061567669359
0.818714191099609
0.803310948674782
0.788260079455875
0.784609302800108
0.805359402174775
0.792256365164867
0.783883691644179
0.784412341622692
0.775638860579014
0.773495218324324
0.798798644347246
0.786928172082171
0.761340982431216
0.762879196256432
0.781180987796106
0.757909534346954
0.773402481992939
0.778437095600422
0.761256762975759
0.759132343718515
0.756038527482437
0.755319804771529
0.766016714455963
0.758476260350095
0.760535061719918
0.758532450072818
0.741334979960773
0.731352466681086
0.734409467230633
0.722710670796501
0.746478067951929
0.728266235222264
0.714634198793304
0.731189225536747
0.722860867798453
0.732795496554506
0.731277197338688
0.709388762750469
0.716519829386293
0.704130286872703
0.693916227932153
0.704154858972179
0.69717097556053
0.688455791485131
0.69822767781359
0.684937098339284
0.684997682842609
0.682265093914473
0.690547090115344
0.685389469227832
0.672470106181309
0.670497629550793
0.659517238586973
0.670482391029684
0.68277637822781
0.660802669721465
0.655006700873535
0.65305810738146
0.66419105618825
0.652379692306981
0.654723418935438
0.653659528744443
0.644149704305504
0.633366183885727
0.627832799463035
0.633519841684731
0.648237622955047
0.632800957594498
0.62598266283265
0.626497301511057
0.630551314760788
0.619568130717387
0.617051991424932
0.615829113210864
0.609308623567308
0.61818573290767
0.613248477204666
0.590540280463865
0.589936427314798
0.605163679533854
0.599684212275124
0.591777175723771
0.577994204202874
0.582532004577473
0.588830600197126
0.584324507255237
0.584177604843988
0.576621270789816
0.566000779715142
0.567810659960308
0.575555421981592
0.567699282531266
0.563839097875899
0.558662824065583
0.557687242664266
0.55081719280158
0.54420820652325
0.540745193608311
0.54189818720938
0.533808742472929
0.537803375411528
0.547025579908386
0.537326854895789
0.533335338558262
0.533515421312457
0.527223854274773
0.525809743200053
0.52300645289254
0.516270480287513
0.514180035191647
0.516395675271121
0.512486904003759
0.507693400115769
0.513966011446557
0.514542879839387
0.497436725007922
0.491405570002215
0.498307824245303
0.500732149333482
0.488257746425525
0.49441957169072
0.494477393190929
0.494986845485421
0.49356648669185
0.484711126165951
0.4860250548197
0.47361571337413
0.472785985014806
0.477708418480877
0.469446550112554
0.464200911838568
0.471198338562449
0.470322255615169
0.458347845699209
0.459952531560506
0.458965165886614
0.452630732750471
0.456073648924392
0.454845689390027
0.446858081057623
0.444095674452595
0.447568719873531
0.446867099898427
0.441615559501894
0.437812841451579
0.434460447886004
0.429648309222033
0.433180017049873
0.434025115559518
0.42403209814285
0.425690599051371
0.426834684345615
0.418166714985004
0.414458208455381
0.414516181037258
0.408293791350424
0.413688988606268
0.40573486791118
0.408427384031144
0.402724977746656
0.402316938978511
0.402774052323944
0.40524543945224
0.395741663498121
0.389930481050621
0.391657789427669
0.394228269787188
0.385515234340926
0.386211615472226
0.38470190009644
0.38719914891139
0.382024211300154
0.384314451858855
0.376202910629807
0.375771099922086
0.379422792762785
0.37448315240428
0.368194083077088
0.367774176804416
0.367557266962105
0.369549636852113
0.358123068027746
0.362372156900364
0.35662099902601
0.359927314435122
0.361961075548629
0.362289726861452
0.350069544087177
0.348835175763289
0.350374611867852
0.349634163872526
0.346438654586444
0.341283986006993
0.340839069263187
0.344074900367858
0.339695150550179
0.333848985802011
0.336368696856545
0.337692081901688
0.332076427332839
0.327657740231785
0.333897223937718
0.324332714302358
0.320829963790513
0.322037459149858
0.322096386913672
0.32116858659355
0.320134434573134
0.311793012933051
0.312688267205024
0.309162249896179
0.312671509832853
0.318351385220565
0.307097075771603
0.304034934777917
0.311838778092419
0.296821720576635
0.300418516836592
0.298785995888084
0.300414660915916
0.303532354626835
0.306746960169571
0.299057213668029
0.29844928799541
0.298305460099157
0.292306210929872
0.295952168546273
0.288843494654861
0.292731198230551
0.296360928528812
0.289245258430949
0.292668793056807
0.286543623759455
0.287618287410371
0.285632842135893
0.286980619445478
0.287854545670595
0.287731508451195
0.2891401845512
0.285920637037176
0.292596299823679
0.287315593401686
0.286095771803165
0.287941567665668
0.290480579433417
0.291003777866803
0.293743091803314
0.292562726417993
0.290818644057166
0.287353321856998
0.29354030280631
0.29672058515316
0.295202969700565
0.301053443986459
0.297709266359108
0.300884098637747
0.299881404402885
0.298290178569964
0.299757811450246
0.300827567980687
0.30782978110746
0.30433016179992
0.307989684448503
0.30430811075951
0.308695871748995
0.30687250585013
0.300279853632268
0.305442403322557
0.313786213664777
0.314926732831649
0.310964435020031
0.320015977165847
0.32351958051756
0.317658136057793
0.318597298736476
0.327769105147196
0.325266204586062
0.322659755912072
0.325048691468638
0.326839185261174
0.336048084054891
0.335137608150518
0.334807983342137
0.339111315359788
0.340791984909193
0.340679622573236
0.345134269760896
0.350303594354529
0.349397131137552
0.346388918197812
0.34969836925099
0.35154670551938
0.357316762390988
0.36593167073178
0.368281495471683
0.370806595013919
0.375682022170017
0.372095132289231
0.382084599909685
0.376969779975167
0.382350402631796
0.379191540708752
0.386036758498125
0.378109650763307
0.388993705282407
0.388117180526577
0.382544088174258
0.381808256106362
0.391639844698052
0.390856755392601
0.39917384523708
0.391740508474151
0.392928043512585
0.385361246504468
0.393387009817524
0.392533371188111
0.388062376823688
0.393771470287974
0.387296935074987
0.384188772297273
0.386349937611753
0.386880186435602
0.391540629642673
0.387017823211145
0.396374949811897
0.389806036927877
0.392015842175233
0.396174649112297
0.396084690515431
0.386511124143174
0.388549070025492
0.39155649674148
0.391363251245052
0.389834087336065
0.389919014643355
0.394359174120025
0.384520366281341
0.39250777169828
0.393625464848245
0.389939038642412
0.385674341396038
0.392493079137544
0.396962253864455
0.393494340118284
0.397844040787487
0.399111800110246
0.397464056269884
0.397597917153929
0.395344864897149
0.395200174205278
0.401235486971868
0.40034465173645
0.393992920763465
0.401714019673598
0.392214479914243
0.40142156187661
0.398918295774541
0.395689862601353
0.394123689778017
0.400063395212472
0.390940145498364
0.385705010711119
0.385297187184884
0.390882466069404
0.391100343167548
0.389264901020163
0.389742265142926
0.38142245063336
0.382575416277778
0.378689438479891
0.383182439045679
0.378407055600769
0.373555491237136
0.373606839172691
0.371534382072109
0.371283270286191
0.369820762057189
0.36565748759951
0.364230016098674
0.360577506955394
0.356265412610967
0.356662585256495
0.351131930449282
0.346096092614729
0.344695763221571
0.343441867050848
0.334174138049853
0.334604199632912
0.339687886007585
0.333111136913187
0.328387730361885
0.324735093786067
0.316660676435646
0.316367965683744
0.311670582343728
0.313432338269914
0.307235256296452
0.306558801947336
0.314123513439934
0.306273948944123
0.305601907071029
0.29920752566749
0.297094958867682
0.302245649329796
0.299957388635683
0.293427184622253
0.29119714390255
0.295214409782502
0.292824705035645
0.293175031719351
0.287818107041114
0.280235839598601
0.281140076068939
0.276462236611207
0.281532573914561
0.275692427163105
0.277476565172576
0.277683380045286
0.273934667985409
0.269650954666066
0.269487486813931
0.271014219496325
0.269422129467597
0.267056793488309
0.267148508807228
0.264251600242301
0.26286552037895
0.261969592114581
0.259714890251272
0.256273130959145
0.256121894765401
0.252545176784707
0.256403830413447
0.250091068904986
0.247068768372852
0.253240230609365
0.253423246669833
0.248000637040347
0.246646683427045
0.245657353635039
0.244809990482618
0.241315509770423
0.244496216718695
0.243856905311916
0.242065686792357
0.242418768534577
0.239609475199509
0.239191475115038
0.235017965943148
0.232015553701476
0.235207053433767
0.235206062247512
0.235113350982667
0.234968582498526
0.230548507993562
0.228950619959632
0.23284918342298
0.2285454640474
0.22471813033036
0.225390730106759
0.226579725777293
0.227207841860828
0.228284270041662
0.225295926856334
0.222017540193594
0.222519774871221
0.223808692847718
0.225587437711306
0.221929218445847
0.218386274375956
0.221210767315961
0.220347715466297
0.22341311627032
0.219765506059643
0.218130660899335
0.216052579724882
0.21626349645066
0.215820431637776
0.217503574102033
0.212306436583246
0.219458786135448
0.219530946681661
0.21002336129972
0.208750504373112
0.20811607868777
0.208653242115157
0.210108275581495
0.204850910984865
0.20808346260028
0.209597574066265
0.205266608529077
0.20713631762448
0.209190289750992
0.202909606613707
0.204634817080378
0.20565193370297
0.20227670487751
0.202262963627331
0.202678674259867
0.201919695448237
0.203178165687811
0.203334219850214
0.206090478720691
0.202855170306172
0.198049034445686
0.202295065267736
0.200694798419889
0.198833744953633
0.19540798276564
0.201482702547633
0.199486689439708
0.200094725767351
0.19455351994511
0.194259697027409
0.200513043953528
0.191726621498709
0.194884487589555
0.19233833582975
0.197506075355027
0.192435833953637
0.191758664480604
0.196817128446227
0.192851029153302
0.194103282657592
0.197553610712803
0.196123638935005
0.192879451446534
0.19484454795389
0.194075926169348
0.191159843256906
0.19255371421657
0.190567280557866
0.192345307586231
0.191603344350806
0.189728024636792
0.188915781832526
0.192929649842888
0.192963527557196
0.18986331301218
0.186849105322362
0.189977697751097
0.184990794757422
0.188248129507642
0.190363790537994
0.187519856590503
0.185983596353727
0.185954281759824
0.182851080760695
0.184708182463744
0.18403970538327
0.190629231477672
0.183008420101153
0.186118465932388
0.182032630959558
0.180375110521797
0.182200588807555
0.182673255201168
0.179263523341399
0.178894868173517
0.18150420707803
0.180479203666992
0.175868702514632
0.179551536110518
0.172827259469225
0.173116140628423
0.175284820901226
0.173531456672646
0.176069426319251
0.174972573402801
0.170613578340802
0.170889516211303
0.173920122660803
0.170538181086704
0.169640389483462
0.172977589023409
0.174366522047623
0.170746262216724
0.166741572040823
0.166607653212727
0.168451455031448
0.168668640134064
0.169688589673823
0.165141949729473
0.162541929446321
0.164704118356212
0.163849855161567
0.164733203635978
0.163558097296511
0.164885045788931
0.163864726397556
0.163194119207409
0.163514552461627
0.16084334142956
0.15929898698778
0.15849586885903
0.162224094852431
0.161216775400088
0.161047957217621
0.15913232917259
0.160143470495766
0.160597709238959
0.155669463076834
0.157256123209228
0.157453098077411
0.152383996332308
0.151850088655895
0.157691482177163
0.157383022489981
0.149873058703127
0.148808236516829
0.147635885472427
0.151434442781653
0.147542118538633
0.147917220119338
0.14753987295913
0.149668627943614
0.145793650852812
0.143950806059381
0.146754320028488
0.143978419011337
0.14186522902173
0.145219237524089
0.144081919579394
0.142974145219233
0.141401147060698
0.140731823576415
0.140178629109699
0.140141489275869
0.140737185605633
0.138900097506937
0.133014405167379
0.138530739891655
0.134900543263047
0.134977871344758
0.132486710649993
0.137681849524781
0.133383604546971
0.136281140608453
0.13537154876564
0.131564903816463
0.13315255835576
0.13026717994532
0.130897681210042
0.13401641738721
0.131375082130568
0.133674996477828
0.130661896752061
0.129291644087429
0.128751499577672
0.127590414303047
0.125329949544144
0.130800845062022
0.126964932359339
0.127917786159957
0.124715096491354
0.127405994794064
0.123442770929121
0.126998695084416
0.124418277244717
0.124900723288569
0.125062858798314
0.123710739114155
0.124707381263535
0.123522434798035
0.121352795024396
0.119514091987226
0.122596511548381
0.121704825990807
0.120651605923198
0.119429513593322
0.12006715059292
0.119512818468563
0.115824694015772
0.12148349775818
0.119838930791673
0.117553869978669
0.117688129992621
0.119125811779624
0.118927072774694
0.117173991746462
0.118288965325532
0.116897898886176
0.116337591119992
0.118059080798332
0.114958829004434
0.115444559222881
0.114442368324297
0.116003579837601
0.114159027880939
0.111204932008786
0.112569177457382
0.115342167679802
0.112677237227925
0.113779263064055
0.111481144523361
0.114521558950786
0.110834700286456
0.115700511869475
0.109515144142319
0.114582948448615
0.109923764907768
0.109511774626634
0.114145813648238
0.112855283958089
0.110502292391543
0.11279970375496
0.110216375457858
0.109875381217121
0.111160584227625
0.109187939235067
0.111927433881882
0.107985575897794
0.106828157308961
0.111754481147135
0.109389275924366
0.110035932555296
0.107422532254583
0.11023014190773
0.10810135602719
0.1095491877111
0.106305566874283
0.111399304386875
0.10583712239803
0.111020519249392
0.106681550089223
0.105781060089909
0.103037201264075
0.105414089116013
0.105814281481417
0.10646403818751
0.105666750023793
0.10491314683104
0.104635810976732
0.105245534877776
0.100659598256312
0.102065185211929
0.104212929627697
0.10390503856353
0.102700253998391
0.103520606844171
0.102221377664548
0.103713600467588
0.0999307743879402
0.101414980643787
0.100055334063887
0.101500742826405
0.0985422756979637
0.101998934938434
0.101516633352448
0.101238411370109
0.0967773000331068
0.100601162385508
0.0967460284260876
0.101442250801623
0.100091231460052
0.102411372865528
0.0982200966117241
0.0974533595552211
0.0976691509650848
0.0996134343637508
0.0968533664884574
0.0983814508153718
0.0948728561036777
0.0972540256468651
0.0961347492978616
0.0974028805479732
0.0949679947712692
0.097625636588633
0.0973823547108629
0.098118935105565
0.0957550610031043
0.0991873089195556
0.0956717529955488
0.0947720590398716
0.0956378696428028
0.0967645452040967
0.0955206742409644
0.0938668685171955
0.0946880517872499
0.0954192380311727
0.0921552407090555
0.0962272674399702
0.0937624240091136
0.0933893532160279
0.0926782026673015
0.092242912853574
0.0917992031702117
0.0939655421541931
0.0911122963333541
0.0916327195042926
0.0892349542481132
0.0894390652858049
0.0881712318135723
0.0916623072895675
0.0879811943301537
0.0874615856380983
0.0860200195594927
0.0873808675011392
0.0858131587862018
0.0892782708675217
0.0882937309414863
0.0882931831392589
0.0862467551294788
0.0879230338168615
0.0850662083920302
0.0839615664037622
0.0835500615476053
0.0866017180466599
0.084055152914375
0.0844497803149251
0.0831770158690504
0.0841244903708499
0.0809602007930314
0.0829450962275
0.0822412490348325
0.0830106521795257
0.0804117563439359
0.0846289411858385
0.0803748414826267
0.0846572192273417
0.0791066358792151
0.0822765413555454
0.0808505389225168
0.0816212694503978
0.0813936101480416
0.0803119951580786
0.0799357338294619
0.0783778214369028
0.0757950102920402
0.0806798762393357
0.077412202996332
0.0790819531137495
0.0789237614783234
0.0807528124295255
0.0739707812403534
0.0773203469695686
0.0780857001007881
0.0800694630971708
0.0756361565942629
0.0753237457779968
0.0746324349028935
0.0779296521001218
0.0768904348447021
0.078004957242364
0.0723931973579701
0.0762502800666968
0.0767019825212526
0.0764082781340507
0.0719409976130275
0.0754717338723687
0.0734817419064474
0.0739878422034929
0.0731879325613737
0.0736542796028495
0.072345626275932
0.0748205608419747
0.0731193966627463
0.0739708414325618
0.0689690622178896
0.0725171208480784
0.0703520018226528
0.0729312023766387
0.0705961248671986
0.0702086931874072
0.0707429454669135
0.0713645424623611
0.0693979810760241
0.0730268561707045
0.0667144404774864
0.071801893410918
0.067847178909585
0.0717210119400454
0.0673626763275382
0.0672981066474707
0.0664448147881151
0.0691412580491218
0.0668938357279977
0.0691171451333506
0.0649835989254168
0.0676290941783718
0.065236545613415
0.0683200649094635
0.0650535807791274
0.069233114745721
0.0644617052766291
0.0661166974659476
0.0635124478841665
0.0665598702864118
0.0641649512072455
0.0658122725828741
0.0630392760928195
0.0672081134262796
0.0649039485733245
0.070930118703251
0.0647526951608443
0.0685607148835216
0.0655552398237015
0.0682799268531638
0.0662884150754181
0.0670560218332278
0.0647837968366469
0.0690408411609775
0.064221316472777
0.0696540473832303
0.0645822847678448
0.0689923576697982
0.0620347138987671
0.0674697649257197
0.0588095001737517
0.059626411795282
0.0531855717773802
0.0587008543365287
0.0587231226943349
0.0620465805036573
0.0489200098014368
0.0575286533006724
0.054259480515151
0.0607491148980508
0.0515645280415963
0.0645341708237979
0.0458177709282515
0.0574629869971277
0.0594293962887754
0.0572120934354111
0.0491864837364088
0.0587057569408275
0.0507906012145346
0.0643449471188121
0.0504744568358255
0.0678600513930318
0.0574556487423144
0.0678541690844232
0.050432986664028
0.0704571679855664
0.0501066283454612
0.0638757820113294
0.0517976664746989
0.0586792247372712
0.0513781445350397
0.0618586600163042
0.0497591835992008
0.0612850131954615
0.0507163668502768
0.0628088616753244
0.0513936186556984
0.0593707055803649
0.0426219138111928
0.0517304768836938
0.0490119926762755
0.0537404726155648
0.0594569136240285
0.0607485651184546
0.0647083220069819
0.0473457317861422
0.059591242610757
0.0449703838049132
0.076830631161973
0.0440358666916249
0.0720070425410056
0.0312528588849317
0.0879978508070246
0.0314185278074356
0.0864832036934923
0.0227512938900531
0.0985996399476045
0.0284257550410872
0.0885935824440721
0.0321806567465231
0.0852324072410708
0.0388176499056213
0.0764847028476023
0.0519098880378009
0.0647748940319763
0.0582974754157419
0.0580753186130031
0.0634850571074614
0.0542364801554435
0.0656618764843014
0.0523282568377082
0.0620198940138025
0.0588036672647198
0.0544545137724229
0.0639419033134358
0.0546362353108456
0.0622933933081829
0.0525073063700706
0.0596062948712414
0.0528750434818517
0.0564047995261032
0.0556396794530972
0.0575111120888211
0.0524304241949255
0.0566059027729794
0.0547407529895462
0.0576756833909642
0.0520541816609384
0.0549261242703315
0.0573942948045322
0.0561764135250947
0.0565086349542001
0.057303630004002
0.0529423473300527
0.0563146038465534
0.054880581403522
0.0552823619844565
0.0559917115997999
0.0573767409633895
0.0534003570238786
0.0552405276008842
0.0518700053787511
0.054439331664325
0.0561220407099159
0.0554155255492875
0.0530626677361335
0.0541875466710476
0.0545155248098325
0.0557787647072956
0.0553708277232954
0.0546999640161114
0.0533670922263981
0.0549165832203592
0.0531290072725315
0.0554525977352919
0.0520759445922761
0.0531526890524307
0.0515544375962534
0.054990237917685
0.055292176598305
0.0563993659739601
0.0557230180234674
0.0552071290058744
0.054574307384137
0.0545502160996807
0.0563933965912428
0.054091231288513
0.0528373672153032
0.0559134965822195
0.056850006757513
0.0517153399392696
0.0536805457749544
0.0531185056275429
0.0530664861407091
0.0525952535569873
0.0536762149937696
0.0547790670535412
0.0556910530302919
0.0531478736683328
0.0531333553221775
0.0538217814124704
0.0555798184446885
0.0538400078015726
0.0534498524205403
0.0542246049221548
0.052144555759254
0.0547954722815391
0.0529921618720965
0.0540411237345615
0.0563457855786417
0.0526620983553148
0.0532568453523409
0.0509960795752039
0.0546012403712984
0.0537111775144707
0.0527074089612705
0.0519055829849385
0.0537822726754914
0.0550681940436313
0.0566281877170412
0.0544433464682128
0.0550984775764322
0.0524484409862651
0.0539854832977588
0.0545628483357014
0.0558446024443828
0.0555525902422857
0.05144940495486
0.0546739549185974
0.0566439441948507
0.0547301885497482
0.0540425308744315
0.054915404025202
0.0544951275242211
0.0533508144543546
0.0558627582664426
0.0539617023444738
0.0558012670136745
0.0574632233977136
0.0540180528648511
0.0547389851124288
0.0563616609735963
0.0555648247927306
0.0566299535460882
0.0539054028102898
0.0554524020653984
0.0564663475404851
0.0540019695258346
0.0545038230197698
0.0585392668820147
0.0553579907035886
0.0544400857057626
0.0547082409433187
0.0570456936389515
0.0560009985483339
0.0555891080705273
0.0534795073298789
0.0541601396495144
0.0537857527670504
0.0549711299980224
0.0529233104850919
0.0556337521057699
0.0536642418355634
0.0558344706072553
0.0544960372695132
0.0558461525563443
0.0548236143695338
0.0563428055990528
0.0554575591298979
0.0556326234204758
0.0530858455952453
0.0537608168682263
0.0539194181741046
0.0545544638486165
0.0546234282265129
0.0582957586184389
0.0557549031288987
0.0560056927129692
0.0568067048049275
0.0576198309800125
0.0567353492383535
0.055450062167581
0.0542770516404576
0.056918487340461
0.0558603126425335
0.0578688639705332
0.0555143903992031
0.055028826403099
0.0537011347179779
0.0568477217714264
0.0561695047367821
0.0573927917877114
0.0570355135940677
0.0556096605123906
0.0555471752431995
0.0574676593992776
0.0562297412337487
0.0572467394012902
0.0553770622355695
0.0568087155566187
0.0549732605427613
0.0596426389203427
0.0569513964644641
0.0572244112020494
0.0569784241338841
0.0572739978439838
0.0565766623301058
0.055052013759599
0.0561952978650492
0.0585330229282937
0.0528271269721479
0.0551689621948439
0.0550941719098565
0.0535743696630751
0.0546340039291805
0.054955328760822
0.053329941137345
0.0520185001929866
0.0548652395055467
0.0562405530840734
0.0523105085516978
0.0518345035532703
0.0509535830425378
0.0544638011134829
0.0537198426074815
0.0559699047219479
0.0524186124683817
0.0554829313447622
0.0527607997500939
0.0541819733402544
0.0535419725759169
0.0533981573194232
0.0527090053869272
0.0531647477615993
0.0509369793162788
0.0530465894954162
0.0510889887677956
0.0549510333593213
0.053644676700256
0.0532300751244347
0.0529449755314697
0.0546565598716281
0.0528464248791368
0.0534313829259867
0.0518652681519644
0.0513997265595914
0.0500853171129242
0.0515796480651908
0.0519228159366402
0.0516329695784627
0.0504395614059252
0.0516580566429454
0.0517424740956568
0.0525679719948407
0.0506885045857783
0.0525156277478668
0.0504337101500112
0.0540037790008087
0.0500193924347415
0.0500800588321718
0.0515080179937869
0.053204438378296
0.0517345128185624
0.0524371444695847
0.0517177996289626
0.0534631645029149
0.0489888287699715
0.0503039858116633
0.0499372859886613
0.0517829028290223
0.0507382863520363
0.0503462472163838
0.0495769124976352
0.0523083195765609
0.0497392096492808
0.0506541741865705
0.0506941926718217
0.0528664852331413
0.0499913989344267
0.0535196144110707
0.0494661894871551
0.0512255637032405
0.0484538563411046
0.0503611118019925
0.051393080288306
0.0500651699235505
0.0474849062904233
0.0532000881691661
0.0524888385963241
0.0526645830208432
0.0503699960324817
0.0525253267360526
0.0519960749253126
0.0524978696283339
0.0489843353887615
0.0509529470348377
0.0498358464217725
0.0508609290889625
0.0495397677006567
0.0519348620550903
0.050215759793659
0.0488658724011414
0.0487909129132841
0.0515912814431905
0.0481604221344658
0.0510913597300166
0.0495643934821954
0.0483844883281515
0.0480392504704826
0.0479219138905803
0.0496713967452227
0.0492344536230815
0.0475285268751919
0.0530428192088977
0.0502897454979831
0.0492420745381303
0.0485700394161189
0.0520951526201496
0.0498174249249308
0.0506714189308318
0.0497363720090554
0.0493836888454584
0.0467817019514419
0.0479440397882968
0.0459304592977273
0.048186503216867
0.0475272305275091
0.0495625166346232
0.0467418887835821
0.0486306219819139
0.0464286451152046
0.0484590882310211
0.0470998788828236
0.0492854293748495
0.0467658657757815
0.0449831122317083
0.0462388065351138
0.0501631379359396
0.0468497067134565
0.051158910510245
0.0499391264315318
0.0531478490788795
0.042888101543896
0.0451708490579727
0.0432440827098962
0.0466570127685838
0.0433838717393683
0.0464537534440681
0.0453423025268703
0.0447674639163081
0.0430436808199025
0.04666592454214
0.0425494035475542
0.0436649243971764
0.0420341977064551
0.047008358142785
0.0420320605151669
0.0454159253976932
0.0440371777190721
0.0462139325469895
0.0423267670527144
0.0451958370132024
0.0403158338957089
0.045842095776719
0.0395473087747818
0.0472686186480429
0.0475045847640489
0.0574198252345261
0.045746322180678
0.0443609799909276
0.0460858068376512
0.0463231280517552
0.0450306978822843
0.0418579664296199
0.0431316143677056
0.0434986165318101
0.0415139312637283
0.0431894445092169
0.0426235510214044
0.0433132478757019
0.0418461471556599
0.0417514442144384
0.0404509996080098
0.0449443559964785
0.0418297879229253
0.0422813534020373
0.0429536080157159
0.0433650872738888
0.0411519857493185
0.0440408876984664
0.0407489955780088
0.0430214836300574
0.0422757561786016
0.0498936699703103
0.0490557740418106
0.0417293251758292
0.0412933625937102
0.0423452296100985
0.043063751008874
0.0425178277678928
0.0409557418235102
0.0414381080556467
0.0415255339947764
0.0417371400979547
0.0415403422345302
0.0401587259751413
0.0390103067068734
0.0436896302801529
0.0408484295823518
0.0419929764637339
0.0396912007094763
0.0401628186696728
0.0421502095953494
0.0393875835111248
0.040234165924868
0.0416469978666735
0.0436622890031261
0.0425331055176212
0.0374254916997588
0.0483768107559867
0.0575626622004774
0.0490896097754714
0.038955276757624
0.0436376157901335
0.0383675221277909
0.0417026845983303
0.0404080826808624
0.0412415694429636
0.0374473416681564
0.0413700464220026
0.0395090574091034
0.0390519136615177
0.0373203658079132
0.0428707487757226
0.0371905039679492
0.0418524817656207
0.0391960305005391
0.043344693818796
0.0376240273590682
0.0396763782542854
0.0444969410786308
0.05478066187923
0.046327213384389
0.0438559386355253
0.0372861467874166
0.0455801135699125
0.0503409028985595
0.0566672166845314
0.033424889895353
0.0461360486504165
0.0347806946552589
0.0416943675105995
0.0376593993671008
0.0432522047408782
0.0418495315454538
0.0467880392939346
0.0428386381645909
0.0454427195956523
0.0395634367764103
0.0404947246093212
0.0368743284064225
0.0410322107629003
0.0387416537908486
0.0393370629638288
0.0382686915817047
0.042009066006411
0.0373133033931201
0.041517961984459
0.0371507150692044
0.0406389912548782
0.0414755192421689
0.0498672856708895
0.0385985032198394
0.0417829428185912
0.0361049442909315
0.0400417444269944
0.0471447876734133
0.055659259995566
0.04394308740897
0.0369030499654231
0.0409221752558973
0.0399754909608694
0.039871503207188
0.0386762572021071
0.0386586240656835
0.0378610042849723
0.0393106734785984
0.041086976560153
0.0380027671491617
0.039142916603622
0.0385808925975
0.0418393243758707
0.0393624392941808
0.0387007597194287
0.0387800058610131
0.0409742937254495
0.038079600251077
0.048139671903721
0.0505816750199156
0.0690751910281508
0.0526766255465109
0.0541001612371263
0.0441306323756361
0.0413656402343416
0.0398209012081284
0.040026625355324
0.0388567193074293
0.0408510042131564
0.0405686889194954
0.0393369687416691
0.0386078521356844
0.0395555657480057
0.0392761313505312
0.0385181799033507
0.0374320358551599
0.038812921508465
0.0407546712429488
0.0373746518424284
0.0391156665912779
0.0367601752170257
0.0423191072748558
0.0459203349523272
0.0526452831784491
0.0377956995592865
0.0518349783349066
0.0561325175265372
0.0707976743035291
0.0491449679945166
0.0429032486500846
0.0423033502906479
0.0393617950274532
0.0396143265005777
0.0409775989612103
0.0468681261276969
0.0411446995347953
0.0395962793573541
0.0384926289371515
0.0431061044528537
0.0399136909006783
0.0421080754008047
0.0518874421222417
0.0717809267940745
0.057297582237194
0.0425570865586138
0.0396435762651754
0.0557135430766571
0.0614140718299478
0.0514869414587643
0.0412436576121774
0.0498444787299124
0.0367715101958774
0.0430452690608516
0.0351687678793576
0.0443637825639223
0.042683775546827
0.0446924028963722
0.0405645242635415
0.039246342322528
0.0397446257167411
0.0445188168393308
0.0449427387462462
0.0551615163602476
0.0500912563801991
0.0454134452582486
0.0442767926904175
0.050160184887696
0.0382799717872619
0.044937284793411
0.0394836172025271
0.0451983580376395
0.055257038790099
0.0583869432143818
0.0513037796891295
0.0597700175858677
0.0527641227442158
0.0464805310109156
0.0435671585908682
0.0613173353561937
0.0450036620932138
0.0475768280113488
0.0539011347524849
0.0731292443367028
0.0714034990304055
0.0584170882604947
0.0561139787325577
0.0389472231181177
0.0491126563122301
0.0354250649899448
0.0545264373461102
0.0536444099324323
0.0581310197183793
0.038979337657907
0.0500443624423526
0.0540512888006452
0.0609307027496379
0.0486996083399204
0.0502690801327725
0.044683087383383
0.051370513564029
0.0612822947417428
0.0505171379008052
0.0537070222480932
0.0690670733164756
0.0937707005795761
0.0705514279359755
0.0547686733879148
0.05375327635144
0.0770439510932389
0.0626826148985667
0.0446506130222906
0.0509140387164099
0.047112755262222
0.0480189231139449
0.0583780874281911
0.0748354521717847
0.0639062200988134
0.0487874707924776
0.0539500825694532
0.0548964517810281
0.0676398550342582
0.0651364355634937
0.0502773849880715
0.0547998730429027
0.0476828265002475
0.0641898901224852
0.0876571330192901
0.0809900699715217
0.0683229157423635
0.0792994874493898
0.0797936684813056
0.068878047681049
0.0677324285208979
0.0620706837943878
0.0794654714192371
0.0788400425438202
0.0639105303701743
0.0578124678218655
0.0829095112756203
0.0792124769652765
0.0715908066059837
0.0601149638979593
0.0681277034799999
0.0606629459027917
0.109804877734389
0.124799062834204
0.102495959849723
0.0699252580063382
0.0819802367341326
0.0930754193153842
0.0798439036509749
0.0667536425132079
0.0697300766629709
0.0667561353989456
0.0677462504470046
0.0729063639587889
0.0800434624583957
0.0764095976371655
0.0774025382257093
0.0752461378706924
0.0859296555678075
0.108432802844181
0.146265249464104
0.108804494678916
0.110157180361743
0.107600774543491
0.119591447142564
0.0903438489504113
0.0861242967417359
0.0796581616805959
0.0950356944837609
0.0887403634168712
0.0848088934414521
0.0907389236955584
0.112953228954174
0.106688798418368
0.114385924546847
0.108464218216053
0.108014981451889
0.0930131856183404
0.146515823648957
0.172122171566583
0.159887503927587
0.105779537921234
0.131546596775527
0.128353395853901
0.182247549426337
0.130338921240945
0.120463639378944
0.116416918463063
0.121874526880868
0.126923000194031
0.141002530045608
0.140144084193095
0.154566818466506
0.138719048428148
0.150044431158852
0.155423034455463
0.256767445069644
0.217663394923459
0.179811263046594
0.164982285971301
0.185481515501025
0.180982000981632
0.176451718854214
0.173089956203593
0.179150349960233
0.199918884456299
0.224453680897348
0.207965077332485
0.1907671682047
0.221008072442273
0.218171075437556
0.224806219444237
0.249435892036113
0.255495500316051
0.229192098845586
0.222916164638619
0.228554072801881
0.228781434119695
0.240687199770338
0.264326840983148
0.265882371616814
0.248508310383834
0.253467924407075
0.251358864676146
0.258806623329646
0.267382287329954
0.26689485962149
0.275660658924042
0.311441252800448
0.336784489773927
0.423048435977615
0.3067151276267
0.281018611827112
0.266244359244178
0.291781085643518
0.309413027086069
0.326212030233902
0.313621333278655
0.30495916884432
0.275870438652474
0.274614186535739
0.277658163745758
0.279329958149823
0.278206370410364
0.274784899549337
0.280969224781527
0.298005523792189
0.293635418459492
0.333246136580996
0.336579448479598
0.295656760726425
0.274120809615962
0.28005429337955
0.276500956417417
0.28447121207147
0.265870589722676
0.297058925793337
0.281517349502952
0.283967178058864
0.263610246079685
0.275312468327196
0.295695242784761
0.306272013825783
0.270270810924444
0.274521800582464
0.263019601866561
0.267736264631962
0.259087144693687
0.299328409405766
0.298127839278227
0.276194044526486
0.255700652410055
0.263754472553693
0.258131631200457
0.265503390320962
0.24873650551203
0.268628353313505
0.265548370481869
0.265373074601041
0.256520822958561
0.265905945209379
0.257877843959164
0.269455717670876
0.26192401544413
0.264999679053145
0.257176263012938
0.26147175981389
0.259957875197018
0.268688628551007
0.259352236572787
0.26788109991895
0.26307069829836
0.272891644634403
0.266157054188052
0.269934549317546
0.265001340510102
0.267482917518437
0.263946823888943
0.269607416713214
0.259861898666593
0.263404931103863
0.264083856288493
0.266364584465398
0.258980628844024
0.262903285781048
0.260542848264306
0.261295852460235
0.258857508773096
0.259033620890907
0.258152219832273
0.255504296929011
0.265312438322502
0.315339684702348
0.27775861543707
0.250696097927487
0.242490108694263
0.248555972153024
0.234898108886435
0.248175663460191
0.283513033728732
0.270943687617384
0.232833606342401
0.232096942414742
0.228682677390125
0.246348276074608
0.228988356125451
0.229641897768368
0.216698131861832
0.228914504023336
0.25396828792513
0.298871605836641
0.319228775522252
0.311234086261045
0.23209685426406
0.209692678782917
0.231914077189597
0.239375693827206
0.211698063702707
0.199470480151784
0.201834654796979
0.251363214045373
0.212893459423655
0.204034038863977
0.1940726424765
0.200908963947487
0.231836158288142
0.229686898196318
0.215725558755887
0.227753527110512
0.225258698972063
0.227351258380976
0.257780821963438
0.259939638016928
0.216067682697834
0.184068143593355
0.178903777342084
0.181932176865616
0.20068657148415
0.231523341390332
0.192878587991465
0.19379364623839
0.169314279079827
0.170194766622614
0.175299428640911
0.198668265785847
0.173826111217989
0.19810267044561
0.194852945392766
0.17442601279689
0.180240570647635
0.201578090316107
0.215944946705374
0.226335494318325
0.176407786823115
0.164054990298128
0.207689533284174
0.20631495014532
0.17769501238223
0.179140543029261
0.148935834703053
0.169574109187902
0.172579067510698
0.159759755820624
0.176541043739998
0.184756006755806
0.193215220314916
0.220756388187355
0.240377271883017
0.214261239673611
0.157571062098127
0.149565665544857
0.145225440541999
0.157295609042889
0.147208854664628
0.151556856722755
0.185030849032386
0.160515136507521
0.157384434341062
0.201473623939662
0.164255073392783
0.154982014233659
0.154389808611476
0.152586370693814
0.16556083141969
0.199382720584712
0.212568966975857
0.181928017649613
0.191034121466471
0.197602278529577
0.177341663981166
0.175660559233108
0.175322433679404
0.1800001840857
0.181236946052853
0.202943201765177
0.190078508582194
0.197579395674145
0.195819384219357
0.2015677852232
0.237212437456643
0.233648236376655
0.215767265424249
0.252123507303181
0.256385967782796
0.296479199905597
0.244868431602684
0.23745320662569
0.235302438550063
0.247881369457059
0.246900031752994
0.244877211576946
0.270225296736881
0.29412498800948
0.260924016979854
0.267107936750686
0.26454740434586
0.271310387981615
0.276832539815048
0.313743048394829
0.306361266250989
0.37149655528763
0.331655715721832
0.317486213250996
0.291730614425144
0.286573125129057
0.294124072696146
0.297247427765818
0.291610429740105
0.29168119406576
0.303922502661399
0.332566453341656
0.300159249525698
0.302535405598467
0.296978193373247
0.302123926832389
0.296678721816322
0.306599468259479
0.303185776571859
0.315578505381161
0.310531379732852
0.315565709254032
0.320181017001311
0.403380546048959
0.339154851761852
0.331245265872587
0.328805924545371
0.340287226990526
0.328699154543386
0.340964823269394
0.356415932783212
0.353055971278096
0.342083017037998
0.351403924890075
0.350236620238794
0.351497223032969
0.368944014763259
0.385894150893408
0.35514223466891
0.369377284857714
0.356563333155924
0.420356632894742
0.409205703202924
0.389918547273985
0.384530623790642
0.378614127804105
0.371167146539372
0.372845424505575
0.369280244270672
0.374638899789901
0.37867808808547
0.375882771743856
0.374201507576668
0.371739938443069
0.37287198554286
0.369288142748438
0.379995982580114
0.401462062589052
0.377663169828061
0.372632963076137
0.368859542944396
0.374064868572991
0.369115759285599
0.3988241141585
0.387259480609023
0.378925549709911
0.36912165712086
0.393825246708402
0.396535244135344
0.387620775261902
0.364060172894537
0.369898686685911
0.36582790138626
0.377849963454413
0.359906568070154
0.391115274668346
0.400996589272755
0.386191164499795
0.373575116948368
0.372285077057747
0.377989672283001
0.380088723243925
0.380725693206702
0.380618422954488
0.38400054707812
0.388309542808975
0.394473989368168
0.38553108586941
0.388231812525739
0.408036666499511
0.411577481114931
0.402442575560669
0.386453067159046
0.386352970092343
0.383986330087627
0.384663931424138
0.386396747687428
0.381281263115682
0.373495615414317
0.375881552554392
0.365209156623013
0.378407666019138
0.399364919980409
0.366299536151274
0.374709956574551
0.361337924577763
0.352174421863682
0.356178494171584
0.34734153222576
0.348509671671053
0.340045448769452
0.34970224271136
0.338803732439727
0.340716698660774
0.33062469916807
0.337291281606073
0.334921625197823
0.336195710598899
0.333034341412015
0.327858875280721
0.329382006191667
0.329699579635633
0.328383572155093
0.328885045174177
0.323912681123231
0.330348537036951
0.347424612239025
0.346997333186605
0.349949818701873
0.339483032006547
0.33387017205408
0.335700982421539
0.322056649861609
0.329807657840617
0.322506150011207
0.327520886687205
0.320864887493995
0.329827421999904
0.323684179852812
0.324058649525409
0.323708392575653
0.325104640933605
0.324507565047706
0.326093038098608
0.324443162986823
0.323258668208898
0.318623750077642
0.327739957818641
0.324820871847546
0.33533636390482
0.326157695893299
0.3290966421365
0.326615035721738
0.325237402286157
0.32463267562191
0.329518465785917
0.331899115515588
0.329035300070321
0.32131080258538
0.319348695080684
0.325044745863144
0.328712048294529
0.319358414401586
0.323321540706307
0.320992360938347
0.319475468972146
0.315346802924323
0.316602696665187
0.313295241227676
0.308385586899641
0.305276678132667
0.308404790119252
0.302612893432724
0.30238944980462
0.2976088376546
0.29784964300836
0.286629479513171
0.29377521348226
0.286350299626742
0.283203296897657
0.281508951158894
0.283752463928194
0.281630837892209
0.283702348558686
0.274863272075401
0.276257101179112
0.275185951700642
0.275608318517397
0.272717398914022
0.272314516856356
0.272295682960362
0.274870044142004
0.272289088348587
0.276726195369193
0.271435841451062
0.278336920623088
0.274189324239671
0.277752383579005
0.277798044437961
0.279523768069368
0.278538409253004
0.28173818614693
0.282466513427835
0.283335196194091
0.284026381575212
0.287669029497017
0.287218078316057
0.290021584395512
0.285753354137779
0.289196616209117
0.290580659927055
0.294972054515101
0.291542630913394
0.291937289904253
0.291386754436086
0.293129642574296
0.286384130801225
0.292067715593107
0.293268337517894
0.294155173852471
0.289330132330346
0.288950960623542
0.287418613428964
0.290348336232997
0.286015177073835
0.286992166451937
0.286907347711451
0.28618974788951
0.285677960606299
0.288164030726183
0.285241556720618
0.284243929902779
0.28071263658654
0.279030592846474
0.279124882425776
0.277167191272597
0.2756388008937
0.277313692704274
0.27671875116588
0.272071705287768
0.27202110512851
0.271788294805054
0.27010579687103
0.271590444098365
0.268820085841802
0.270209862564712
0.266883661382626
0.269488005880062
0.268034699085337
0.266644926612199
0.266750774466761
0.265126111977808
0.264181464910685
0.260444190795213
0.263070221007598
0.261776701104955
0.260005021378965
0.259254491735143
0.256232801927838
0.253979162996251
0.253354393639059
0.251615046684995
0.249332756640582
0.247232798365301
0.246143733545749
0.244956203594573
0.238716539575586
0.240550046243968
0.237309138963476
0.240143147252193
0.235265805872418
0.23656662680105
0.236175145006371
0.234504588339224
0.234312864057384
0.235418212365452
0.232118203190314
0.232352958308735
0.232849366863826
0.232221770216673
0.228798173410918
0.230559197796323
0.224578706476968
0.223259719796231
0.220471885609542
0.221080852212634
0.21454014539481
0.215145975789439
0.212593925406048
0.20825706205757
0.207145577307143
0.2066320158093
0.205967087496194
0.209147885754083
0.210376129546845
0.213435938132714
0.215407391433043
0.223108771929152
0.229498211317636
0.234177952664277
0.241515115767018
0.251217979692157
0.261116699718852
0.27022233099757
0.281924446343735
0.291540646096398
0.302556330019739
0.31438474809464
0.325049148790138
0.338163858794739
0.345771217638972
0.356829560087219
0.366657840337891
0.38222807698901
0.390813023160772
0.399498956070114
0.405509052109439
0.416240805463925
0.422878016647815
0.434166305618278
0.438635151695168
0.447420935275345
0.452998038912881
0.463450070036626
0.467045098303984
0.473738605109174
0.474652510278815
0.47927617032897
0.484576027517823
0.486203064686286
0.489052431743098
0.49177117616262
0.491358553700208
0.49514799081648
0.491467926281752
0.494703154145028
0.498336572330098
0.502150529236438
0.496459304980661
0.501757248340406
0.499583417686458
0.502486479276875
0.509662596398307
0.507705292541588
0.509051977005213
0.514044300164936
0.519102195470484
0.522297155040494
0.523814834810708
0.531751352316531
0.531413009760808
0.538563437156943
0.541205104251737
0.55082684758559
0.557543701811027
0.565194995735278
0.566501377960483
0.577355636977353
0.585693601778086
0.596546349664017
0.604363154265282
0.613782452722595
0.620968346899697
0.624568431263339
0.631544155402763
0.637671837068789
0.636148832389883
0.640842501809189
0.640093510265146
0.649655356958603
0.642514211983456
0.64668834693792
0.642878043309783
0.634232098471793
0.632652713066688
0.634565968907147
0.627847300687769
0.630441643421677
0.632500143350362
0.636654568888924
0.639468686420063
0.649345171937662
0.655794806576726
0.664230621398704
0.674193916009766
0.685562106874588
0.697142426868482
0.704431357696702
0.710083241701104
0.727171229617083
0.740788187294292
0.750088028548067
0.755879958299976
0.769606144773075
0.77338025847584
0.789453706694366
0.802179355410513
0.814456569524226
0.824570201588473
0.834993188627528
0.850865545402645
0.868202005765935
0.880153422375075
0.89388126111383
0.92196672559543
0.928437325298145
0.930878934201662
0.957168982733634
0.965188628906947
0.993697196277092
0.993096044030054
1.00742662270105
1.03181091625727
1.03655292580572
1.02954574150781
1.05249842185029
1.06048530671674
1.07719270948383
1.08071004223824
1.07279813616912
1.06721004235711
1.09064828049447
1.08070914796001
1.07061485329452
1.07153829958252
1.0744537872793
1.06549820174839
1.06232443576716
1.07626481062577
1.05981531109168
1.05889467688334
1.06082431617829
1.06457529521205
1.067305231306
1.07276357976606
1.0784048838917
1.09088735386011
1.08609840169251
1.1110045558971
1.128427424868
1.13607638039017
1.14700058610683
1.14815358520751
1.16218015145125
1.15613657422486
1.16726026314667
1.17474972024738
1.1861465770912
1.20881436773311
1.21755977206763
1.22257571683125
1.22556253255826
1.22486281817553
1.25498004824308
1.23748046486928
1.23860927385412
1.25913980075528
1.24102589788336
1.27460961428418
1.27824554034629
1.26012456371146
1.25027968551374
1.25567868437676
1.28142222731226
1.26264770806474
1.26716267685198
1.25758787293885
1.26669371192879
1.26411948940836
1.25469571483487
1.22954203047195
1.23492403157465
1.23716896769431
1.23186411046611
1.20044718968638
1.16603987729955
1.14642438761136
1.11819080131459
1.10162713960721
1.06950658991808
1.02214965124819
0.989965657668762
0.94947367680673
0.911428141957114
0.880107564515573
0.837413740412327
0.810774752666764
0.790963200953194
0.761872502502959
0.744917816829475
0.728622892347718
0.722417618667851
0.711114179872239
0.705406139573299
0.700557507707529
0.690049578429743
0.69064122889773
0.67947479923191
0.671086436724233
0.672620251566801
0.65398358770673
0.640996237167453
0.634592883394862
0.62596896320878
0.617299899081797
0.604085938448849
0.590479615099498
0.576841679009662
0.562418120710515
0.549130114748522
0.527118888258767
0.502255455040986
0.484410649131523
0.468890869618466
0.44760437646219
0.428790533687093
0.408130647255861
0.392601702648356
0.375422537634034
0.34996650156633
0.333298993595967
0.321138315298145
0.303315566908072
0.291577909937996
0.27892557728683
0.262893154828451
0.256295021294739
0.248103033293253
0.239810908239079
0.23241247582069
0.225616654760967
0.220625332846008
0.214011405345813
0.211246286344653
0.209172462060329
0.204570114542657
0.203167646329911
0.203551871341969
0.203799617306631
0.201396828949747
0.202611279806236
0.200959349248953
0.202622460502804
0.20540556064567
0.205595133652776
0.204391171681312
0.208571748063108
0.208692338214832
0.207165375590861
0.20945703007465
0.213858653820129
0.208007929786666
0.207723098938638
0.206051603005921
0.203970950772126
0.203718401828132
0.201230466440171
0.198703728089474
0.200963239282367
0.195295268822547
0.195793542796993
0.194889330960364
0.194111882405847
0.195441028176033
0.19728931223089
0.19438401721373
0.196137051228233
0.199342503086021
0.201361543951666
0.199910896336353
0.209360486840961
0.206664022199465
0.206552552512529
0.208099617260566
0.211931980101086
0.213913857123759
0.219277154034142
0.214678127232678
0.21616146614847
0.218878170692547
0.222594017077736
0.226423001756448
0.225933279142787
0.22435034556082
0.225048628692056
0.219926608154015
0.222862341028836
0.223999194686113
0.224256138870689
0.226680318177751
0.229258761598029
0.229715748936397
0.235511435977627
0.237183547768181
0.244990935901192
0.246082524263971
0.247916343305063
0.25914706135351
0.263231239723241
0.269117246659621
0.285201101101779
0.290096260452914
0.298498891952916
0.298798659265229
0.307818169636627
0.311788893618614
0.312963076610584
0.313731939786687
0.316002357707672
0.306330950203332
0.302941295127859
0.305084892277275
0.29613985037056
0.284149187021827
0.283839181922326
0.277086026629121
0.276982983182425
0.26559813876365
0.270746437052917
0.270605102143506
0.271952350198068
0.270173346117593
0.268293956938532
0.274034829038552
0.27146986916015
0.259505246744896
0.269126864559384
0.264670678273798
0.267154558156288
0.260399178622635
0.25597260016952
0.255167017077137
0.256496648381743
0.25862789725561
0.243868573018479
0.250129886214607
0.25101517372723
0.247005329463531
0.239791493463085
0.238988897646458
0.234672349425741
0.229428981250034
0.237703950972642
0.225210173748334
0.22865276996881
0.226205819520542
0.228239038095837
0.227595197305266
0.228562469847303
0.225994827756241
0.219688991469647
0.215446913948991
0.213288501822576
0.207575245706282
0.220633017986603
0.211990409747226
0.211572301966326
0.209331662241153
0.209120562458642
0.206426269528104
0.203871699679565
0.20268018937395
0.20642059556387
0.203212986653804
0.193351540952217
0.19572441804317
0.201274929005435
0.195568574938178
0.191915059876814
0.192023128636777
0.192290215986142
0.187742868620755
0.195601339426634
0.186278273035673
0.189915929514696
0.1872161761356
0.198671672172428
0.18727235744131
0.194322062115977
0.197015148725923
0.193566652955106
0.19061445580024
0.198990861181517
0.192579304215997
0.194829828521821
0.19440213809073
0.194395892098858
0.189668459489991
0.198122797507525
0.202055368947052
0.207983666809269
0.205843810689571
0.201560068838049
0.200125573880463
0.210727977264971
0.211366275558491
0.211155218270536
0.209119471090699
0.21733605355313
0.219987961575077
0.221332492530671
0.222737590476103
0.238648097287291
0.230555509055297
0.246271878805359
0.240576433562751
0.246861292277276
0.241319909255209
0.258187513436554
0.271347591433712
0.29053380266616
0.287108973085053
0.291175740443849
0.305300661553294
0.317988008212338
0.319012486682347
0.337500513788201
0.334316342624558
0.350307211274756
0.350967065273364
0.362084062944493
0.357304395559041
0.365732181780919
0.374716444280611
0.389650206481129
0.383155090795475
0.367888036336937
0.366212310130181
0.373552690101376
0.368046820039761
0.357402652714218
0.355033269529741
0.375229340573588
0.356289187365931
0.347594666103846
0.345227657907936
0.366308106859541
0.353807705689467
0.349361651673725
0.347766142844908
0.345294342429148
0.330218817196751
0.340849074422738
0.322877106714097
0.32544768817804
0.321432975159765
0.334552645718836
0.334351771929542
0.332762740979686
0.314696384394527
0.321167255002227
0.315977908332671
0.341595685310201
0.30957901833936
0.317244243902091
0.299553923300449
0.326958217070038
0.302308128936364
0.316893959298846
0.302759099078382
0.291629255082614
0.305562297014809
0.32353760691876
0.284059491777172
0.316350305448349
0.343730025053927
0.317215290406481
0.310563146845316
0.308344027809679
0.301596785208378
0.334813128024121
0.317340939286714
0.311304300088834
0.31525481540708
0.328496099192507
0.314597074561044
0.31580006155369
0.311383623825398
0.335841075849107
0.31954485936207
0.326655942242687
0.323928291784178
0.348282177010229
0.334835615458503
0.327187784593828
0.345717730737318
0.369426362234556
0.326594073381322
0.333747283821541
0.330381085925471
0.348756668514471
0.350216673178114
0.396533821775572
0.348066554673217
0.360858101956943
0.406347072042372
0.384757392570047
0.368680300345731
0.350260935555975
0.381692621377773
0.508286827493282
0.405252503995046
0.394495101273592
0.44118594136897
0.460543594324857
0.450016765946085
0.430028779167568
0.432219368327601
0.460973339452602
0.445532925762407
0.488731051586586
0.438643328721141
0.487239565080402
0.448831840979418
0.456189016912609
0.39025248818789
0.44761676870492
0.432184534106271
0.442789012969523
0.414242438975551
0.407655138873394
0.414265038772517
0.359109661738986
0.412574796471546
0.449991979791329
0.418753781567917
0.423403533421516
0.400884131621047
0.426032381711167
0.414931592045676
0.410422466095298
0.372132179474881
0.437540885387786
0.379101218442337
0.405052866369001
0.380171273440104
0.460297547757592
0.425294874976951
0.407382474526029
0.442860119697292
0.437647025661651
0.39721861022277
0.452927538437066
0.582614092865138
0.528473147221658
0.468532485576038
0.401336592044805
0.512075297283575
0.521960000108951
0.595002791636981
0.609069270281836
0.344536104432658
0.465727068207089
0.351054781466203
0.325163207991841
0.414207891332097
0.44272654201796
0.445972007257915
0.436001945726024
0.471384166154492
0.637288372862547
0.312374685572493
0.309358270180199
0.42415727390365
0.783620565594819
0.914067752943256
0.527516565555185
0.227037354589017
