3596
4000.36533379555
650.420452594757
1
2
2
0.0706363329238221
0.0841780759736962
0.0691215495934507
0.0844664910326227
0.0727150441921173
0.0802879907172167
0.0715138019652911
0.0849273389852182
0.0651838219797631
0.0956747818161784
0.0685593560550417
0.0775635752536996
0.0658519712276232
0.0846260812203828
0.0721794881379589
0.0852521905505118
0.06355413879064
0.0860300490172282
0.0650923012286693
0.0897472479859897
0.0698168143191418
0.0845570528872675
0.0735486002314017
0.0778738699665983
0.0731561907665882
0.0877958595906495
0.0716919461806067
0.0913498403264453
0.0642067759020392
0.0843305333834037
0.0629822657505182
0.0844304645939149
0.066882240973698
0.0899511996222621
0.0711918546429359
0.0933924192114386
0.066235377477539
0.0881309671192058
0.0606564962253665
0.0848676470944645
0.0743956532824949
0.0825623786974968
0.0760554151622688
0.0830440666815154
0.0647047412717285
0.0898748544072818
0.0660046759161281
0.0883677841122396
0.0713873534585433
0.0877899268423648
0.0761432055428719
0.081503903298224
0.0824836533059805
0.0917244715126651
0.0687814002558606
0.103496388874457
0.0748595349162182
0.0851626098794607
0.0613706946612544
0.0841435832435397
0.0953814605836176
0.104216371681521
0.0693158790737717
0.0861589859153731
0.0665587941387552
0.0863526323725777
0.0652980124539409
0.0952979615375059
0.0605590274648023
0.0805473238291219
0.0693802964150638
0.108248344871519
0.0804304923411869
0.0860862106353549
0.0736096744815095
0.0872817292856663
0.0675749021577707
0.0915967979576761
0.0589181004569368
0.10341694461764
0.0797538068663673
0.0889818101292818
0.0670496810221423
0.0698589830853944
0.0819207277228863
0.103400491940836
0.0583543752679307
0.0971367930869921
0.0859189132911425
0.102231111653432
0.0600297566378242
0.0888819868847885
0.064548112108234
0.0781322926345892
0.0641356685493608
0.0828305739355159
0.0656358698206573
0.0856614239651373
0.0590520417896627
0.101211368920152
0.0815245155834929
0.111445046852808
0.110803197845517
0.0773820787340536
0.135534849643197
0.0974006002046354
0.0759639261428597
0.136455961747131
0.0738624672608164
0.087380300509879
0.0632084662886868
0.0799520105038653
0.0627994182296097
0.0935465669692425
0.0510108728066951
0.117591545778488
0.0970537476314985
0.0906910336038578
0.0611471699807605
0.0873645608745486
0.0548261088440175
0.124818689215008
0.106889720242281
0.090582584008263
0.080863560267756
0.0879679576773808
0.0597676354960358
0.126639841918079
0.0948282232333595
0.0821159144653042
0.0704350193749853
0.0799621080551356
0.063228626378018
0.0734332453452697
0.104940575371122
0.0883423885993728
0.0744411230706212
0.0842268172426787
0.0929170344710196
0.148918972726096
0.0819600564863482
0.078106824556475
0.0583999596791621
0.0901766114485896
0.105848524766204
0.0923472460087662
0.0701169412100438
0.104060003058201
0.0744500481031561
0.0763625611709155
0.0668819959358769
0.0786547577432906
0.0910362987927763
0.0931122967887127
0.0380173004770683
0.144640189863347
0.129781126459968
0.11509844396287
0.136575389381271
0.0732906676125529
0.0815888547493744
0.0786000786967518
0.0776584054957402
0.0697928022645038
0.0673742660698749
0.0672996452679972
0.0827294237381047
0.110439300002698
0.0622847394786048
0.0927094562295134
0.101682763925765
0.0984858113477154
0.0566529763203553
0.165427668160372
0.0827416177034518
0.0853121007711369
0.104997338807125
0.083966792720824
0.0509887319341444
0.0914002076173014
0.0941934263768143
0.0736069512919219
0.0736690235483618
0.0729780164216374
0.0728133093500912
0.0934505056085691
0.0709249438067568
0.0759614217477095
0.0811030573830643
0.0615568254773106
0.0861615716888681
0.128754895116177
0.105981321686873
0.0840656264530544
0.0812857768411014
0.0487278582432726
0.111754680546899
0.111711704619344
0.0652379779999946
0.0738069855790914
0.0625742610045032
0.0759566540055727
0.0701631485876481
0.0763070405064092
0.0628363446946309
0.0618592404844772
0.118568979120479
0.0897482039493229
0.0699709687914222
0.0741106171667334
0.0702848416397397
0.0810044276957543
0.115950450506937
0.112609564779641
0.0610528343859301
0.0860819061241734
0.0637729916879501
0.0918952966763478
0.0909946936381167
0.0808836187859587
0.064179836705105
0.0752826381015991
0.0656095474044484
0.0802998677581869
0.0653793565255619
0.0835460214211594
0.0603714232906975
0.0777366053618035
0.0641700933308784
0.0786077892192392
0.0720327022650162
0.0770783766858848
0.0640353653176134
0.0785200798079606
0.0599701417842267
0.0887751913923412
0.0888393380513346
0.076241775018945
0.0635930060018994
0.0684997233582101
0.0691875508316469
0.0770954650632963
0.0620553775663171
0.0662902315265351
0.0661390508158308
0.0683559187767468
0.111403499307745
0.0757391263538618
0.0700752706326825
0.0613150080933741
0.0915377152853964
0.0873286776067519
0.0664559310787942
0.0793216580288853
0.067061491214524
0.0722561163510203
0.0672309223514367
0.116828335433179
0.0786109168037529
0.0808481355029333
0.0904538704060685
0.0909991932055371
0.0630685718496059
0.0836127933146621
0.0601780408716709
0.171617997533681
0.0881608275957198
0.0767825510240732
0.132385718561281
0.097660762207971
0.08529162125467
0.0838891246295021
0.0383461317424821
0.228410325003336
0.120892918809798
0.0853284566014093
0.0748028304714482
0.107088729040928
0.0667762682044817
0.0927375125682025
0.0800423431302065
0.102336689318009
0.107699664591819
0.124164560180617
0.144819082646596
0.0717022436601735
0.109750183854012
0.110627328319796
0.071420337392082
0.077622834862156
0.0671368954810809
0.0790794164096571
0.0882813783042676
0.102448455792728
0.0850918327954845
0.0925236143226024
0.0676696448787198
0.119565090991157
0.0709173355563206
0.0822279627140608
0.0724432064819657
0.0966945558456211
0.0581970111286152
0.0795624340995359
0.0640399881696585
0.0904425660627547
0.0650922115340253
0.0868262379278756
0.12814794059151
0.104420787091269
0.0720723546482577
0.125832891546074
0.068531693408086
0.089258457098141
0.0598687448760378
0.0755735105860023
0.0568035355622741
0.0693153689130116
0.0613234792145986
0.111176028143569
0.0738463001752044
0.0804896691129515
0.0652625141484295
0.0698404765599794
0.065368984457132
0.0816776188779859
0.0682185358635806
0.073723839821393
0.0713675481086159
0.0652424022144473
0.0879141405506421
0.118473898107797
0.0587833164477796
0.143004443906326
0.106405824745121
0.0790141935866806
0.079488690280995
0.0761874490223306
0.0696157517299463
0.0750101954464074
0.0681099099136996
0.0758450175514662
0.0748218751565498
0.102166807844612
0.0865218015006744
0.0870246829348853
0.0802088050665193
0.146751879432142
0.151108294489008
0.106276981097676
0.0866471474980851
0.0674497077586897
0.109750264946405
0.122210225572695
0.0929385684131753
0.127480828121664
0.0660118317075794
0.0928358283016485
0.0657917963296434
0.0899326998313288
0.0642301137864538
0.0950382370212486
0.0681838260583165
0.0931473619866002
0.0754982121742459
0.0932791711698796
0.0763924533751178
0.0914067588286409
0.121634372352757
0.110490422856745
0.0794118402518961
0.095113268921103
0.0715222013248846
0.134012412565972
0.123182755885807
0.149962973764334
0.132332154701243
0.134475226713121
0.1494674102673
0.0973068114168279
0.0982005434198832
0.0911035406657538
0.0895548884651156
0.108427161021655
0.0973814899748458
0.0971955905642964
0.0988913591020528
0.106547797665775
0.102936599142252
0.0992564705722666
0.0976953761246935
0.0992283579552215
0.118612498526941
0.106611171230245
0.10621247869761
0.114899836086258
0.12409927408957
0.186819569358038
0.162054287428143
0.133711304439495
0.112258855900951
0.130058010633648
0.104471601602585
0.128133197913545
0.108758101449248
0.12832252967743
0.112235394311813
0.170249863809394
0.13874203217663
0.14994750397903
0.147337428055239
0.123326013623795
0.153641379933769
0.147677534103337
0.152588087442652
0.180344765782932
0.131512453575526
0.144337805882228
0.148361528028985
0.172530515976911
0.138317084020614
0.189131315167208
0.130109514963679
0.153945642593439
0.13317548777677
0.158427853433176
0.147968917557051
0.167040024278521
0.15266325257827
0.173799457060132
0.160699188199012
0.164468385356812
0.152329468160851
0.197495462897735
0.164558812596422
0.168740709938961
0.174189655175067
0.167310137486971
0.165779363370782
0.170272274430592
0.185966413330983
0.208245701391923
0.179084004764747
0.228171434843722
0.175836748485924
0.201451817335326
0.173943424170387
0.20392876451997
0.18008727814201
0.193721431996066
0.188877163311319
0.198649614819359
0.188824393241475
0.202986705733927
0.191093775176808
0.221759882698586
0.197576407786603
0.211227414943738
0.208690614200852
0.217003813744462
0.216309303447361
0.217994905580144
0.225066545396981
0.279203877330644
0.262460296095771
0.283143921147546
0.237408093766776
0.259942833415377
0.22413816380706
0.24560858272711
0.22161172781003
0.266281297723563
0.238827540107152
0.261492302510834
0.230068105825504
0.258231391559289
0.246963193967704
0.271865373468139
0.253853166438537
0.283333288247717
0.270453908058626
0.27479457782684
0.260196634603646
0.29325725982025
0.267375119709504
0.303867745168082
0.287834604183457
0.318001195491948
0.296590015249873
0.308429051019759
0.283217432740548
0.295405617786731
0.286346948716265
0.304874120134841
0.288959930503206
0.31620239268538
0.303144128450919
0.349003640412443
0.310526425380112
0.318961019168654
0.30687880517197
0.330050011850815
0.313164080911018
0.346524644026277
0.339237524777957
0.353705511381159
0.337348608583174
0.374327626532283
0.333784793218142
0.343814436627375
0.346925190116483
0.390711029443218
0.359737968350122
0.377016891136573
0.353807935192388
0.393815570861107
0.364528600229417
0.38740741863942
0.372556599478668
0.390020550906319
0.371612007324627
0.401986014248822
0.39099321135227
0.411411705290585
0.385164748527534
0.422666038108599
0.407790193762701
0.401680805616068
0.380388779154109
0.417638138872008
0.410385191895349
0.419121797434307
0.398464913904405
0.444464733378834
0.427504580487303
0.441663720910124
0.405890175239497
0.429228694348773
0.434370459626885
0.455790222814102
0.437743764019514
0.453837217923991
0.444306256100533
0.480203753417293
0.451591621120678
0.459926421572035
0.452511507380078
0.484626572863243
0.467304243534977
0.474006726212142
0.469306374570933
0.515889156676444
0.485436465171122
0.51189327987361
0.48451889207703
0.502467586503426
0.487829255970624
0.518737790873652
0.502867564522781
0.499473961188934
0.483269980952783
0.508989376537672
0.509882601229194
0.551880619964757
0.495846627644049
0.530942706266361
0.519717402779136
0.511526104902707
0.503414953526672
0.548798246122814
0.523905855962062
0.558181504689317
0.542336125847595
0.555182109577447
0.538235817663878
0.557196999865336
0.541870761055173
0.592673835167178
0.558318867562887
0.588646578829085
0.578968115174802
0.583563544495705
0.566453559548146
0.60385779265705
0.583848641151027
0.594987761055176
0.588184101665106
0.60453561317043
0.576904942039406
0.619201268698096
0.61286253185146
0.629462470231335
0.596206258222885
0.627703530088953
0.613606154092079
0.614391904502745
0.619583059465822
0.635043149237781
0.612113984467429
0.645256855277297
0.596962578165058
0.635094700933926
0.630996831560592
0.639986522886168
0.623398425134952
0.645456435787962
0.627337236831728
0.66992535743112
0.648676977234414
0.652167562552143
0.639904023670996
0.672894787464246
0.663906066897304
0.678529609055417
0.676816921831307
0.703841102844487
0.662968868999569
0.676769650518505
0.662772802059426
0.696950178162568
0.679421566176755
0.686355811888415
0.690366772037835
0.719270963644209
0.669202236023516
0.691532445429679
0.676205756887037
0.70605073627624
0.689375669071175
0.689689189737573
0.68217546514866
0.723269159683762
0.696881808563418
0.721719339199242
0.71154324170348
0.73456242757594
0.730981924694884
0.747805199602938
0.683463075922629
0.705460731252916
0.729158839164859
0.718958425250089
0.700299389136982
0.738762458981254
0.75439553633417
0.755212037561352
0.736281087957589
0.746341869495472
0.722938797421023
0.740945078160176
0.740562507192508
0.770709617765443
0.751504716914826
0.762903004493028
0.746349395933193
0.796896319240295
0.748308353228263
0.776903147509985
0.762559760576773
0.788033567705155
0.743229175108743
0.761662724213115
0.759287445488262
0.793443440190585
0.764555929737311
0.787654961650791
0.781935034624432
0.767837856837872
0.761178093873776
0.789061646334267
0.776837512255426
0.809737161212629
0.775931963136992
0.787142662986206
0.755842903753149
0.801227030428904
0.79910695599796
0.810518442574007
0.768679956957067
0.770936855565635
0.795591239277709
0.820524040028452
0.798639860382391
0.805949079602949
0.792560570463505
0.818223299180717
0.794773753451739
0.796817559877754
0.809764523488897
0.821634232649164
0.798057997238174
0.820458350231986
0.80398788809204
0.814663381306499
0.796878103559375
0.790458115481465
0.782071123068222
0.869685467010583
0.815074607598151
0.815202977541349
0.806615743515476
0.819858095529236
0.819403580599905
0.802697392688449
0.793622319134574
0.829601663989126
0.82013087354399
0.83894201709599
0.811914467521704
0.844484176075067
0.816384418051596
0.830056908536393
0.817328739935673
0.81620585363447
0.84467853046693
0.828173885276296
0.792351708123834
0.848541749109545
0.838759436449166
0.819447442075751
0.815987009674021
0.832251140714218
0.791573418168048
0.824755546544152
0.828290838034649
0.814759637731962
0.813502638058117
0.816825711151285
0.799497069916829
0.84131819953217
0.832300796369561
0.823554308491555
0.823889887600902
0.833843684244079
0.816558601080952
0.821713204122216
0.817466865148937
0.812787523172155
0.805544659964881
0.81589741204408
0.805218753791601
0.816993084775319
0.783826223582847
0.804170324150074
0.808471020340451
0.817369685110793
0.822406720422727
0.833008478232479
0.808585828592559
0.812859188506449
0.811915162304023
0.813475150900517
0.793746248183713
0.815558254328269
0.814954851362003
0.824085837567266
0.810399794404541
0.826279295799432
0.80857367297407
0.803859684727142
0.808147056937636
0.823394897100525
0.823057076119978
0.805993150767898
0.798774132161888
0.826273642398245
0.791112437951744
0.80382615451007
0.811228707034586
0.826836295453481
0.795056736302986
0.798601139539562
0.806382682688668
0.802478460249116
0.793490224663353
0.775789573447003
0.796451149462985
0.809589797819886
0.78646593762857
0.806008461422319
0.795092082114268
0.791001150537721
0.772876306356409
0.813927004853628
0.776278551971257
0.777175100991979
0.796540250269113
0.783253502238141
0.786987533281709
0.800679552031646
0.787569829389605
0.796383505803327
0.775556007420101
0.763574846211674
0.770117177578558
0.776809307537239
0.784875987994237
0.779645925608582
0.751393934591895
0.790326401554952
0.760915010317133
0.778529712827241
0.773757741878447
0.750025600046578
0.749982903801243
0.759080169503418
0.7477164690258
0.74370397853947
0.742263338712169
0.761365245732051
0.755822939238398
0.76554791527872
0.736951750167384
0.736097574398645
0.734861528762654
0.746797961802115
0.738075504640095
0.733897474268864
0.738618653131994
0.741599927262054
0.729765152578986
0.724066774840812
0.717608775735742
0.721352982882712
0.719999399062394
0.724686582772675
0.72537700699852
0.745301637840843
0.719905311423063
0.703825917090832
0.704874143228835
0.705129329707212
0.705588459683968
0.707642358156059
0.717263144191972
0.727251747090822
0.70742779362389
0.701062402464164
0.705504437975825
0.71521331844047
0.694946517224141
0.689040699450419
0.68003984844917
0.676008866881632
0.682739628571475
0.69480037018616
0.679846378883569
0.683617642543235
0.675098400601927
0.674125613115376
0.675826814860938
0.663172039965445
0.65935673681362
0.677493021607801
0.665040246123588
0.667264252128882
0.666961276294791
0.659009219147863
0.644926632760776
0.64696951162242
0.646734031881197
0.652118011179389
0.639861868013815
0.641772981459247
0.635109716747032
0.627716774087882
0.624385181132543
0.640430690036685
0.619975834895914
0.622840220003169
0.621577608311051
0.614838979616865
0.609347582800879
0.614498140652018
0.615972209301441
0.619124262725762
0.597334524312612
0.595936386178159
0.606630987569381
0.603852327571584
0.596077450731529
0.605324310832566
0.591483872043647
0.595022306391915
0.587646660655606
0.590808023155436
0.577383508961186
0.57008838021527
0.574697259812907
0.587298017249266
0.57436590316724
0.570386978455862
0.56409832929905
0.574195628887625
0.566211869270051
0.554056313267451
0.55880231590556
0.551519459599986
0.553602815104644
0.553664872219451
0.545589588813486
0.545872984113341
0.536509621256534
0.535539808672625
0.533230058589687
0.534046713514159
0.530678056634208
0.536266651632949
0.534502771955802
0.528681314333894
0.515988066210531
0.524012810618676
0.524090525509952
0.518241184675139
0.51440350160311
0.511575993796717
0.506821508319532
0.505700446104547
0.504056521883057
0.495651225397265
0.491788500802401
0.486451322049674
0.480231256092543
0.488577700873041
0.487891474314034
0.479555517885941
0.479008800422714
0.483936414927031
0.470687192366943
0.474584623077408
0.481168364574459
0.474610990403134
0.465344681064526
0.469537488866054
0.456711248377085
0.46590774521854
0.458845321376402
0.450109781875658
0.453031782719438
0.453900910511283
0.446826084290045
0.45296328837294
0.440560064084984
0.435963599142257
0.433969897847525
0.442769574806702
0.440856875648547
0.435367103994517
0.436330620972514
0.427478712155524
0.42747169047459
0.431703459205023
0.416873843442329
0.428987965836684
0.418571787719074
0.414790654208115
0.414108539043035
0.416955597377364
0.405826029301858
0.407952448987781
0.404601504404106
0.405486905341938
0.403674921555037
0.404160773405927
0.403245134873744
0.397746238306382
0.399026584399326
0.392221756797082
0.384071255354107
0.392526251680325
0.391271796119374
0.386044206533315
0.382418297909547
0.381910619322767
0.38468037909565
0.379854790078473
0.377567787907069
0.385464670935948
0.36825121837159
0.367401075561024
0.368456632849857
0.366969273855521
0.365138460789371
0.365764971037927
0.362745351155651
0.364225416935486
0.358426085887
0.361644565330532
0.353773251905965
0.349881955246729
0.35145610329263
0.34971601657894
0.341404567090979
0.349256899195531
0.349089387667874
0.341007373184356
0.344439304399889
0.342132107705929
0.330841013470519
0.334803649860986
0.332038457279394
0.332741358213899
0.328885946148413
0.327928342600184
0.324930006052733
0.32836050353104
0.325597188252903
0.325888844935317
0.314798640035596
0.31400949142719
0.315351920571094
0.310914860845072
0.314183500379193
0.312974161019599
0.31210979495988
0.314216923692322
0.304970127071403
0.304092224095538
0.305836894818129
0.297873416961434
0.301476990462775
0.299662579878081
0.295960340223014
0.290094992429533
0.292917144010946
0.297703735602333
0.295913701305187
0.297985216278105
0.287242726756324
0.287786294773374
0.283897497075452
0.289068227029102
0.281501510773104
0.282343045882251
0.275368976991633
0.27415160685717
0.274101446190696
0.276109338487718
0.275109401734081
0.273773250471621
0.268356732433778
0.273875340532216
0.265565735161935
0.263879126819173
0.261049056008183
0.26164144767367
0.259818743920111
0.26147541896189
0.255356932437902
0.260320704293444
0.257398577094099
0.256451955298844
0.256386997093485
0.254046477289462
0.250225678135493
0.253579105713331
0.247449414182862
0.251130033743363
0.247698378457599
0.249298312406493
0.247900051409507
0.240232758248884
0.245491727800778
0.247739907964589
0.246692552462196
0.245478990414575
0.237213881706261
0.237743324908815
0.244023617377671
0.240127167630005
0.240682205538344
0.24213205159157
0.236911707212391
0.234792640577929
0.234683479782721
0.237893890904521
0.238401723374136
0.236079019868475
0.235584892510425
0.239326468611919
0.240480494964596
0.237079324671197
0.239238811641048
0.241686485695143
0.234220685448768
0.240409606004653
0.237898330563524
0.240357032157821
0.241387064149205
0.241193517566852
0.240761731077891
0.240734800427755
0.244227470289765
0.247941151791724
0.24234028009925
0.249906735635551
0.24778534543018
0.250415019397092
0.251439408949588
0.25621659110559
0.254979637321672
0.250150909335797
0.255906626602782
0.256444102838242
0.253440594973864
0.254635020657001
0.25897629826806
0.261008007907009
0.263619050247059
0.260323146760101
0.258007241584293
0.265032744279484
0.268314179269105
0.270041696096798
0.273155069091934
0.269827908465627
0.276144497663439
0.271680811797787
0.27050514921041
0.274374849131568
0.278155168915787
0.275638888747856
0.276654027865342
0.281809131460215
0.281679016776034
0.289018632929923
0.283736585243515
0.288458465964867
0.292013016680116
0.294714884801604
0.299572488606532
0.298809839114927
0.299692667626007
0.308062503123405
0.307003236875604
0.309829192286006
0.312576689024739
0.314249219236581
0.314071001393834
0.315393842029386
0.327367050406369
0.321316228735357
0.32291818717099
0.319611739584063
0.321475545633206
0.326530063036284
0.328840406952912
0.329355188653463
0.326910103682106
0.331993646801205
0.327698908715875
0.326211427081568
0.330900368839974
0.324679100179132
0.332222868759681
0.328124126202831
0.325212938026513
0.326560748677171
0.323380136527999
0.326827857427422
0.324021353291463
0.330402368403304
0.323727094738569
0.32285933430558
0.327700863592693
0.330937830406155
0.329474650774382
0.328847660744872
0.331291300553853
0.331263319803375
0.324045595463496
0.328210744280772
0.327140858288253
0.335299304072329
0.327142826020436
0.326447491231235
0.321526318467155
0.325709956130519
0.330857704510728
0.327015398503625
0.325328852749278
0.328448119182525
0.328299650970826
0.328573546197006
0.332565507963252
0.329764096483597
0.33252324507605
0.332484361846983
0.337068756437355
0.330921628724722
0.335380683882859
0.3305264099485
0.323995075860084
0.331554072640506
0.330564629189153
0.333422089060599
0.329650077565936
0.332800138905581
0.32855239144407
0.326414907675972
0.327844939227362
0.328088947496964
0.322696481977908
0.323367585126351
0.323639756822523
0.32611502061859
0.323885739145977
0.317426504295281
0.316999962356659
0.319974453166816
0.321702626327258
0.31846348970978
0.315188984270463
0.309992286082756
0.31319620063266
0.301815195585672
0.301687224847592
0.302576208857161
0.299854171650351
0.295996065268622
0.289988460612598
0.294447258332071
0.295921830047865
0.283964496401688
0.280829181975495
0.280738407497672
0.277727001872579
0.277810070111454
0.273852023864201
0.272114391012278
0.27465555517664
0.266606278097202
0.269271801208527
0.259120668619771
0.254576972956849
0.255406715701739
0.259451225026886
0.256614949392914
0.250101645157411
0.251309989206128
0.251490093413544
0.249921899761339
0.248782202095549
0.242606180248803
0.238234377960907
0.244717671106741
0.237134901329153
0.237648475572515
0.237426182990965
0.236470378078531
0.230128559284657
0.231278789418654
0.231608209597994
0.224590447986462
0.226389447328651
0.227076556525367
0.224754379058609
0.225340804458686
0.225499088252691
0.220744778828289
0.220882564015324
0.218596403717055
0.221656204613329
0.220156367473634
0.218677096261344
0.212975136339945
0.215223458105865
0.21569501576727
0.213608366445252
0.209785386699732
0.207303679389398
0.208581069647539
0.208484831516331
0.208286014064649
0.204426035038201
0.206353387635746
0.208185547656141
0.202681850482574
0.197353442270218
0.203245904719223
0.195091926869155
0.1974836015462
0.198677783752713
0.198497160645325
0.195081315154923
0.197651130448865
0.196347204190295
0.195043174131545
0.189496930816603
0.192796846887376
0.190868005491415
0.186867684099316
0.191277764965381
0.192044541983636
0.186348017035924
0.183546166082578
0.188909178957942
0.188216209070565
0.181502918103845
0.187898000812301
0.185802485231537
0.186913833959347
0.181443460846127
0.186923450599706
0.177060013722712
0.180214998354574
0.179007600014332
0.182684283503485
0.181184841995319
0.179207342885682
0.1796599237814
0.180012109998166
0.177660475271178
0.176206121072622
0.171981310310149
0.17703268299946
0.17654677872446
0.174972497793465
0.172533303728319
0.174392772274849
0.172065264665466
0.177186646486249
0.170941969108737
0.167747838046993
0.170811528614697
0.166936122226304
0.1722098370428
0.165524985021447
0.169902052937862
0.174194445019605
0.167496771213844
0.169073637402796
0.167889396614431
0.166036216844234
0.165639165155381
0.167064790603617
0.16524934905289
0.16790903288161
0.16104594633565
0.166130335976265
0.163254950615615
0.168799137478794
0.166584076364402
0.164032307688456
0.162781420040872
0.160766637862115
0.161984220115475
0.158757743260832
0.158957654633359
0.159936664738575
0.159745299985854
0.160986982821109
0.159148722859839
0.160622281691391
0.160663525735026
0.159058792115075
0.159294226323016
0.158834856752759
0.160083794164327
0.159960987920522
0.155403424625395
0.157094872977981
0.157575873675341
0.157336640141369
0.15690748306433
0.155861572100056
0.154506401137687
0.155697162418902
0.156298552063482
0.1572465081461
0.152183384066001
0.157047690740649
0.156285181734973
0.152687582405167
0.154518592430372
0.155476760438995
0.156058835217499
0.153253744393326
0.154411458143614
0.157089438498839
0.152237166670506
0.153774834056335
0.151785967622512
0.15252250644325
0.1537004373039
0.149706789391552
0.150644764150034
0.153907290480068
0.150283948706984
0.152005400549318
0.147424400334222
0.144415736370308
0.146054765372749
0.146649667876379
0.146074219960334
0.148199236085417
0.149011431384277
0.144700688494875
0.14259407520713
0.147917051593119
0.145273116416178
0.142496692439291
0.14577664647774
0.141215604333356
0.139178565869001
0.142507395030228
0.138688789091907
0.14239796725427
0.143434837682949
0.13810109378501
0.138012083079305
0.14236305346269
0.140474492096927
0.139927164986139
0.138425909294999
0.139025752023025
0.137228349233487
0.13917839877252
0.134376937411758
0.136390131431971
0.139762470846724
0.133862238574418
0.13485196857397
0.133750296476238
0.1316737925277
0.134546247256399
0.132892112629733
0.13164874306547
0.129090039548143
0.128536949835365
0.132232918028534
0.134565552118383
0.132883479676595
0.130512901567311
0.132058631809514
0.132834364553117
0.125337664736596
0.131089623616882
0.127901125728544
0.130674301675191
0.128266865464005
0.131153684538973
0.129010700881401
0.125609829592331
0.122134414389229
0.124959474504665
0.124179479481245
0.127393100416856
0.123579493927459
0.12232213631821
0.124648391536218
0.120688665128771
0.123797888497986
0.120941120010782
0.11960052330773
0.123036503040174
0.119727126258757
0.117059334823336
0.119658689111839
0.116295744007809
0.117408632543099
0.116307519630813
0.116888718347302
0.114811899440603
0.115428352440801
0.115124113489739
0.113126051267863
0.110511271639028
0.114942538684174
0.113831159538258
0.108289353101081
0.110087416119643
0.110068616583369
0.11038513047976
0.108756164786344
0.109698903347845
0.108684332623632
0.110043184639818
0.10775304005229
0.10919270194722
0.109536145656701
0.108180018442187
0.111566804731418
0.106928144380049
0.107004040282649
0.108895035194476
0.106414250367862
0.109269157703745
0.105597698191209
0.105412487239763
0.101117095428328
0.108591163638604
0.107023111303378
0.104298521632154
0.102056035487496
0.103625683980537
0.101582827927506
0.103444529352812
0.0978377623651384
0.106784985112064
0.102806754156215
0.102590347941824
0.100615646983094
0.100640729130721
0.096785717582142
0.0991863360891645
0.100391671225534
0.100455827400823
0.100443571537507
0.0962150163065028
0.0988926266230448
0.0970190676138955
0.0976011966481657
0.0986413271866796
0.0967186060788062
0.0968563901114089
0.0961825994601513
0.100346539972851
0.0966333651987966
0.0945799580576797
0.094189285340948
0.0933837342006747
0.0959753273878076
0.0949727806109533
0.092041330492596
0.0968088013220889
0.0916057797664684
0.0932155830280106
0.0922806998213048
0.0928450920703478
0.0917933994413722
0.0971695924086182
0.093810735483361
0.0936139412669068
0.093825659902303
0.0951991916350993
0.0901628741554927
0.0935946482797661
0.0899000006746692
0.0936874840681329
0.0882357301289022
0.0928173565571458
0.0906774002914903
0.0914890037118492
0.0893363657678341
0.0919360313289923
0.088003223967315
0.0904708851471591
0.092689029209536
0.0896397720597904
0.0917091076555163
0.0916582152556398
0.0888519430993892
0.0915468306880703
0.0892381822887874
0.0880619236384422
0.0881231635948856
0.0899440247638646
0.0900890562305848
0.0885751138859889
0.0880655215475785
0.0902465279369824
0.0871150662066519
0.0897017970518121
0.0869564878756836
0.0865293370059101
0.0871321917252063
0.0869597305819488
0.0841411727067251
0.0887203762433487
0.0877239186003207
0.0854478441764722
0.0856563601673387
0.0851470221231679
0.0828959314791111
0.0840487895538651
0.0856030796365299
0.0842512995810989
0.0846447009989377
0.0864950317160918
0.0853044231548652
0.083816491344789
0.0805867013319566
0.0817677287596742
0.0834254592218028
0.0833769857653336
0.0840730689490676
0.0830043355565893
0.0821843975620551
0.0821498984606988
0.0793819600786774
0.0811642084865429
0.0771812814724882
0.0810710623555521
0.0820763794826231
0.0846706043635988
0.0803076042632176
0.0801872802483745
0.0803055396234303
0.0846462062917988
0.0777050919867816
0.0795668295061734
0.0812316961937413
0.0797744828289302
0.0799070845187181
0.0783627553899821
0.0787417786108375
0.0799754347281841
0.0821538743423218
0.0807825467063421
0.0784071261818627
0.0777806443227723
0.0790927592337222
0.0784434214959045
0.0800175695428752
0.0771337213852268
0.0784615296782861
0.07746931718536
0.0771550991902467
0.0783448864218468
0.0763016638351018
0.0790675440547498
0.0789943142145024
0.0772981539004388
0.0749835876749404
0.0791223969882937
0.0757175509665453
0.0758942630051882
0.0731928770282993
0.0742054974538913
0.0755986580887426
0.0751323637798735
0.0733249293261279
0.0745711644768988
0.0741168878692594
0.0712132034589762
0.0694186085345155
0.0716460570853012
0.0723802938803484
0.0736335278005649
0.073114079596165
0.0754836592246113
0.069888059521888
0.0708168091839371
0.0714112733840481
0.0707593231303446
0.066411952441633
0.0703963469310837
0.0736675133632041
0.0695756902416483
0.0680462502368473
0.0698278860739523
0.0666125995854004
0.0706060340005792
0.0670124216392298
0.0687928211659747
0.0664551558163901
0.070502090510819
0.0649064547835227
0.0710373789187759
0.0650718635188812
0.0681057118277881
0.0637236825411529
0.0670283516126729
0.0679804876029466
0.0656657784558657
0.0661187833863348
0.0664636749871863
0.0625880363217298
0.0671064127919676
0.0643795809387287
0.0672986661553294
0.0645097077005355
0.0663066518770294
0.061808476072756
0.06453907639841
0.0630452372301099
0.0685139662669402
0.061173158106916
0.0662778181302543
0.0627272238437581
0.0630747116743557
0.0632471993784504
0.0635430877496712
0.0582065690013156
0.0639160859426483
0.062716092964855
0.0638472113952045
0.0617942744609773
0.0623011773827426
0.0601535294758151
0.0609027802264775
0.0612909591789784
0.0630829441247806
0.0600616785502324
0.0618028664326684
0.0605841317166437
0.0604690076230213
0.0593547948112092
0.0592685010382369
0.0579903927683539
0.0613732792734639
0.0586986226360846
0.0601801901493226
0.0593206374253359
0.0587040460584474
0.0586201968733258
0.0581155709629793
0.0555436750608356
0.0607779578808501
0.0553098248998509
0.0596722852625494
0.0555504863648197
0.0586888761363484
0.0553952560183106
0.0588171742795515
0.0566735147083737
0.0580573128579757
0.0556780016591072
0.0585311338144704
0.0557245970357424
0.0569489119978462
0.0537682946892179
0.0571033004652026
0.0548440709752618
0.0585358571681029
0.052106483944634
0.0564814171911331
0.0535187033841639
0.0563309154864553
0.0538361990512235
0.0581677388103259
0.0536606739194178
0.0557935582398013
0.0539260001629354
0.0578052679819968
0.052576004483584
0.0586441752708551
0.056689446542367
0.0591434772112541
0.0538631660620992
0.0594739436978543
0.0544402641964829
0.0589365008926553
0.0565505579905999
0.0571916925175414
0.0531181734127312
0.0579929852354797
0.0514323261096139
0.0530765222671188
0.0371995530498668
0.0468892058327283
0.0464031702199464
0.0531996026944091
0.0407334166469508
0.0434860800314363
0.0418138370953733
0.0514580611857995
0.041245243361979
0.0543645111822043
0.0377829138251285
0.046358032791333
0.0440022805656577
0.046558961359228
0.039736159413449
0.0518804040539119
0.0395992037866963
0.0554230035314914
0.0395559513196371
0.0598646892659304
0.0456881487767016
0.0572315622881197
0.0410833387082216
0.0571303687874287
0.0380620769097124
0.0549805604098644
0.0407830597613483
0.0506394872729555
0.0384752707391655
0.052699255423511
0.0352429038651975
0.0548242760835559
0.0416569746229856
0.0571719538846346
0.0400852487518712
0.0531818760958826
0.0330237353784511
0.0441855652730359
0.0346158059163027
0.0462729506741552
0.0470629279618874
0.0555284994113349
0.050050099294497
0.0420836091755798
0.0440257576732098
0.0386114529457378
0.0651290495461334
0.0422045251453014
0.0598909350652232
0.0270105075407568
0.0746516529954191
0.0297052045677246
0.0713967075454541
0.0153929926956523
0.0856502395932983
0.0209366806857828
0.0775942613252898
0.0220916969881424
0.0773495515039001
0.0276467880650967
0.0709283193658671
0.040296075305376
0.0588947638897218
0.0459461640137641
0.0509874239059065
0.0547276430285779
0.0449527616751358
0.0537822714828325
0.0452194965173553
0.0527366321839514
0.050430083549405
0.0446945529217156
0.0521746522283019
0.0452665303877754
0.0535158820738404
0.0445392380926159
0.0520680590532167
0.0441251148776451
0.0509233624847096
0.047491646730765
0.0479987249336809
0.04698442103117
0.0464303285659097
0.0455318078081433
0.049527131792742
0.0443125550274082
0.0487067234655725
0.0460000732645455
0.0496373578919968
0.0451646166820566
0.0467028144149913
0.0441306473661365
0.0482146007251079
0.0450538969766352
0.0486104559846825
0.0451469772255002
0.0478957644682182
0.0439755357050617
0.0464833335817478
0.0448334865353062
0.0471811749180891
0.048401770442109
0.046359993520515
0.0459523957789591
0.0467166611313733
0.0451431766436414
0.0466619794150014
0.0468671389025301
0.0460747270653112
0.0451273485180902
0.0467877181782446
0.0457156181688588
0.0477187352095236
0.0421311087553116
0.0455808933815474
0.0445917526901379
0.0452187875088872
0.0458301625618994
0.045797371390409
0.0449602837051899
0.0461489245786189
0.0439962309358926
0.0448073581039504
0.0459040793557293
0.0464996889878292
0.0457061952458835
0.0453836092324021
0.0478949319771845
0.0446052874070078
0.0443245392845858
0.0456505832584267
0.0445693332719809
0.0453791633723467
0.0444218887099033
0.0439125095544523
0.0461359914140263
0.0445017743520868
0.0441999705296307
0.043866281635495
0.0464311809972312
0.0452487359025506
0.0447448821145944
0.0439651260505107
0.0448980061002579
0.0479768686017797
0.0425008164366857
0.0454411597769781
0.0459040691173736
0.0440138564550175
0.0422334327036667
0.0431269958906007
0.0443545656113017
0.0437444266738024
0.0455088319588509
0.0470172591560476
0.0451220649054403
0.045499330345854
0.0467671114506631
0.0452975256225659
0.0453491127376933
0.0448372815222736
0.0464783265834241
0.0451362494443157
0.0438765626170225
0.0453736895658902
0.0430098087948625
0.0452221201000476
0.0446030958785535
0.0450783143100822
0.0458323266701969
0.0457560488658711
0.0460105062622631
0.0466092287124813
0.0466164287555224
0.0454039078639513
0.0472148715957978
0.0475220305970615
0.0446878001019645
0.0461882971327049
0.0469348024259838
0.0462773049942029
0.0447950310484235
0.0429709193208934
0.0464798141679269
0.0479467650124253
0.0458177916632158
0.0463827712919062
0.047062997525334
0.0463279554092087
0.0457555184220376
0.0457341048554684
0.0465843144766854
0.0452483152340355
0.045660061234584
0.0436875105644005
0.0449568104665291
0.0438720066301009
0.0439349775432015
0.0419647864773843
0.0433178378951377
0.0444860557375131
0.0457075558631977
0.0455638346826184
0.0467483554501746
0.0437631017349397
0.0456040524659689
0.0442520656325776
0.04619209536153
0.047088332946653
0.0460655641750598
0.0441831717873357
0.0462743067295677
0.0460272579593398
0.0472641697821128
0.0450224458703396
0.0445001282128463
0.0463001621745817
0.0465800278440816
0.0463432890264572
0.0459586050600961
0.044669351359105
0.0448017145532722
0.0460525410217351
0.0476791612358168
0.0455226800042241
0.0460405544855978
0.0442891059820308
0.0478901526533225
0.0490767938330736
0.046853886584934
0.0462782883343586
0.0465216647218771
0.0462021178902781
0.0455575648925148
0.0459811859224908
0.0473801734911285
0.0445703451990922
0.0488661618032336
0.0463323497267814
0.047601766927374
0.0472681963186682
0.0468757147634989
0.0476825120078514
0.0482854256231835
0.0454444314232334
0.0440458608381572
0.046167345186456
0.0457439839982166
0.0445600068112851
0.0453167314260758
0.0463742828946713
0.0436581123708275
0.0442942974023716
0.0451579249090609
0.0434331755145691
0.0428543151103005
0.0439356068788537
0.0449850298762793
0.0434640960384515
0.0449685522489902
0.0432130453095998
0.0443318231234229
0.0439844740171501
0.0453122265158904
0.0439363643932702
0.0465853822225498
0.0431021062142752
0.0431926031453293
0.0420183800561822
0.0435609209042549
0.0437909293082592
0.0442010745627897
0.0427159300841738
0.0445537612816427
0.0428240212883812
0.0438606692126438
0.0430343038776014
0.0428880730039354
0.0432349045279069
0.0431710192587274
0.041259156103172
0.0428233056070867
0.0411531050677036
0.0437571114270319
0.0417344040610162
0.0427993803794444
0.0427534458351696
0.0423631209627254
0.0429355732586364
0.0439971798485878
0.0423181770770545
0.0433734489486719
0.0410921528971718
0.0438293759043386
0.0411088314924541
0.0446898794871243
0.0437973005554306
0.0416247587677482
0.0425337129198743
0.0435413298741438
0.0416992408294696
0.0424730653388796
0.0431231617882297
0.0415018898703915
0.0409218242392252
0.0414341115519952
0.0409717009542942
0.0435966398113472
0.0423871760093208
0.0410973607555566
0.0416632423407723
0.0439725954936864
0.0409096450451696
0.0413274293215667
0.040984985433681
0.0434021324681512
0.042433828094862
0.0429945410342896
0.0413179869411132
0.0425361096798665
0.0389686224295139
0.0425767939271236
0.0416526518197337
0.0392099281503714
0.0392107575561844
0.0441815891319805
0.0440188140501326
0.0449472330519038
0.0396298176860435
0.0422115350430867
0.0415464917154957
0.0428605580905928
0.0421017250879222
0.0406220132180481
0.0400553565918792
0.0411328682165766
0.0387006805624463
0.0427603767682467
0.0412664561595224
0.0404167405601397
0.0399239838098674
0.0409252147459797
0.0398056579063157
0.0419824780933961
0.0420438719041254
0.0420801977079091
0.0404068260483121
0.0399903334309379
0.0418750343501509
0.041183603408243
0.0395896414349151
0.045392144786713
0.0421199611060136
0.0400040122421693
0.0417972717291959
0.0429287235767696
0.0401661825595773
0.0397282720986876
0.0409872483335209
0.041000196320732
0.0373260229686739
0.0401932065181506
0.0395137342679091
0.0392539240360846
0.0370121217589187
0.0400767758407511
0.038805052733548
0.0400444015090377
0.0388743242465279
0.0408626386166178
0.0392461292566159
0.0395289918591453
0.0389774154661242
0.0371414771468538
0.0390372698520487
0.042636117182277
0.038884951924249
0.0430250117591786
0.0419188979299014
0.0439657831704707
0.037123344426452
0.0384994888281739
0.0358236657851035
0.0392505815508515
0.0365359910881589
0.0397665824597036
0.0382524395677085
0.0379272336799304
0.0367521543140756
0.0379664770534471
0.0351027541392501
0.0372920832964558
0.0340051385942358
0.039399830279806
0.0339466899261498
0.0362929561935582
0.0370542073969154
0.0410008720420811
0.0355987614060473
0.0383913417723882
0.0350086740906336
0.0404335768978965
0.0323800736964571
0.0394117110767585
0.0406911774658706
0.0512108825739898
0.039330523069168
0.0383579556105049
0.0399545656696576
0.0400757866590331
0.0380752181967173
0.0368335485372172
0.0367094919313321
0.0353150335701137
0.0352610285228526
0.0364196068167635
0.0361283592785182
0.0376058276163333
0.0354324620160645
0.0347363299220027
0.0336825273225811
0.0377864087240681
0.0333387736864471
0.0358880651049124
0.0354844471681903
0.0360028502516279
0.0344753093574265
0.0364403007641597
0.0334700778362301
0.0356536155447279
0.0370535252114513
0.0427293812626502
0.0416454490166278
0.0370090172426837
0.0356182813812386
0.0353373156395035
0.0356517489667521
0.034299515129158
0.0356947162238033
0.0337032748927042
0.0340143335032925
0.0361247639391148
0.0337020614777095
0.0336694893665981
0.0356158350067323
0.0386205615948795
0.0347081987968472
0.0343323199168021
0.0348882204811486
0.0363846438641912
0.0365730623110882
0.0333073549630964
0.0342978293146642
0.0342420632798231
0.0370552784201293
0.0353708851446905
0.033110045198865
0.0423043524043784
0.0527966328923931
0.0419676823704117
0.0320063243917357
0.035322828345086
0.0320355127790996
0.0354598122548154
0.0329855480884339
0.0357848128592325
0.0317541107624564
0.0350582825783261
0.032709370164309
0.0325688662229887
0.0343644652697003
0.03695477007126
0.0300863822280709
0.0360603774972273
0.0330202697954431
0.036765017357309
0.0315148304606201
0.0351136981597072
0.0403704721736928
0.0494930632662842
0.0394324533577079
0.0365004173202682
0.0313163919747172
0.0377435176286391
0.0444618618035133
0.0506086804914293
0.0267325989467877
0.041690348795504
0.0306131466562459
0.0371294961299787
0.0294357045219878
0.0355047267556146
0.0343575816756429
0.0415415143117318
0.0352121866649472
0.0388807621840711
0.0326344316907848
0.033748004177786
0.0308558929217835
0.0338849829138995
0.0332462353417712
0.0340993938222426
0.0314452797280633
0.033755663340594
0.0315040728891411
0.0360453075784749
0.02897195110313
0.0354391987954908
0.0361142978862286
0.043652454236309
0.0316097462929946
0.0358494835703865
0.0283251415052517
0.0362686239159597
0.0422662120861238
0.0469437204570751
0.035625239753971
0.0331461789794758
0.0342646650170081
0.0336867553164401
0.036054851134399
0.0330880257390055
0.0334790900488058
0.0313478408880132
0.0311872375278833
0.0346083610883713
0.0341178537400231
0.0344330334063982
0.0339929750016684
0.0339934466342426
0.0322977408700119
0.0329297816577039
0.0324578430698881
0.0352780564578517
0.0327634182592555
0.042387368932498
0.0464164787798848
0.0647103222036914
0.0458351655838665
0.0475047445009485
0.0374162397749914
0.0362692078633631
0.0321662249036796
0.0325961003293114
0.0321970818242222
0.0342025495261223
0.0333657840221739
0.0344285868858687
0.0355081964515278
0.0337910098333538
0.0325550602654071
0.0317597028568169
0.0300196630889375
0.0313163725387928
0.0328015787506407
0.0305816598251817
0.0334643556517937
0.0308969579077149
0.0364183685498232
0.0401788046532302
0.047324850443913
0.0299121058645127
0.0483011728322308
0.0521350119348627
0.0654990867839809
0.0404443995737862
0.039915575994683
0.0354777115520537
0.0314620723108094
0.0343521364301376
0.035048361677936
0.0399577785270478
0.034206601717177
0.0326031515367838
0.0331757623685574
0.0367726545430834
0.0334254953907932
0.0363121856820944
0.0485026379322732
0.0647070103613961
0.0505744889936812
0.0361846654444209
0.033935863345382
0.0477560477391394
0.0561544847466657
0.0446930840019546
0.0313138878339997
0.0426403352022691
0.0303339006932164
0.0349890270378165
0.0283874406898812
0.0393705631134533
0.0372832491329661
0.0378791455080407
0.0332433884264636
0.0341789032224742
0.0331689487075422
0.03747023127234
0.0395784020005898
0.0479172275954686
0.0449646147453453
0.0387301569624491
0.0370669388723724
0.0427985582563155
0.0318247022894528
0.0395467353634684
0.0328368715757136
0.0385795549444085
0.0472788719391103
0.0518696649992077
0.0446480264207389
0.0511248505785989
0.0439082755764084
0.0392899701886448
0.0367946502516886
0.0547345369391898
0.0387249026027351
0.0425047164147016
0.0421191426129937
0.0682312263350871
0.0641801985799576
0.0495405595746206
0.0492560629311878
0.0334562269955017
0.0443034826560899
0.0282280748415322
0.0475144917414471
0.0436614829528895
0.0517559529325188
0.0297892875903439
0.0434360211817064
0.0423654409827429
0.0554926822551177
0.0414498962260927
0.0450061795772377
0.035955606468797
0.0435829134428638
0.0537418001615618
0.0458996004130903
0.0451815053204531
0.0611917448664154
0.085459801458582
0.060031891644274
0.0469376773630598
0.0462743873737471
0.0688827341557608
0.0557780822805465
0.0352545900396072
0.0448598746442203
0.0377752398950433
0.0401894349665582
0.047656166298453
0.0673868226864693
0.053554185848213
0.0385099454589779
0.0443491890723509
0.0468533549445468
0.0577070401054698
0.0587208276448814
0.0390992496784373
0.0483972633053736
0.0372231219778453
0.0577494229237186
0.0716736055248546
0.079912400280341
0.0599500186720339
0.0725592545129007
0.069119541881519
0.0597802829198508
0.0556132972941916
0.0498268328356539
0.0689115319385385
0.0684074837533364
0.0527599929219181
0.0455250272741734
0.0737223581544694
0.0690503866291887
0.0622220196827756
0.0492749791049331
0.0582268988716198
0.0515216842864702
0.095205673245285
0.11537644291438
0.086605826815701
0.0566622873025974
0.0683690042954674
0.0780655414413145
0.0680741126306876
0.0530064373513972
0.0581682711204939
0.0547705758838262
0.0536593342977569
0.0607154415370147
0.0654074948491916
0.0625593874615724
0.063353013458432
0.0607634137822744
0.0687581163875055
0.0932175180655216
0.12666271175088
0.0952695305904283
0.0948528412624452
0.0910947428603914
0.102242916866313
0.0736457567996682
0.0692512942459186
0.0631331219223347
0.0796383221563284
0.0727315337850884
0.070655624834136
0.0770461821377128
0.0976372845498719
0.0918869013743311
0.0968785318527796
0.0904969193566093
0.0891268244313172
0.0741001413995248
0.128702502137935
0.15739233484071
0.149182059627853
0.0825161446359371
0.117983258367754
0.11183168789328
0.163018954129131
0.112120908651958
0.0978435712133216
0.0959756227861518
0.10280466135383
0.108444043078557
0.122069628709661
0.120005594117126
0.134347014630185
0.117651029818808
0.13110244367587
0.134327727994661
0.232519725184818
0.193374654558215
0.157220986677436
0.143092236905496
0.16323735244969
0.160590569352011
0.155208342437998
0.14644662334473
0.156305606490644
0.177669737557607
0.202649217646706
0.186273372209348
0.165172317231225
0.190966865661726
0.189178514671068
0.19954333788805
0.211461884684197
0.226996202227867
0.193208040153806
0.193779234283186
0.200549056039202
0.198117206217241
0.208440936920381
0.229294518261414
0.233343021036831
0.216857223407079
0.225597746881091
0.221757772726291
0.223178821396336
0.232307611533032
0.231567609603231
0.240975794443975
0.274258887744455
0.305692430723995
0.37791120946084
0.277589935503771
0.241027111666994
0.230073200932166
0.255590164825476
0.267268750521113
0.289619863970346
0.280356548452931
0.270128706855352
0.240244968303245
0.239191534595843
0.238488387364988
0.236265490540449
0.242546292272051
0.235722625005869
0.244243654746272
0.254840977113243
0.257741018621279
0.28811072421832
0.300072204651893
0.257059447348302
0.229480282601248
0.238923862804216
0.237226243134547
0.237641208736482
0.228838326331691
0.251580849658186
0.24280611348985
0.244217159740285
0.221283666271208
0.238868400186966
0.246264792797015
0.259268525118624
0.223360570991928
0.224336391680338
0.21956445747805
0.218725129896177
0.21713668272735
0.244807230736782
0.251580811705374
0.236977218861091
0.205128944554443
0.215450485786792
0.204835724742627
0.212880531834054
0.205123604260568
0.222529718444726
0.207459433247996
0.214328332113212
0.209490755535436
0.213894626753241
0.198698442674527
0.214974323491852
0.213854030391473
0.217102044370358
0.205579267584452
0.210743266452515
0.205874131174794
0.213224811605383
0.205248134316405
0.212493885384971
0.208098028799722
0.218555875896775
0.213838284284425
0.211283024322155
0.208614702921588
0.216758719714307
0.208399479798806
0.214551457869198
0.209984808976485
0.213740036537096
0.205417604581742
0.210242131776033
0.20754366331659
0.210221022823965
0.20716304126793
0.210803303997264
0.207700297428047
0.207824345759655
0.206648805678612
0.208348961085705
0.219595644551758
0.262872427832903
0.232818378076093
0.201163264499126
0.197665029115154
0.205160982438709
0.191034255154072
0.209392111273595
0.235098597343858
0.222558363160707
0.190705924628557
0.190416725101093
0.183476430914231
0.208875964685794
0.189234918291299
0.189690238928841
0.17758289856666
0.194824394433763
0.21782028217542
0.279140613104434
0.278630408489315
0.267779197917988
0.205176579163765
0.181315480558894
0.201201131351733
0.2062673797762
0.183820363292801
0.168663952507085
0.175303205979275
0.222438195939433
0.190483700617821
0.177149618167143
0.169954890639082
0.175119738431049
0.200861255071343
0.206069863420062
0.189555295462349
0.207984758009079
0.211381421036038
0.207906701239789
0.231820194576284
0.257848481925808
0.195368260908151
0.166914145054415
0.15822803881431
0.161081175495403
0.174925226018326
0.208688117805655
0.176954075298083
0.170723270446917
0.147025247227099
0.152190560108563
0.154842514823332
0.184316754207861
0.1521894340601
0.182709737739741
0.175694032682562
0.158253897012705
0.162052630243324
0.181364673073179
0.195851137030794
0.209079405984844
0.156822126913756
0.147058677618915
0.188440262641352
0.185804568755483
0.161814694095599
0.154906484844772
0.127923571041098
0.148646457574048
0.145754547588469
0.142165932376725
0.158557985851771
0.164107557363557
0.17887259476499
0.199691112827437
0.219325513635715
0.189715356248818
0.139271439891398
0.127185931804102
0.121207632221476
0.136580957355724
0.121087618599994
0.127684161467317
0.156744117140167
0.133743090679063
0.135629287817931
0.169439999413526
0.140925997875254
0.126280493217397
0.124422412174692
0.124762879018402
0.137020957057968
0.168953924065776
0.180115574283952
0.153755547914407
0.15836321911888
0.160309279525793
0.148433152594419
0.140738874949784
0.140173024230026
0.141262422683756
0.149241837283383
0.164093611137153
0.155456465557157
0.157155556036515
0.157169569033347
0.160854317069327
0.200360621860339
0.18956290836256
0.17604991745529
0.203776332324431
0.218889607885666
0.245684533440011
0.202841669008624
0.193314203982822
0.193037899225017
0.198529845114674
0.19559767825783
0.19756978364949
0.222496721110058
0.239885821111814
0.212134524638325
0.213920079767182
0.213419182572733
0.218761482413918
0.228124526715174
0.262595077996065
0.259957607209603
0.310486819871375
0.273549484948586
0.261848499639207
0.233279177616907
0.234834930038967
0.244680043526166
0.247071235542366
0.235667835988054
0.238382081577898
0.250158030187724
0.265633073753067
0.24097715806934
0.245608595804648
0.239559826758327
0.24631706244087
0.24400940675507
0.250422302120286
0.244908139027381
0.254627974908391
0.250469911616213
0.256499491239126
0.263823723069766
0.330908331433799
0.281658103661077
0.269521706250032
0.268660554704008
0.279426580554005
0.268969553221305
0.278579654141347
0.296568003136912
0.286515321386624
0.279518995351334
0.280322970099927
0.280661593722194
0.283548900247083
0.301856517200589
0.311015015017482
0.289920678351434
0.297223864120362
0.289813802761431
0.352554975634064
0.333559237159761
0.325604549898784
0.322451388093233
0.309129636009224
0.297785545234912
0.302958078512636
0.296476132490466
0.303576588906268
0.30606120441537
0.305508591492925
0.301581759356994
0.304932825124622
0.297227004265629
0.300660004969719
0.306215191802608
0.331438846549657
0.302871367734754
0.300237459353131
0.301349863051189
0.300649936003604
0.298872729066337
0.331907423292388
0.319934391508466
0.307932109931896
0.301984260373254
0.321506054565559
0.328211672669906
0.316704864027558
0.295357917748078
0.301912795947479
0.297807303571835
0.304996523877598
0.29439148699142
0.31799034394937
0.328430467206196
0.312298333364166
0.30023944688051
0.299891565334979
0.301336835116668
0.303772159870506
0.302225600276915
0.31043161296861
0.303689381149961
0.314673652105782
0.314009741149052
0.306381223934685
0.310620612867686
0.323204456803542
0.330812832469775
0.329678391695279
0.308721664928444
0.312669342058623
0.306230406635207
0.30747978341635
0.310530335630776
0.304529414106532
0.296143895621978
0.298177280611118
0.287570475071258
0.29934030413352
0.321026056245011
0.295386163543973
0.29683968175523
0.286907533061637
0.274602637153941
0.279236849315571
0.273862991190585
0.27172727435055
0.276678569226796
0.276515128293774
0.265996115382824
0.269126168036827
0.262385876212013
0.264729418981622
0.26110833892959
0.265027415310669
0.258609362717523
0.262269141059361
0.258814718065517
0.261567455895523
0.258141765073801
0.261040773265103
0.257517691804549
0.259050892421404
0.278064977105522
0.280784350383656
0.284639885597595
0.268406926231303
0.264914643452607
0.261104833860328
0.253830775118243
0.259857816886955
0.252490142040757
0.257931568725457
0.25220708929737
0.257690181080892
0.255310548553793
0.255623839080704
0.255740902058038
0.257417778196387
0.249293662912794
0.254244060576397
0.256516780636369
0.256738787227658
0.250638607647467
0.263315615159217
0.253673776253386
0.26386205566114
0.255605114405284
0.26240280572489
0.256006930778221
0.25835159844292
0.256688892973163
0.258759775215258
0.258789246104647
0.255877633518154
0.251944583121314
0.254909237760161
0.254427062766178
0.259074432276464
0.249866053787545
0.253504938918792
0.250641496552986
0.250751690015211
0.247389514610237
0.249804718483486
0.240684488452127
0.244219340345221
0.241144004487959
0.24293769516628
0.237727829892277
0.238771503179391
0.232497285313245
0.232885602488375
0.227523866357668
0.228549902467716
0.225075880187115
0.224683152186739
0.220515009655495
0.221182429083277
0.218911440782444
0.221784899002736
0.217231260638836
0.215372447921586
0.216227059000365
0.21606448685711
0.21208067760576
0.215065324168396
0.212359805124878
0.215142599629039
0.214852746310936
0.214051334330687
0.212348014090827
0.217623950218359
0.21329036392448
0.218485034048731
0.215165395528704
0.220448676613728
0.219400609659104
0.220465342534267
0.224899386141418
0.221425542567696
0.222966492805669
0.226889098917679
0.224135535676156
0.226963522346569
0.224850866341578
0.227197487537623
0.228016831242729
0.229705338488065
0.230114105454312
0.229183978309181
0.22774029666805
0.231047678554184
0.228610117150288
0.231349233828859
0.228765818565995
0.23150049315135
0.228900812051774
0.229739713004586
0.22502228850964
0.226252087319851
0.225157689133787
0.22563464883477
0.224222547412768
0.224162019521732
0.222596029057039
0.224770517394788
0.224127692459082
0.223956002459488
0.220308409777593
0.222087496557294
0.219828295058572
0.218380356316584
0.217400971149648
0.216501771906896
0.218409714219338
0.215953145369314
0.214144741253745
0.214180554870094
0.213681657483743
0.216412547536718
0.21180149978384
0.210938960560842
0.209288795738626
0.21057010424609
0.2092785365703
0.211094049334004
0.208447967858228
0.207101571047643
0.207617343059905
0.206491455196383
0.204764368557512
0.205800918047116
0.204016099518049
0.205167144346396
0.197687279089998
0.19776975319854
0.199134750397475
0.197331790498098
0.193409780241289
0.194243969004649
0.193731416522152
0.191262861490571
0.190809088285558
0.188078505297987
0.187385083516402
0.187033946903041
0.184134727361636
0.186163590021574
0.184898652323874
0.183910738658327
0.183918331803999
0.184142369645367
0.182576306782484
0.184092203688686
0.182545152750809
0.18204698591126
0.178668545982708
0.18118185827062
0.177172323610842
0.177290686141959
0.174591847832775
0.173742645665488
0.169539411269715
0.16964404031236
0.16686163296858
0.164561323417233
0.164548618846331
0.164986697152154
0.162144903908406
0.166885276737942
0.166964416521407
0.170157560201388
0.17127814612009
0.177173138822549
0.182694053159623
0.187647928809567
0.194509421101914
0.201900531655359
0.207568022155502
0.214965152084691
0.22631912726362
0.238174459866245
0.246194356284645
0.254717317946747
0.261913107840613
0.274537658293597
0.280814405900265
0.292695310423382
0.300608337720503
0.307473060152847
0.315652047353962
0.324310726911111
0.333635241415177
0.340471004731977
0.346827281026351
0.351677769320065
0.358176910314423
0.364784452081703
0.36824008061624
0.376732670747259
0.383166626901168
0.385054098862563
0.393776926511739
0.394798253493206
0.392588311477835
0.399404653160125
0.399114308546473
0.40259246367547
0.401888393519267
0.404976066569953
0.402739062164232
0.406579125719375
0.405490990937164
0.407073152084742
0.405065735582809
0.407686206927085
0.406492124155824
0.412552455669728
0.410274419558035
0.414165333948079
0.420090306568765
0.422673203600116
0.421461874864292
0.427791968439641
0.428880058002065
0.435257131760834
0.437033977106909
0.4432878154361
0.443055350879919
0.453094296598496
0.459703754228973
0.461021294395127
0.466248846745219
0.478858506438696
0.480117815350114
0.489586178589311
0.497465210420072
0.505302604761912
0.512401917709704
0.516550513085386
0.519278183405587
0.523917772383909
0.526034529834293
0.52771113198581
0.53316548341049
0.532828412993231
0.527672488969679
0.529342870486572
0.525985237133097
0.529604903469844
0.522358315789636
0.523854105331882
0.521562755111732
0.52288191190486
0.518892794204484
0.525406151254977
0.532735724535944
0.542002431501514
0.542968591979163
0.55533170528643
0.563721718652038
0.573603746187855
0.580720597297403
0.589373118382028
0.597329550020179
0.604970518397916
0.614165915664646
0.626462833468153
0.633045001186399
0.643524065851574
0.655216892877148
0.669142571705659
0.678510549406938
0.689952107621878
0.69427666129513
0.711251894224756
0.719920611841924
0.73480898510216
0.748837390057809
0.749639406353684
0.76735459874552
0.782461128068162
0.793196429738003
0.811091056659831
0.824400759352042
0.825057659365297
0.844339442986685
0.851574624995078
0.85802551568015
0.863198565731139
0.874098794125452
0.885550251296861
0.896843135706754
0.888834450775039
0.90016343833216
0.896675250077097
0.906212751218865
0.894102525883756
0.885987457848405
0.885083738125627
0.882431860593095
0.882898419840112
0.868664686961714
0.871925065820999
0.874251323579449
0.87985386274168
0.861216007137464
0.865245158895812
0.87093381946411
0.879832492072191
0.87445991726126
0.884218659234366
0.899039709232687
0.910554694657896
0.906116215162347
0.910767264922549
0.922781813818227
0.92434083431666
0.934024803965179
0.945632921112
0.953591932323872
0.9565228238476
0.960069959797966
0.970126400020507
0.960258637872602
0.966331116745044
0.965168681576714
0.978700590257616
0.977439446233685
0.981804168800342
0.975304610509074
0.97153002321206
0.991034592632371
0.984107533032976
0.966977228210826
0.973025342636062
0.978818639412569
0.970032462197246
0.982477928873397
0.964794299612969
0.955487612951691
0.942118082327817
0.948290425058158
0.928926374304778
0.925987929141089
0.925836124876666
0.906733225380013
0.907692545097591
0.893140057738297
0.876093399439642
0.860476252092794
0.844534630467192
0.82073964726291
0.79506089002103
0.774232401088057
0.748785669115825
0.71669534217062
0.689064029274768
0.664730479247767
0.636285907926012
0.607250268260071
0.584456606130358
0.567222182712393
0.552759257264773
0.534345951452408
0.51935583205687
0.508769690518086
0.502817954995613
0.49851908124221
0.496031741675925
0.484981967156518
0.477728511061549
0.474986216930909
0.474474998563726
0.468084195306872
0.465292655252474
0.460258922100559
0.451990453610686
0.445311998850042
0.437617396617603
0.42884680551685
0.413615089198296
0.407139583034346
0.397934882883353
0.389640764597275
0.377612398427441
0.368473062538679
0.350421071653758
0.337589455208321
0.327682336725932
0.309326408633622
0.297208137902018
0.283058347575259
0.271824780098599
0.255657408128671
0.245944074063734
0.233634352802921
0.221501008260191
0.21299822904878
0.201680240226881
0.195508727703155
0.185515567205111
0.179028277886983
0.171830860708892
0.168034713989977
0.164018844559612
0.157690924729041
0.155575874268931
0.151801852579732
0.147577980366302
0.146853618249207
0.145042343902713
0.143818394192532
0.142855216604108
0.143021691291929
0.139271361500779
0.142186922855544
0.142533548302447
0.14364128241004
0.140250436113028
0.143962055473107
0.144857194874022
0.142966370913515
0.146983424055952
0.14514647285418
0.145573133020398
0.147724005084041
0.146018482820139
0.146323160036092
0.144012619404487
0.140805407445564
0.146538351986307
0.143076958603137
0.14020843463993
0.141384289687923
0.13786289919915
0.137377826525505
0.136949341854855
0.140410259505489
0.139645529170114
0.138671219470835
0.133201637590855
0.139770060778293
0.139227176399344
0.142035266340139
0.140731429888349
0.14466120473305
0.141618490999022
0.143591845174543
0.14716158854808
0.150885711362165
0.150923352277414
0.155780762548813
0.155586085255112
0.153521581716292
0.154071757227768
0.157326740328528
0.157473516199627
0.158977959276208
0.161517068076629
0.16411501218833
0.157944013288836
0.160852113288035
0.15945513958242
0.161384564694893
0.159963116343249
0.161741398545815
0.162756341906784
0.167652626700611
0.165747351387204
0.1720591870466
0.175332007150219
0.176038541544332
0.181288647806964
0.186280191013434
0.192384583272559
0.203836753711238
0.207338334196999
0.212195213233933
0.215618600153404
0.219904949548327
0.221828110024274
0.224956454788807
0.217485411499439
0.225845618180905
0.215622829846419
0.216836110381735
0.209398451578259
0.209220095089505
0.205452609756905
0.201152968858275
0.19720499063836
0.193861576350446
0.186575741100221
0.191238892868593
0.192702237584749
0.189680227789869
0.189436740943024
0.191862892338874
0.189213573761014
0.194022841906467
0.185720255522661
0.190235002181575
0.187059692624586
0.190670340817829
0.186941052530121
0.185053777127323
0.181919311080161
0.175037825061893
0.184737567825854
0.176679998476362
0.173422271156347
0.172680425042933
0.174180880710616
0.171204561484188
0.163869927539353
0.168115067535536
0.159099190295378
0.167417414059324
0.160735087302169
0.163408402099373
0.158170133909278
0.164075369784053
0.159293491381732
0.159978627383277
0.157674703563826
0.156528021603406
0.151267173581613
0.144452779469877
0.153122538926924
0.154684741346426
0.143239352795202
0.144692873365504
0.146491784967755
0.146480127152877
0.14485666584155
0.145990629279899
0.142942262124706
0.139961962504714
0.139703226295833
0.136729179051444
0.130224094557141
0.129998747377649
0.138457023160995
0.134735373477918
0.131569081948871
0.135174523905858
0.133527958326245
0.135869902557745
0.124132542927019
0.128480713103785
0.122128727922787
0.133796285367352
0.134412111704161
0.139805584925106
0.135066736339496
0.13864534770762
0.134224502254637
0.134124258357752
0.132317621844218
0.137686464146932
0.137558129942693
0.13844711502754
0.137286772965785
0.145399742033105
0.134319179463031
0.138604459112271
0.137788290089238
0.144133565605863
0.147919410841157
0.150188918858892
0.140435729821473
0.14886024460091
0.151875042973817
0.152069605771625
0.151425360865956
0.15427941589888
0.144272678053326
0.167111680450176
0.16306920181975
0.170150097686908
0.168552098175355
0.169984174985145
0.177418723048767
0.190525833722252
0.1889534359132
0.207790926308405
0.19863070381579
0.205132252024314
0.209740542930822
0.220881178410249
0.21807845941066
0.24446591157012
0.23283559209981
0.2414886220986
0.254557694949826
0.270275106991537
0.257234414858824
0.260961676240821
0.27109476474286
0.279494691938043
0.269793313502489
0.253917358813563
0.260628273261715
0.266628529057977
0.256281138712653
0.256946395207165
0.2529136183157
0.264856067395956
0.248767180970803
0.259969500336611
0.248723367387031
0.253946458425117
0.241338171121071
0.257825399656142
0.24021360371427
0.231873759948536
0.235949793850051
0.246473863715681
0.236277768413138
0.23540973008196
0.21946522115355
0.228959487114715
0.216454821760797
0.231299521284186
0.229267539042168
0.232950871386415
0.215974762848725
0.222653200381124
0.210852006942118
0.219207605936434
0.215028891105264
0.227582095904903
0.203926223055718
0.213328828570485
0.215892406906266
0.22009992925761
0.214808631531216
0.224181838136579
0.191062209835774
0.218102246171366
0.217236788524755
0.199976536477476
0.213873608956382
0.224598860244325
0.218225291234009
0.232196583837573
0.214083936660772
0.218614506131341
0.2225728481456
0.235467232062474
0.224951480835781
0.213305685723883
0.211032229832644
0.226157348351413
0.234543918756507
0.249618188545812
0.217916417371283
0.240034999132404
0.222847869778341
0.230226298044969
0.23791882904388
0.24632000103386
0.230386260367068
0.242344245242985
0.244820637249429
0.283097128558317
0.262724595408604
0.277277004070113
0.264560486576492
0.26444793596114
0.26675328252037
0.284126540028972
0.257711287676445
0.249840628038846
0.272338123197212
0.313326077771616
0.289596560061332
0.302958305379754
0.276571574931246
0.315300464264033
0.329386134278814
0.333410944797269
0.339539780642584
0.342802882726513
0.307373034739933
0.30926713252854
0.302361493426703
0.321990643390852
0.294169437173792
0.31667749634571
0.303546563804553
0.352199614454294
0.318355072784674
0.309868300953221
0.251337442113844
0.311152479384676
0.289339861383731
0.263932739655396
0.304781147200487
0.334387671301586
0.321699998258369
0.295035050291027
0.257839036094597
0.33704127025736
0.274628626528956
0.281643771546867
0.313495946437222
0.354903290429877
0.275820281288841
0.270260755564578
0.269119411848587
0.25187257955824
0.325909164640797
0.30774884503424
0.224860125045287
0.323112157193435
0.323476211328932
0.349990781240355
0.399207571847915
0.331868840587831
0.350036910754792
0.358110117624504
0.334386081933265
0.46204857193856
0.317395552388405
0.362597712829016
0.325852437854098
0.402363729857685
0.305589010633244
0.415063039367968
0.345503850548361
0.201425934352722
0.351051940868508
0.32996040461167
0.17721182320882
0.340152613761236
0.26360590091725
0.342483643151581
0.347778716073833
0.292834488108707
0.272643745149104
0.484429394730035
0.170920376515185
