3596
4000.36533379555
650.420452594757
1
2
2
0.0677698678228559
0.0836508539781723
0.0635789526837155
0.0866958543288001
0.0667952907605149
0.084193044131316
0.0664515534476876
0.0817380456520017
0.0672894166439264
0.0947113072415917
0.0649159988773279
0.0777627116423782
0.068271541559001
0.0837821323011041
0.0694182994941276
0.0789243843769787
0.0688966033894915
0.0815511783779136
0.0696550345470391
0.0838517665155365
0.0755058983268174
0.0796817522092659
0.0696992120478507
0.0807453548836402
0.0637016545251395
0.0899021286515067
0.0689176175394517
0.0879392942435784
0.0613160206802125
0.0868514089452601
0.0665572176646056
0.0826705767488369
0.0702125275373883
0.088646733381412
0.0663926353317762
0.089252380683259
0.0602075584986093
0.0857359995016426
0.0629675782962992
0.0896745480976808
0.079270964702896
0.0860317273002855
0.075190742349839
0.0804688211637731
0.0618941772455041
0.0882609665066032
0.0739602652792049
0.0819188820960192
0.070965765436847
0.0793067140033966
0.0710522489844625
0.0818084602745783
0.0833983962731972
0.0916876111474546
0.0610247937288053
0.101058220429326
0.0730153359074165
0.081002111802048
0.0703766449619753
0.0819407970068358
0.0967065662317907
0.100112410775777
0.0713062920080911
0.0766194966545752
0.0596413569367814
0.0798339018842808
0.0685517116044449
0.0870651375261197
0.0531226508656646
0.0769888459777363
0.0661251120594818
0.109893338401872
0.0809405923989973
0.0897631765700546
0.073599896783995
0.0868220524209433
0.0659101203110733
0.0847118619386703
0.0585020154904195
0.1060565478251
0.078665189544043
0.0870116016698466
0.0688986458866863
0.0692737624379914
0.0802896929074453
0.0903924669771741
0.0649225189157017
0.102913568427098
0.0828800968921112
0.0923663193671284
0.0624648619886986
0.0855178873054209
0.067615539367271
0.080925939029842
0.0639331834248669
0.0810406407396154
0.0608672237379399
0.0838595692867943
0.0557645127486376
0.0970404788659553
0.0704292884261579
0.117760671155925
0.10803834146401
0.077920754428581
0.124770907857392
0.0976178109179099
0.0690444639732928
0.128960886774237
0.075536426089494
0.0876136606281311
0.0584699445112804
0.0818198261484819
0.0605652593056162
0.0944825519017293
0.0502714369915048
0.114325919186291
0.0988236988165077
0.0965754913475208
0.06510660587293
0.085836359790733
0.0486690159779775
0.134795390285953
0.103183597946523
0.0834796102664022
0.0725745457590464
0.0801610384909583
0.0642952633829704
0.128688479124763
0.0983508358496237
0.077317652202839
0.0628444636546972
0.0774768363850667
0.0560129275309848
0.0796545353892651
0.102480609402439
0.089529171369754
0.0741546666178508
0.0817253420389262
0.0988432463132824
0.142090231843178
0.0762787842986413
0.084006188134458
0.0608225178955333
0.0918676742767041
0.0950531446221145
0.0921412771746687
0.0689556860311057
0.1077300081443
0.0720729602701291
0.0738556022428827
0.0706955628947401
0.0782070678110952
0.0821766027228825
0.0912842281975182
0.037321644136822
0.159884299136521
0.119161439989845
0.13519591570457
0.125593981874491
0.0749617586909862
0.0764662336826004
0.0743973907082163
0.0697734975395407
0.0679186426552834
0.0715860475979097
0.0686241753901645
0.0861529592105617
0.10256098738025
0.0673744348372716
0.0988122548613022
0.10260371558541
0.099017652886068
0.0598939073231462
0.16608747573032
0.0760402432423333
0.0819018071983348
0.10239921608061
0.0898435411285393
0.0550455609166966
0.0963752683484287
0.0902546307001147
0.0727228873816946
0.0680636040776036
0.0763229657695623
0.0695480521681807
0.0854038606682643
0.0648746589001992
0.0771751521649562
0.0752222505849277
0.0707794402521704
0.0854390554264791
0.138324746660815
0.0994887073601376
0.0882551292310735
0.0732724782671961
0.0432467051038796
0.111550649576877
0.11016746377156
0.0636814095136831
0.080495098020419
0.0627939107922084
0.0700345746751479
0.0663232581243234
0.0751071420768324
0.0635786424180916
0.0707978290619167
0.111606716854298
0.0877857974602754
0.0636477342416915
0.0742776853237437
0.0722826678145043
0.076695603544906
0.129303670750971
0.107295541600793
0.065907426304729
0.0841850790641164
0.0598556988669367
0.0967294172084662
0.0791844059225671
0.0704799704426657
0.06173455545404
0.0759116355200577
0.0617633946172201
0.075144438195995
0.0640942366486879
0.0767640107927521
0.0597665990734158
0.0760300586566075
0.0599268826573162
0.0795194246981435
0.075990754008492
0.0718562696092803
0.0664379674047532
0.0756034840344491
0.0516791524707585
0.0880134322474119
0.0874544018523859
0.0732464317309142
0.0626571489530543
0.0713632529617771
0.065208719353679
0.0673828565807248
0.0627139167360337
0.0706883907561592
0.0575148536491335
0.0693390903891237
0.106263561332406
0.0780193052530016
0.0708533408278152
0.064495471437734
0.0907594465018978
0.0863291688672916
0.0674871839536946
0.0764912791784791
0.0656877604604067
0.065787431967121
0.0733040569678192
0.113628036498528
0.07699519258963
0.0687559211245541
0.0894177161399572
0.0902487946456271
0.0624880933516667
0.0836576997745623
0.0642987516575125
0.166532481738682
0.0883822080405375
0.0784954728146232
0.132120441895536
0.0898339096167305
0.0805884183467977
0.0854425468917666
0.0381345134496749
0.238117934681961
0.121639480795379
0.0787835825680039
0.0714309382733689
0.103023917280527
0.0690035997211155
0.0949479203123832
0.0777671449241352
0.104067047689595
0.106123139126883
0.129634100840545
0.141882431285202
0.0734854516682465
0.108388838459839
0.107201810832052
0.0716196468843454
0.0747538044439888
0.0666591634787406
0.0779283512330329
0.0857658365867988
0.0997846399866494
0.0869548633578505
0.087861751504999
0.0657164650662481
0.114674487006398
0.0649591529531746
0.0822811782709395
0.0767913039534196
0.0963723460863684
0.0565337015718841
0.0769502983401632
0.0667021549714836
0.0911779253804964
0.0734454560151023
0.0899698309082364
0.130849197822891
0.102238204453612
0.0721080954575932
0.109386750063694
0.0677770764994508
0.0781925225953635
0.0632355574248271
0.0732553726693687
0.059016203008736
0.0709932111761963
0.0581474509235418
0.107456265295601
0.0732960651322875
0.0757881287703964
0.0618645093613477
0.0726063481512201
0.0599211058110568
0.0851275391166018
0.0735325827481054
0.0767840871765058
0.0662701000547823
0.0701150365574707
0.084004322880015
0.124315068516183
0.0601928515962107
0.133150487749009
0.103313442775598
0.081514087666155
0.0824726970967597
0.0805834652165075
0.0714966983349225
0.077796246763093
0.0686028582956496
0.0760861647632813
0.0745041168732144
0.0983374685353275
0.0872213995244498
0.0905109047729218
0.0830684517532162
0.156314719909944
0.149225923682288
0.098515603661638
0.0892878253739803
0.0796252732657617
0.115898744439302
0.118475938578096
0.0997367138784084
0.121174437147323
0.0739572418991328
0.0976777559558725
0.0698851925110813
0.0901791171204016
0.0669575834031349
0.0943427524615807
0.0658380004223382
0.0974311448103803
0.0836896738502318
0.10088207527891
0.079038965560623
0.10510249590452
0.123732665346302
0.109030900909469
0.0846044022638136
0.0984217534702327
0.0751673560654996
0.138783456919928
0.121090154485284
0.162759371737193
0.132815943738037
0.139884275141418
0.153417709642208
0.105199267460232
0.102663681067356
0.0932677675341828
0.0934857516848587
0.112367111650074
0.103552141049061
0.104466844692498
0.100120575493778
0.114280697302463
0.111461036291005
0.115331004727912
0.104551220478777
0.114677627082335
0.133661542870087
0.111144166526261
0.111334315331016
0.121193160758451
0.131837256620074
0.184997841179709
0.160001143614296
0.139455886898532
0.124758825068243
0.137966890217201
0.116063702052796
0.134105551540051
0.113246660575429
0.134935025058501
0.128861503643443
0.179930539366037
0.151532422386231
0.16931016276968
0.1525165990707
0.13933664193318
0.15911837774414
0.160378167831985
0.15562231846242
0.191578019470705
0.148491464019061
0.157009024655246
0.176910081138259
0.18481412951901
0.152315817273402
0.196084543290873
0.13957894520632
0.168249558148141
0.146927310885699
0.173244114539334
0.159145430458768
0.182452597067248
0.166744551078192
0.179087785366008
0.17430329606513
0.18222068089138
0.164889365580103
0.215333485492172
0.182093450149588
0.201523279190402
0.185212817158624
0.179422802793048
0.191262321749656
0.193883759462776
0.207677960946535
0.232588723832293
0.201283988736135
0.247103415395666
0.185335199115077
0.215540513174502
0.187815303510178
0.217894124642548
0.195815962946525
0.219040646249186
0.210488710902708
0.231556266908193
0.208128206338243
0.232352930712551
0.211687812424038
0.250478571272116
0.221870511751118
0.233208302057885
0.228008109905205
0.241661653930845
0.232794701695846
0.234416611654524
0.246684680102789
0.306101728666719
0.285099649482421
0.316619793581078
0.246307758736561
0.274342680469442
0.257280301908818
0.280742180828353
0.247224234009508
0.292094977704568
0.263162660421596
0.281809537339598
0.266564309913041
0.299345171651694
0.277999014467651
0.298538467065977
0.281385327775583
0.301815988211715
0.296357371671325
0.311246043332067
0.303723450011744
0.339231185166908
0.309667765505206
0.344762448234609
0.316243462056727
0.363649360053356
0.318412037261881
0.331997973651287
0.317356929281705
0.327813261016953
0.323029670895446
0.347334119078916
0.337884348661156
0.353941394071596
0.335508036214461
0.375837598266591
0.342388434766402
0.376027294929912
0.344944283500554
0.377570181579093
0.357347582850022
0.382121854696611
0.371756910640723
0.406270131800952
0.389657082061151
0.413342741537493
0.376651683892417
0.399987492434398
0.394192273593158
0.424986513995173
0.392569117774098
0.418115562890644
0.405597594080896
0.440780581224874
0.4021802812345
0.430403270430772
0.417373545747211
0.455936302086976
0.425359848672364
0.451919092385776
0.427738048518575
0.453978761949426
0.461764913651919
0.502004168767823
0.448320603374697
0.46725804886578
0.450283720384746
0.456775051489894
0.467978627631456
0.489132637763036
0.490358523475321
0.497324652302331
0.473920105955735
0.515423332314989
0.493889616487786
0.515161595434255
0.4972349657413
0.513215218955003
0.478765518589078
0.531026451875806
0.50017496863717
0.528420280082767
0.524289296685852
0.551973395624875
0.527281884704355
0.560229887624892
0.533886612455213
0.564720103063117
0.549115956372296
0.594717155599136
0.559735615642201
0.574707906486372
0.568876786700013
0.60694752035371
0.556178996475588
0.591544302787457
0.564193136252452
0.587102071337984
0.558877387940143
0.595963933837651
0.593956494524321
0.613888226259353
0.574125665419381
0.631356531920934
0.584060646589525
0.638095387136013
0.593621770745218
0.628355400062448
0.613057193949574
0.648213938422637
0.638403614825607
0.658131408536404
0.615934664587694
0.648900871457453
0.643027516820469
0.661271385812137
0.652212221997382
0.700412668394117
0.663878583891369
0.685317205240054
0.666520689618997
0.700749384902263
0.662230272231675
0.687831348296768
0.665918184118549
0.718294613579855
0.690451100720641
0.70756372741591
0.697947266043131
0.687036700698144
0.683436313140146
0.749562275954852
0.71037872283113
0.71680012550572
0.699046080332278
0.746215573382127
0.718832247196949
0.709994368751099
0.708436104151495
0.742302872912812
0.712080242909077
0.755774401875518
0.71095742016293
0.718527761679052
0.762398386493241
0.77253261582785
0.742751288663384
0.785053473196242
0.744004171361486
0.799846273649815
0.762167673227922
0.768265253094039
0.811639059116176
0.801611442732943
0.778471758511283
0.818448133870495
0.761605839635423
0.81494744578292
0.755961153411572
0.786698954069539
0.800272854417445
0.838623311063016
0.814449238377646
0.821225968390342
0.780830815515737
0.821565038119086
0.786612029856563
0.822429397079442
0.819416008934888
0.827331902775388
0.806616100726417
0.851957403308287
0.841477986830549
0.898999295122507
0.816811627301318
0.838366640339321
0.808563598985764
0.845182079785451
0.819416551463733
0.849392595201084
0.837025810906734
0.871966229568149
0.856158044202018
0.89151057275869
0.88822331179065
0.870165553062437
0.859436458088167
0.939561033001717
0.845979563579519
0.860092749768794
0.850177321404794
0.869043739609581
0.867381270867643
0.91297883690085
0.897349313405863
0.904974257658087
0.881222271663906
0.923066496113523
0.923532362487152
0.908683911475628
0.879807257014624
0.932161626463782
0.924198629670249
0.958851726407431
0.908266690476427
0.893806523163998
0.851989540138244
0.92809638689111
0.924927463161165
0.914495156337256
0.865806579492208
0.888604053452685
0.89353776997088
0.936779479820342
0.905557250461284
0.89249410211166
0.888089901809034
0.928778966086719
0.917300796667927
0.937352263538656
0.899622626806441
0.933167735745223
0.924023665870521
0.945654905297791
0.908551346756889
0.940497037443293
0.934251141643717
0.950621396448704
0.919247241670169
0.92345275107898
0.92245700001735
0.951818682962136
0.941333593350592
0.925488490217882
0.93008257184043
0.959385212565176
0.934567937214513
0.969950129263297
0.923916514630555
0.954709793453405
0.918109738290859
0.938046623037731
0.903488930242409
0.90982259213271
0.916365143848199
0.931197109852926
0.932077460163578
0.980149573177514
0.939480344988565
0.957044745997542
0.920996863304661
0.958790355166249
0.928034311880607
0.940727621678163
0.919199228874954
0.95050660445564
0.944453848111272
0.940259959758343
0.946025184779784
0.959203206506573
0.925241793863846
0.956031362937013
0.942731733287461
0.949996027453945
0.937817385090936
0.967119186870216
0.94074635533615
0.946779137312131
0.937912801293305
0.984235250191451
0.924150295414834
0.898675483196506
0.937659908463814
0.94580785410086
0.916530774181576
0.932099601357792
0.908219882840983
0.92131906914318
0.906420577386648
0.931869807166749
0.945978316998105
0.948419593976154
0.913875911079338
0.912846205236895
0.919119129981738
0.930503173073336
0.933300466492461
0.937178490922761
0.918789201687632
0.945519438878674
0.935824439919744
0.919037320146732
0.89430430569562
0.924671705615007
0.898554098473418
0.92494424938335
0.939147072773805
0.936194443523082
0.94026148211817
0.939974907184306
0.910751375501349
0.927845675318888
0.886227572438856
0.929517455973059
0.902193161767935
0.902211831240239
0.939846644885448
0.945279861655074
0.891658698406077
0.887608267501903
0.87015824090454
0.917637950743557
0.92029989103693
0.905850952616731
0.876213985198426
0.904652065629232
0.901268418277428
0.905212528735131
0.871485721850018
0.864056795530102
0.859497303932104
0.879931030593666
0.895944512362271
0.901473986535519
0.860100565999975
0.867207811762759
0.859118423237638
0.855680737868641
0.874745010502952
0.877339750439399
0.851748810523115
0.886284797462384
0.87334962812585
0.846296716790615
0.825713509887918
0.852661662671529
0.873960664509179
0.866895335760252
0.840119465816544
0.873176044423461
0.846960528511229
0.828511480245539
0.833632202750225
0.858946124266979
0.829731906349028
0.830368664532705
0.824736310517291
0.847620736188166
0.832455911724356
0.826206353770056
0.821457430956364
0.8323068463495
0.813172435736279
0.814245369016139
0.808504236016184
0.814484388191479
0.810342943110909
0.813002646606213
0.784093195986012
0.781882077106221
0.79663203215302
0.789314071332536
0.793258720687428
0.793493169371337
0.794225270868719
0.78538139894915
0.766522192260073
0.789992385982116
0.761565248582161
0.767175176752549
0.770169148550135
0.775723033424566
0.762003991015242
0.769295299329788
0.750021380823519
0.759766353486474
0.747715903929179
0.7379814031112
0.752875745308523
0.756008558972174
0.751727955663571
0.74673992129865
0.740102975951186
0.743027677837003
0.735963358051272
0.73678125271545
0.716827686427114
0.724316886798932
0.722565983913923
0.703359382742835
0.707147244071002
0.716906001263751
0.715766267038526
0.718115313148969
0.703506134158531
0.713407333781299
0.695986435369217
0.704158780508259
0.694256523063222
0.69350149048229
0.679513947228182
0.680442286871807
0.690600226119489
0.678530219511559
0.662049203048319
0.666802948744002
0.656460115203037
0.676882577473548
0.661890494428955
0.658974082664214
0.654951575267637
0.660732484103689
0.653602234448548
0.657205683573379
0.646453545583973
0.637019232540602
0.635464714294682
0.645013318667428
0.638712891358465
0.635500221482871
0.624526630018041
0.619441598047389
0.624503178974096
0.631540323919355
0.625010247991301
0.618787442881416
0.613512636866596
0.621062515188977
0.604372089895356
0.60944670954731
0.598182517272691
0.607850483894722
0.59013254377909
0.588945572753841
0.587459742206486
0.586227250491874
0.580095198288683
0.583353324644459
0.578597995635574
0.577657743778183
0.571838399006028
0.566207274837345
0.56043968505878
0.569263802605009
0.552228252517841
0.553559155085749
0.550716305729023
0.551279121221244
0.542195582932134
0.540265766160802
0.545571875702989
0.5409560289936
0.535241621591696
0.529870338118802
0.526133404349994
0.526805383131884
0.517294810046241
0.522373277023785
0.515039338904231
0.515747284196681
0.513624022532024
0.507249975784812
0.50288923579799
0.507269392099193
0.504163168051852
0.498408694730338
0.490062605220491
0.495394018976741
0.497750772548452
0.494673333781344
0.485370861820227
0.486923725453398
0.481733826363938
0.482364188974255
0.475667898432411
0.484343632177465
0.464114450466229
0.472550054424501
0.475307879180076
0.45911347883462
0.45013439664441
0.469964209040018
0.459101086258199
0.452743790712428
0.448184709828207
0.457093301415084
0.460367299695692
0.447422999776409
0.448004362518507
0.45193131809457
0.442526533112927
0.439496569457421
0.425246844332875
0.433615747605299
0.426748202725115
0.43190362716881
0.424615854663217
0.421852862666507
0.423758023838137
0.422658304638804
0.418915214244673
0.422548578945686
0.415157075070245
0.413096276266974
0.412639171830876
0.412968676573434
0.406880860875761
0.411112043480178
0.403507739739653
0.404581193938734
0.402101443874801
0.393422700557366
0.387296457464104
0.386391099109756
0.39277500559798
0.396403789902042
0.385820320653217
0.384707225779636
0.38764377802631
0.38689284339085
0.374253259922095
0.380234817541143
0.374661439254279
0.381428121890968
0.373926962569989
0.368420506809301
0.370332073817884
0.367571991679747
0.364957084248963
0.364878316494368
0.352069169630087
0.361315883075825
0.354968664664959
0.351330040958066
0.350697696701463
0.356003569918624
0.350649157914247
0.34715664374109
0.346051271500952
0.350102394698491
0.341625387320378
0.346589149544967
0.343944559165541
0.340630925305248
0.335670469003756
0.336489196213355
0.323663920274431
0.323996760896358
0.327030846365199
0.331129712471405
0.326211340657779
0.320169529523272
0.321775504724755
0.331034881183773
0.316573226972
0.317337865191864
0.317655491517059
0.316493698330434
0.321828635444983
0.313423750595473
0.310451127540125
0.305867752551163
0.297952708923213
0.309408008588146
0.301069415371627
0.305891222680033
0.304424337959486
0.295362431317588
0.300148552634666
0.301048012345569
0.291873912306582
0.291668265547658
0.291750300312215
0.28913427330364
0.28562628692087
0.288158720957738
0.279777529610567
0.290490623922634
0.282452477676666
0.282085573614767
0.278262968384989
0.280863180310635
0.276300092439579
0.275866759281296
0.271010782231741
0.272191602230352
0.265784771433315
0.265469062346124
0.2668798809444
0.266518785698364
0.268028916595918
0.268757903352196
0.256665741344183
0.262216733668463
0.260581606121287
0.266343323206463
0.263719349844308
0.26472854898817
0.258342026301057
0.259476891093397
0.258031210952627
0.258826870348188
0.257683453306202
0.257025820252587
0.248426938046239
0.249944990324544
0.252190167755892
0.252691031489367
0.247279002954338
0.256246664096588
0.252468462243754
0.249626418105749
0.247542335596457
0.251684144227054
0.254767514892578
0.249644191808598
0.248347740368137
0.251874875499468
0.250949871038184
0.247174388053819
0.248119185836884
0.256727915479692
0.246391430892811
0.248668787231853
0.256234662101696
0.256133127322719
0.252855596334627
0.25518695959687
0.254078168801331
0.258349218673167
0.255086724399687
0.259602776245919
0.25774331552369
0.265094964456175
0.269373487749506
0.264195333234004
0.262607788519705
0.266925538223496
0.268757646512975
0.269293711057881
0.269825645472295
0.273194817992531
0.268189669929577
0.275115661748606
0.268313861447026
0.281602970951111
0.283685046206875
0.284010401058443
0.28263685633368
0.285317208443034
0.287166728131046
0.286942822773895
0.28862282890151
0.293548302682585
0.291063633327185
0.289730816240663
0.289483699197071
0.293734958443645
0.299425553370902
0.300121296096951
0.29846652273521
0.299485394382653
0.30734082985511
0.306612157612921
0.303534706112207
0.313512769409857
0.310408590139855
0.316325638260614
0.315932101050384
0.318097265691492
0.324967656317172
0.328009111408934
0.328066332534576
0.331498375942797
0.331168845668243
0.334177281472902
0.342931298375087
0.345930224668791
0.345493386984509
0.338391337048906
0.341758967350211
0.348414273324827
0.348277280233881
0.351614340844478
0.351287289310334
0.349788316897409
0.352710354485967
0.360638724853824
0.350715774581842
0.352109399031848
0.352523368810272
0.348034147686284
0.350869536052536
0.352729549643594
0.354794582970516
0.349613741270495
0.348352947961454
0.349811522315537
0.350098704865421
0.344403484706429
0.347418669174988
0.356037753396194
0.350068145081807
0.347330972395537
0.347202382359885
0.34688045040022
0.349583160723653
0.353848136320343
0.345592334104764
0.346817892624925
0.347672394646902
0.346448558728416
0.346041041728623
0.350626415753699
0.34529495522855
0.352542699789885
0.345584211198466
0.345932609818871
0.347728241198055
0.346974262760125
0.346201428605371
0.357244259126482
0.354392594869542
0.356287013668803
0.349932647252992
0.34918967061248
0.354947238665509
0.351180057845797
0.348943462388293
0.346114730293401
0.346331546275265
0.352694350654322
0.352239470088144
0.349756434233926
0.345648068002494
0.348870659000857
0.347624478679866
0.345653945126007
0.344648026540117
0.343456064537813
0.346656884654582
0.351768565827442
0.339956165246177
0.342557775861709
0.345622679324664
0.333337598792711
0.329711717802699
0.331431207590464
0.331357741015143
0.339147722242969
0.331213619333767
0.327325451387537
0.323718977379797
0.323138183629825
0.31493473442702
0.32183052127404
0.315969304739462
0.312310078638963
0.306729939801595
0.311143753934764
0.30675370445487
0.29859127843995
0.295910207434968
0.294258355093596
0.293442143768578
0.289845539575623
0.291019407863815
0.290360975575397
0.278988901712334
0.279296807379113
0.27599013164536
0.272704764466634
0.270344132806844
0.270153204473916
0.264610603829893
0.264306794130324
0.266434386865676
0.262460517130257
0.261619195107777
0.258190514702006
0.255857847511515
0.259129978178172
0.254849680577967
0.252360364759817
0.249801871058766
0.251422687458896
0.247722601693913
0.246112878826259
0.243824774583979
0.242181100583856
0.238234950310763
0.235529834453945
0.236203981749861
0.235680194507518
0.240382976061283
0.235622557488597
0.229085060381967
0.229483964066828
0.230881140450643
0.231587798268433
0.229586195288506
0.228507127404644
0.227943665814339
0.228629948920174
0.226752921392343
0.225518780993676
0.216822379887949
0.221055222487422
0.215556225569699
0.216254382292883
0.215050304719203
0.211308404360455
0.210846099497851
0.21049139222153
0.213379376773874
0.212283639597333
0.210789316673924
0.210116664787319
0.205993503612136
0.206224995969305
0.203348010973439
0.206340566595967
0.202859929005051
0.205994482389809
0.201254552476968
0.204650689166361
0.198640923729775
0.198939032324152
0.196198773460014
0.199525482240457
0.203212401901798
0.195899457622185
0.199176439600859
0.197874612718991
0.196723677945781
0.196337550787822
0.192845456496506
0.195443760561544
0.19689208297093
0.191441893796288
0.190003781864857
0.192908118147802
0.19163639235012
0.190399092161839
0.191508361802261
0.188611598667818
0.191493002303919
0.187773879393579
0.1833094327471
0.182923465902071
0.184821477550211
0.183664427986214
0.182600290161164
0.182371214156644
0.185666471475709
0.185391379225809
0.184186732420447
0.181270792278358
0.180727404530635
0.183496239937303
0.179753078333891
0.178928854913916
0.17849815029495
0.177060474445098
0.177817153379765
0.179227482468413
0.179694906687136
0.177574612507524
0.174993596234251
0.176904081976939
0.17494942264219
0.173100846026073
0.175774378157564
0.171802665199618
0.171828866834826
0.174019646352953
0.171813185163136
0.169679324386496
0.171113451314105
0.171453428753888
0.171131504183214
0.173516944886352
0.168095526792707
0.170725409296422
0.169344144091276
0.169645479643376
0.167735416347849
0.170608754053457
0.167698658923769
0.168260928901349
0.163240459481771
0.166735053085509
0.167402577047348
0.168161375554357
0.164952408231779
0.166444775918154
0.164784712781689
0.164123455644477
0.1623646519256
0.167121999173908
0.164880580134755
0.162502535748303
0.165965863415706
0.163206457575366
0.164214220544955
0.165224399139303
0.162185255233298
0.160037774966406
0.160445715200327
0.161505605588973
0.165225810253936
0.162262526071047
0.162380955465087
0.163561790619126
0.159808946114594
0.158856192514023
0.159850496270063
0.161402608515878
0.161440404423436
0.1569936746933
0.158466073430692
0.15694866446783
0.158023892513263
0.156818183431342
0.155639478634338
0.156957087945483
0.157447247090663
0.157891959043371
0.154041479853745
0.156642665442188
0.153480619533951
0.152866963886483
0.150481629551834
0.154118345907964
0.152543371597927
0.150119364229371
0.150296873310188
0.154279315084126
0.150972435099201
0.15062271557283
0.151604480524787
0.145943722801317
0.151935264574659
0.144675341783719
0.146044933268363
0.150704014493032
0.146587119531087
0.147301489418975
0.14456208142081
0.148240232810684
0.146250519217422
0.144441922796076
0.143840223634687
0.144683038441401
0.141991448945472
0.143875346824664
0.146295008016985
0.140798240052965
0.139465967111803
0.140873175953349
0.139677869556646
0.139292395817676
0.138744273743744
0.141643426525901
0.141667785056239
0.136810508279981
0.134288598884307
0.135914132372925
0.139866516700098
0.137915791611481
0.136508309157571
0.140847496149742
0.133703904561257
0.136482784022297
0.132076913826252
0.13555733852409
0.132235878692818
0.134593206751277
0.130338765740994
0.131771362016608
0.132827080297658
0.13093032542914
0.12878181229284
0.131787991681253
0.13047451607446
0.128743629054809
0.126234500388963
0.128171301278734
0.124444858177405
0.127625472606776
0.128192186831259
0.130682851829864
0.126176998008885
0.126522705652769
0.12391316559809
0.12126786171734
0.122333170927038
0.125761874808841
0.121046594257231
0.123340577755218
0.123819148544187
0.118950848444665
0.118732380328011
0.118772044972712
0.119719799756397
0.117639801329712
0.117851230123238
0.11949601325368
0.114234687820816
0.116590938279226
0.116548509101442
0.117500681665364
0.111019467102168
0.117319416320722
0.114744103341706
0.116441482576693
0.113711386484732
0.112005487156277
0.113911561103663
0.109836561774976
0.111200647662603
0.111274074859262
0.110603769918604
0.115146108969531
0.108076363869328
0.109303073415277
0.108516734981403
0.110575942957598
0.106898567269011
0.10858640105595
0.1119325049251
0.109473220945549
0.108320201984685
0.107308571711231
0.10666324309625
0.108465982683651
0.106185374158259
0.107719875216872
0.104977036528874
0.107184496942869
0.104992858966998
0.10606013131003
0.103091816747563
0.103068496546527
0.106684103839884
0.103345438909506
0.103006078102699
0.101690603293102
0.100711210455773
0.103380960983354
0.103638367381172
0.102138949746264
0.101129620418417
0.0997180299821631
0.0991888928805571
0.0985554255509669
0.0987618431121488
0.100240883559313
0.0970052746199862
0.100862903467209
0.0977926861309709
0.0982230266292739
0.0962071612085828
0.09932997241087
0.0973408590422433
0.0974829184276778
0.0941944063077416
0.0960611817581536
0.0970388922190758
0.0964145968438442
0.0982911142702032
0.0977691720970443
0.0968626981261045
0.101737058566116
0.0937019739562835
0.0966521305141612
0.0939695191261873
0.0942896891699486
0.0903949802207956
0.0940534980552395
0.0943028405304561
0.0962203458760594
0.0930068822950955
0.0943148582164833
0.0920895529803137
0.0955915577770183
0.0958344453936311
0.0937523239458277
0.0926096144952912
0.0967987643725081
0.0931293083866676
0.0958373236091035
0.0937983263178463
0.094784876762231
0.091158500171409
0.0943975933313339
0.0948575187013267
0.091377402194946
0.0918041254015792
0.0924425381286282
0.0903933274389357
0.0903131556511529
0.0915011546148882
0.0886772625273369
0.0891859420809255
0.09207155185584
0.0918327188073171
0.0909089859216724
0.0889396741049366
0.0871357847020992
0.0911210222976567
0.0866542403269593
0.0880852802208041
0.0874388844598476
0.0872932759893323
0.0872740187692437
0.0890391874079684
0.0885306135863991
0.0878438053204189
0.0859295484893952
0.0859688568113596
0.0869838035885999
0.0867036972597887
0.0839635313127794
0.0845131209211297
0.0858479984573528
0.0860819903222618
0.0870399366076047
0.082628798829559
0.0837526383700065
0.0827529087876522
0.0847691060768801
0.0841786459843454
0.0874448733362276
0.0832077545101659
0.085572546792752
0.083525302815958
0.0849841358889065
0.0806760836686804
0.0849397063211869
0.0823971949254531
0.0837111605803185
0.0800979681585093
0.0822254746429428
0.0809652834429094
0.0827474582576339
0.0852907287754962
0.079876493787958
0.0798181905986193
0.082215398875668
0.0838850160771105
0.0813031735860177
0.0812405459909552
0.0827674863458232
0.0823241496375588
0.0792412175914824
0.0782799934686058
0.08117654383277
0.077428604457091
0.0830250345736751
0.0807497382926902
0.0807384536936039
0.078609733929752
0.0802006004576701
0.0766704072835226
0.0808130320254007
0.0743983616585656
0.0778057971822594
0.076225211957057
0.0778630333824847
0.0769407210459639
0.0770300259650537
0.0775520019771414
0.0741094019084941
0.0731773613587039
0.0771426081239901
0.0742092948468462
0.0765571454153561
0.0742530945569783
0.075656096592567
0.0749712816262576
0.0736721581162764
0.0751506818258296
0.0728690012302126
0.0737619815533312
0.0729506742352694
0.070825653468719
0.071307927472211
0.0693727943450174
0.0707778790594978
0.0686896437693765
0.0707521100124354
0.0703660011036266
0.0701071592447266
0.0690425289392651
0.0712600855469265
0.0678200509485735
0.0714088468559661
0.0703933984940416
0.0697505336470855
0.0686277445284359
0.0670216284953879
0.0680794593937511
0.0679016715198598
0.0676505841305323
0.0696071864560924
0.0638917594887903
0.0698141779475859
0.0671231190737964
0.0696012854750616
0.0638171682043613
0.0646125790540509
0.0661945089954077
0.069518528152492
0.0673510649201744
0.0687925559512695
0.0628536115181382
0.0665973459041641
0.0651976625072404
0.0669385077260939
0.0647924616104553
0.0661606445376431
0.0601471118792015
0.0663475469605564
0.0643894738020389
0.0666763244990589
0.0636421613337652
0.0655647246010044
0.0603951526898913
0.0644092654393513
0.0619044599370028
0.0637209251362577
0.0608069779147122
0.0639448452650439
0.0609080889741628
0.0643298037276962
0.0584211927112643
0.0608071220507859
0.0600798656789518
0.0624230097057024
0.0588043196004186
0.0620254303886816
0.0589036554742693
0.0630308457496336
0.0596528073324579
0.0608586411997387
0.0569283504398984
0.0607366308412755
0.0569208940578533
0.0601909111278709
0.0566274803262538
0.0577832089109857
0.0557804709738396
0.0590810717157425
0.0565014812725818
0.0607856325277053
0.0561589794266929
0.0587503079208601
0.0578705985545195
0.0598447628904979
0.0543206745520718
0.0566168533851591
0.0558077392208813
0.0586866009058648
0.0556450511273997
0.0554851794967673
0.0533488887140061
0.0570462363637886
0.0564591693324477
0.0599727065508026
0.0550890801604161
0.0584734459448858
0.0563271529055526
0.0610903235964556
0.0556536822704457
0.062494905716457
0.0551091339872819
0.0580119731990898
0.0550623222372201
0.0610717923169448
0.0568835845009682
0.0625582476534929
0.0581489190280639
0.0624634906590594
0.0557475975318646
0.057606489751685
0.0544844995923215
0.055773089924229
0.0408372465670985
0.0466299668980499
0.0470669497633539
0.0522740518515588
0.044208319393349
0.0496540776060377
0.0438448204594492
0.0533992850469081
0.0422516828977228
0.0550957229452009
0.0397342255092724
0.0482547762963101
0.0442541428146675
0.0510085139200087
0.043416375191036
0.0495353150999168
0.0429408771252849
0.0570180507599082
0.0408195933364411
0.0594516675943445
0.0499823547443619
0.058887635202733
0.0442243403806787
0.0614104263693304
0.0393468753347639
0.0555645065655839
0.041392059022425
0.0500327518260862
0.0413478851813013
0.0552376479157706
0.0342012102968377
0.057641917236628
0.0431360788682221
0.0584744666801638
0.041148189230287
0.0542083954778866
0.0328859529029048
0.0448176811824819
0.03450202747648
0.0499540941414329
0.0508482564187912
0.0558480808968932
0.0502987845338299
0.042509477957272
0.0481760264323914
0.0411556776163114
0.0629003263384452
0.0456177209560792
0.0578384271744855
0.0310517910169613
0.0739055549044427
0.0341303357000433
0.0726489649461411
0.0199116146653835
0.0853890484235758
0.0268607084958281
0.0784946322528461
0.0274597783230535
0.0777366581609827
0.0296927321163881
0.0720770557760286
0.0410888332868127
0.057928757194642
0.0464883928179233
0.0531422863025039
0.0517197723565733
0.0469763784875684
0.0546491966171783
0.0451699391544508
0.0548509491012867
0.0518865967731634
0.0457961194094136
0.0572124514830168
0.0462030795006432
0.0539727990273195
0.0458492879202314
0.052362215947679
0.0440752113937558
0.0502220521397611
0.0455671231119031
0.0463074722104538
0.0452831370365406
0.0490452192006595
0.0470705861313126
0.049244767476164
0.0464216355235082
0.0493724738131214
0.0459496002122838
0.0486578174582331
0.0469257832153623
0.0481480136852543
0.0463537440032008
0.047809074009847
0.0465555211020714
0.0496804109242202
0.0451462165491082
0.0494985901110889
0.0452047418780763
0.04861959651009
0.0452049210538296
0.0464341187309612
0.0456355120519145
0.0473036585802581
0.0455379903976028
0.0488990943170311
0.0459771176436108
0.0462659309006126
0.0472896703085164
0.0461942808786309
0.0444372074483344
0.0461021972180495
0.0474371956246385
0.0495993546775771
0.043668457340713
0.0466239641928958
0.0452182334404928
0.0473065450995642
0.0470072738457138
0.0468507189207366
0.045770811886438
0.0476912986506016
0.0463838435820392
0.0462070790519325
0.0478109908007647
0.0479505695049106
0.0443376422044307
0.0455589628472808
0.048256521033383
0.0433466740688084
0.0448220308909936
0.0468880476079198
0.0464750953779605
0.0448093435464991
0.0458396860409514
0.045309349182591
0.0451452542289709
0.0448924548726171
0.0446126651742042
0.0458885010648811
0.0472477729466629
0.0448959840974938
0.0434711747136401
0.0467437904227719
0.0434121017371857
0.0461863176305993
0.0438313753225102
0.0454510053141554
0.0478676648969463
0.0439238335582198
0.0448393465848272
0.0448373260158655
0.0472557307741408
0.0462580802323766
0.0445293284769454
0.0457166204479458
0.0455844504148086
0.0466569339093082
0.0463650369334088
0.0450273723217196
0.0466950286614103
0.0458761411939245
0.0460461536701238
0.0469638204410299
0.0454796908603425
0.0454217581680309
0.0433283403160547
0.0464961817962079
0.0455277836231846
0.0472939413740063
0.0459712994697632
0.0478402032028232
0.0470520052251631
0.045972461406621
0.0471636501628892
0.0460798916024229
0.0464182295535043
0.0484019654005418
0.0449855733005974
0.0456900088199828
0.0480342644312085
0.0463728933013057
0.0463918373968549
0.0457388958027978
0.0477499081056258
0.0473902270302517
0.0481002840522936
0.0460988676673559
0.0476426281816016
0.046501515750386
0.0444243375857268
0.0454545170920445
0.0488844104503004
0.0454554958090651
0.045859459301806
0.045207386912332
0.047572219933206
0.0461828541986687
0.0466391533487889
0.0450168945990671
0.0463824627748827
0.0454822387516478
0.0463736185879983
0.0462266517304675
0.0465526374482549
0.0459906846346039
0.0471318538065308
0.0462765858708191
0.0464915126479392
0.0468392315250799
0.044683733793166
0.0459823204767435
0.0459292675581218
0.0440568815919566
0.048144244319142
0.0472471853288663
0.0476986138742977
0.0464759685813912
0.0468519181848117
0.047644345470447
0.0469480112695111
0.0457027526635216
0.0470544684579989
0.0479153000062178
0.0497137668935012
0.0463408217113463
0.0451654922044232
0.0457104842334438
0.0492709991573648
0.0484186885942077
0.0465064737678812
0.0474194763397135
0.0474531592117902
0.0467795763270064
0.0464003399989542
0.0461015168501739
0.0504945967338331
0.0476553881248911
0.0474215332446937
0.0457701789001581
0.0496902238359877
0.0471696777396008
0.0490491955493834
0.0478141990043534
0.0492328834856295
0.0483816210265766
0.0462620947595047
0.0467677815012784
0.0465380817159346
0.0449710728115383
0.0456393192629416
0.0482622653870745
0.0455044967015371
0.0443881340946501
0.0444399835373234
0.0437725659777862
0.0451731129597086
0.045975840356203
0.0460648739197306
0.0434528560375576
0.0442317018139104
0.0435202505322455
0.0447252877065593
0.0452056754001971
0.0455991542775645
0.0439321169746624
0.0467050043722937
0.0447650021447001
0.0444983591543263
0.0458168382918226
0.0439448214820873
0.0442135117594235
0.0450877292668259
0.0427178972434246
0.0451244212209377
0.0418397842177041
0.0435720223217966
0.0453444771637592
0.0447759923134068
0.0451237648978928
0.0446269458601789
0.0417482477664153
0.0451072066849656
0.045010240935929
0.0440072046736045
0.0443214513176375
0.0430290537547941
0.04360581658357
0.0447505298011627
0.0428521878823573
0.0442011087068174
0.0437673272611174
0.0459081615196625
0.042216589115989
0.0448149387084875
0.0427148806894552
0.0459029710905938
0.0425922319881528
0.0420311980194961
0.0438354844653286
0.0449512527473264
0.0435846645043138
0.0441233015629358
0.0433246455478193
0.0435095081723436
0.0417323425546222
0.042589656384757
0.0444158507977575
0.0446312876741888
0.0417862207092416
0.042783600428111
0.0407341912690528
0.0442150959300483
0.0428306289184449
0.0435289563670852
0.040783140073895
0.0423867066909584
0.0438450018219889
0.0458834143844988
0.0403472436827316
0.0433925120951055
0.0397987495303737
0.0424723038668664
0.0441730911553565
0.0412981675475973
0.0401513628728132
0.045454857040257
0.0447519787756186
0.0461080130791742
0.0424564503593514
0.0443663061948797
0.043466090619386
0.0429641449942001
0.0419651430311103
0.0410096727294204
0.0396217054802949
0.0431127608897283
0.0415512414181599
0.043025908952958
0.0424999948280504
0.0420947034345858
0.0404835219627473
0.041835843572407
0.0408110594757537
0.0429633669820837
0.040830548530276
0.0407149539023398
0.0415074622636363
0.0412848300219118
0.0419422598988809
0.0409014570670886
0.0401001218369612
0.0451061443443781
0.0430505868819814
0.0424289581856476
0.041888189232581
0.0445904866250431
0.0418277526527572
0.0420093587289925
0.0434558718921553
0.0419033386233822
0.0383987467344093
0.039281193055654
0.0393098509097232
0.0410240953620464
0.0399763649430563
0.0417534993530962
0.0402027917355929
0.0424412331725729
0.0400830710437647
0.0409050953320386
0.0403471001163611
0.040603256565707
0.0396420491623076
0.0379031881162559
0.0379625747290381
0.0411452995058472
0.0397703053107904
0.0437808610641807
0.0421887887240636
0.0443086401258952
0.0374066124186659
0.0384019987667693
0.0363952296851623
0.0408889932596438
0.0375008216846008
0.039266725547494
0.0394024558260944
0.0371064121741846
0.036534529265899
0.0392438100906107
0.0350814063287201
0.0376930885174306
0.0351072719620557
0.0378100104554774
0.0329900657779892
0.0384442651721748
0.0378105245404757
0.0405004841548152
0.0361657117287484
0.0373230235939462
0.035131375313966
0.041001353488503
0.0328579356684065
0.0432403724083167
0.041519812678458
0.0498845026603493
0.0365503319275655
0.0377489620958404
0.0409855449719131
0.0412644929183532
0.0386704050815082
0.0363647381170877
0.0382419283892401
0.0361346411630764
0.0360893760011403
0.035944043649514
0.0351471541303555
0.0370341303982005
0.034004426719839
0.0357175899983155
0.0354165590378101
0.038268031575128
0.0342928006734233
0.0360879994550771
0.0358173420143745
0.0367065198961167
0.035502621662864
0.0360218870279543
0.0341992342093771
0.0361191238505471
0.035596935964073
0.0432427641592308
0.0430519513059562
0.0374857464524114
0.0347773499462951
0.0331877749134318
0.0358175274726203
0.0347101832458247
0.0362651512110195
0.0351538995559167
0.033495560548102
0.0366892481996833
0.0360894876015218
0.0347144215648467
0.0364695882513666
0.0390100048291958
0.0350177122968448
0.0356172992751982
0.0344762435767242
0.034416585543616
0.0372199063754926
0.0341381586391546
0.0343811743889033
0.0355682019765471
0.0387609770418078
0.035672914888465
0.0326955514706285
0.040639360606957
0.0519289577001336
0.0411379063790877
0.0324346640116588
0.0369983998438186
0.0327865260451639
0.0362526879538361
0.0326723218534749
0.0349841778471218
0.0316911473521672
0.0347941825113642
0.0345989800873096
0.0337838185745861
0.0329413564550041
0.035901746211258
0.0306562306496714
0.0338073565704404
0.0327436510832164
0.0370974969626221
0.0324169144919142
0.0366725922726904
0.0399721178219456
0.0487218035531622
0.0406049634137638
0.0367743680945025
0.0316587533236899
0.0396082672165472
0.045071165095658
0.0495728489939705
0.0261111310087601
0.0417650786689304
0.0308373358373571
0.0373943677312419
0.0286991097490335
0.0361091135635202
0.0347217992734869
0.0430335065136405
0.0355971125362808
0.0389699942657247
0.0328245885913373
0.0341093996048707
0.0313355933345496
0.0355449484151207
0.033547492550788
0.0328190164472051
0.0318535219330816
0.0343238757804187
0.0306821205744019
0.0363523500580255
0.0293788297107151
0.0358108314726384
0.0366423552737722
0.043702233945664
0.0308072013211509
0.036785864804766
0.0296663619278425
0.0348460408184023
0.0413943650426738
0.048985677877818
0.0369170369068419
0.0317249181686293
0.0355871918692034
0.0336419912356228
0.0338043395481978
0.0317689827471967
0.033186190691526
0.0318504673252112
0.0329671561579594
0.0375302632178237
0.0341814314049231
0.032475195810534
0.0332381554416977
0.0348678077348925
0.0325376537730751
0.0318962215353759
0.0317598697165991
0.0343144023330246
0.0318869223258572
0.0437549850043299
0.0486023123850704
0.0662694333346541
0.0452867827653562
0.0489650058750648
0.0383705656556435
0.0349267918437709
0.0326257324455066
0.0351551413208294
0.0342163467012425
0.0349016375304459
0.0331306462153788
0.033195303743263
0.0346872888058171
0.0337719649105268
0.0329652588089064
0.0341022837803286
0.0306775426296489
0.0314704747023169
0.0334634320356341
0.0314547891381477
0.0324147899659241
0.0291436341855607
0.0368487455144121
0.0400275982429475
0.0481247584310095
0.0302622384646431
0.0498488106149732
0.0526700394418797
0.0683307042134823
0.0402746919826603
0.0405093329099852
0.0344784693797683
0.030921870092581
0.032935474618836
0.0339269071967802
0.0401344905300978
0.0367885478986844
0.033931162559627
0.033565737212254
0.0372733757606808
0.033072566528925
0.0368457429020414
0.0484767072369209
0.0656648972134923
0.0514725265533475
0.0357658470875598
0.0362314599835341
0.0498200433614319
0.0584358436840587
0.0439463101242433
0.0317626287824676
0.0433253883194097
0.0306345011280539
0.0378493701542197
0.0292886974886824
0.0401830935626893
0.0371788167279602
0.0385526672974686
0.0333538523149397
0.0342869615978261
0.0332081563903926
0.0393451204255985
0.0409445051889921
0.0494362560661509
0.0470163284270241
0.0406649169852138
0.0372403055177429
0.0444761984627681
0.0314988609249589
0.0382471871275141
0.0319002350740152
0.0385774812785849
0.0480759354525194
0.0534430020358107
0.0437832443461779
0.0509046264705824
0.0467531207657116
0.0402621511848327
0.0369361726241293
0.0558436849229147
0.0367009959562091
0.0433756522026484
0.0431205389271734
0.0704729987138045
0.06592177749272
0.0528573250085348
0.0505198763787504
0.0336475722247818
0.044220766153653
0.0281125973573084
0.0490339968350949
0.0448416600206624
0.0528373937360027
0.0293879782679465
0.0450714127578353
0.0437009940049542
0.0573228223605588
0.0421403675522209
0.0446513583073436
0.0367239169368519
0.0455578890747239
0.0518021200642017
0.0474959522480592
0.0487187458485309
0.063345151545558
0.0853290754947066
0.0600555131041944
0.0492291406407699
0.0483140698398346
0.0675410063875597
0.0556090487633483
0.0353937338052045
0.0471432054776348
0.0382077530286849
0.0425871079598453
0.0518989218626292
0.07011887374274
0.0554636384699655
0.0413885738786418
0.0455834899281709
0.0499166896787842
0.0613976178866745
0.0612491605292029
0.0410454756497704
0.0490181739351526
0.0385287055064899
0.0617576051725812
0.0695016462742384
0.0796080934021293
0.0600474794253274
0.0749232973382433
0.0726082451432101
0.0635080678844304
0.0603191411264896
0.0528675296931899
0.0703832077122348
0.0699555185065044
0.0543361211223152
0.0508050626564443
0.074312941051109
0.0728128716023824
0.0674208976878993
0.0512777422427085
0.0589634610521232
0.0563836490019841
0.105195419658136
0.121015062956289
0.0919548277457498
0.060555510339267
0.0725974758947065
0.0818645422592978
0.0715825938853881
0.0533481857558476
0.0597098442881906
0.0591982822812858
0.0589563599500177
0.0629568399530591
0.0680353031824895
0.0679989333528549
0.0627062987351246
0.064577607869034
0.0739410805595407
0.0984650002849526
0.133260898247127
0.0998252377098537
0.0995339231037828
0.0932119324520229
0.109862316502408
0.0776492791499868
0.0741120993328795
0.067937899350635
0.0848317584905778
0.0775166795496827
0.0737944476130745
0.0799165767513762
0.102225774598161
0.0998312672424417
0.101190419297097
0.0955797049097759
0.0939056797115089
0.0822644300744925
0.142489893752323
0.150585485013256
0.156410458346454
0.0901772677769996
0.128803704652221
0.116949902219071
0.1715387184493
0.123838268339356
0.111458916948355
0.111325585803952
0.117522751487767
0.121697424638392
0.141339504281633
0.140065762856254
0.152269475828097
0.136365047746845
0.15264420012503
0.15073832822935
0.258666448326353
0.217141086435875
0.178832362950357
0.16445689004423
0.189104407566282
0.181029770164633
0.179061650618511
0.168929874524398
0.183229286292079
0.20389703573387
0.22982108382032
0.209705353133449
0.189400008010517
0.224827236905166
0.221283855175297
0.233883656135802
0.247584789562425
0.268469386277394
0.229509256368191
0.231140149412458
0.23319820503046
0.235216632401379
0.25039091671863
0.268792231077101
0.280200460281933
0.256743895851096
0.263910405510899
0.264038090724616
0.266350837604421
0.274042641726323
0.273577134290481
0.283256801833117
0.321343148117333
0.37529910842339
0.423612840310115
0.3254503036573
0.285899011731529
0.279980923232277
0.300154773935492
0.310495974900463
0.338572979397914
0.314892963998677
0.313098051478748
0.282535267183115
0.279904867713566
0.28390369090051
0.282416503808535
0.286424211086906
0.279009644871816
0.286402032474918
0.298267067936837
0.304437141830828
0.327855899882286
0.348663863492449
0.30032372510266
0.270633469052503
0.277651856456762
0.274092994094083
0.27811837583338
0.267667320477091
0.294467686023059
0.282507496976911
0.277173772243255
0.254140086178168
0.26667679441542
0.283349725103778
0.2945868837408
0.256918264042092
0.261853951710923
0.253612011982364
0.245638487277458
0.245729016504191
0.273986611693581
0.278966039545039
0.262726350210244
0.227776288752503
0.241622664015065
0.228308030471683
0.235751764174213
0.227198356207778
0.245172882590484
0.232418451085947
0.237878164500751
0.231105290156621
0.234384085871928
0.22100262245069
0.235783460786248
0.228013501606889
0.232334582700521
0.224486174539247
0.2309489471221
0.225608391050081
0.229327685389727
0.221548809811413
0.232683265203608
0.226476339145399
0.234405215010516
0.230020207882802
0.231633346671299
0.229683527282504
0.234748302269014
0.225290859690327
0.234290547371055
0.223630267492488
0.228767787174748
0.225127584015559
0.228851592948967
0.225104960939136
0.231798180924862
0.229013220425871
0.232544970209059
0.22598919291064
0.229162741922727
0.224085486879936
0.225850165055501
0.240830510669832
0.280480069338273
0.249970528886237
0.223262227736417
0.220297353500322
0.22560960798119
0.212075319216993
0.229927832017911
0.255302743075968
0.248391506216226
0.214148373759382
0.214188194237781
0.207681050467305
0.233375503586114
0.214656552928543
0.213665471129716
0.196941867180725
0.222397203644445
0.24066578052216
0.299476687078795
0.312016460812586
0.304702525466544
0.229854187425026
0.205666706573448
0.2345709016733
0.233442853465496
0.213074071109983
0.196104531273928
0.206288942019446
0.245928257260684
0.220810013299421
0.207186131281193
0.197134311957288
0.206934425235186
0.233430438142274
0.233038455927816
0.225033425735273
0.241218771099948
0.237212935808749
0.237940883167921
0.262510848695653
0.288846991766437
0.222125048159723
0.192316382676047
0.186956577541349
0.189762086566638
0.210128108368464
0.240176831410858
0.201851299611749
0.19965467085393
0.178949400874295
0.17783360657425
0.183173495556989
0.211146722843443
0.181059340226232
0.209933391553895
0.197713340303668
0.18210503753671
0.185291044024404
0.210457260797499
0.224478994115142
0.234501119119424
0.180773234218019
0.171920894727242
0.214733079489071
0.210555231472351
0.185085487377935
0.178207839216756
0.150133448783128
0.172044046311591
0.167729317639196
0.160439654909594
0.176467920859309
0.183062190927415
0.19298614882966
0.222501737421494
0.243715202404095
0.210056043617397
0.157549926600128
0.144384937841829
0.137953156851181
0.151097910419338
0.133727955667069
0.145605197839004
0.171143074353083
0.153628169440288
0.152199782507663
0.189378455586991
0.157304009772464
0.140173170442971
0.138660916407257
0.141393025248225
0.152768687524666
0.183807245306835
0.198507864671274
0.169258352864165
0.175706748295866
0.175412861537178
0.161726313294772
0.154903950543547
0.156896199168643
0.156067627409786
0.162249183114007
0.17619265900561
0.169012177630643
0.172130978557752
0.172985906435808
0.17899545059405
0.216773393237063
0.205603446998802
0.193157782096719
0.221745630835047
0.239053408711474
0.265718651092098
0.222805349228572
0.212008620843285
0.211857710371408
0.218428860044198
0.218669596916751
0.217749390759568
0.24265969014007
0.254041474514187
0.235919421197576
0.237181866003512
0.234061773051493
0.239635852668711
0.248199293430257
0.283081979247214
0.287700404279643
0.327111760858491
0.299129238043118
0.290567156400808
0.257682342189337
0.260317352327023
0.263240950409546
0.27055885362358
0.258604723457198
0.2566057072803
0.272575446273989
0.29566104635378
0.267682107152452
0.26676918061316
0.267562481462132
0.271422887384542
0.270291185910018
0.27684180322053
0.268590962419404
0.278501232230203
0.276677961755854
0.280802637599544
0.296439953271283
0.359185927976592
0.307232432456695
0.295011141328631
0.294351293532177
0.304851569533078
0.292957394794964
0.303916639557664
0.320135523062204
0.315212640650048
0.303702128393597
0.308796027805288
0.31001335499005
0.309312480193231
0.328102335978195
0.341033057400934
0.312167402266878
0.320900188100763
0.316654698442649
0.374342434109638
0.364762126950609
0.352321591171353
0.342381870414834
0.339138453362281
0.32353329208754
0.329131456770047
0.32160783203214
0.332913749265206
0.331565674601327
0.332885686800052
0.330269750993921
0.329638414627913
0.326480842257599
0.328423062094501
0.337787033456726
0.356696850668136
0.331785605509014
0.329210712289741
0.32993550666519
0.327770324957421
0.32908245582102
0.358086541116652
0.344024137558774
0.336928339237268
0.329885771580852
0.347988198227273
0.353942025234969
0.340706614598916
0.321621076968895
0.326234797857554
0.32278180494069
0.329742536229275
0.317296767261459
0.342017885418333
0.355938258914016
0.3398854814126
0.323995883742645
0.331980578425326
0.325980198049203
0.331660227255499
0.328356226267703
0.333961696191074
0.32996144477483
0.339076675864819
0.337787604027672
0.336379707296206
0.333738008085266
0.354216204661211
0.360946260556335
0.350062570588463
0.334316950843055
0.336225905305652
0.324196903389603
0.334156983368697
0.334689699487508
0.329777537375483
0.320993602673396
0.324210035849539
0.309161905811717
0.325329636308499
0.340047778222888
0.316720727367539
0.320546104886154
0.304739578874008
0.296956917263699
0.29965183985641
0.296128898677487
0.294689387060703
0.293180266974065
0.296238500306193
0.285664599310248
0.290152872714954
0.283714308554518
0.284330047372219
0.283959980139242
0.283876843249971
0.284005668343846
0.282183824464696
0.280688080411928
0.283886044076087
0.283706492086299
0.27948327680647
0.280058658303532
0.279773770494627
0.295236161601516
0.301643480233919
0.303111747579322
0.288897051255031
0.28694335378776
0.285308556043857
0.271987891746236
0.285018696194198
0.273424718855592
0.277865571513026
0.274477302711512
0.278379504601386
0.274064034205681
0.275737205096641
0.275303604734621
0.273798185910733
0.273098932608116
0.277835125752411
0.276110065297023
0.275491560697754
0.272113284323659
0.28098468660855
0.272601988053996
0.289581470749466
0.276437899271086
0.283964296636833
0.276781592178204
0.279440588422793
0.274999414085116
0.278706854866439
0.281837025973517
0.275615036395256
0.2758651067975
0.275244308246771
0.275547666477026
0.279517724629193
0.270740253815277
0.272352288847299
0.268880149735301
0.273298609128347
0.269636441435337
0.267635300224681
0.262913801397578
0.263823328672401
0.257822820840763
0.259875232757959
0.257048498764563
0.257027539393973
0.252429226685064
0.252038717527801
0.247178287480007
0.248540309480871
0.240746262090702
0.241007439952827
0.241900856645756
0.241742933513844
0.239329497075306
0.242916310347332
0.234140717779087
0.23558615282264
0.232609967066066
0.233255139018511
0.232234873843066
0.232883350967867
0.231198348656211
0.233064529568177
0.232870646124411
0.233099315914441
0.232716178855932
0.235087243126598
0.233482226104688
0.234369123229297
0.233603914906664
0.23701908945556
0.238718182481676
0.241450287562173
0.241349583835601
0.242530324970971
0.24026375964924
0.24335305566934
0.244736939230595
0.243080007585978
0.246798364520591
0.247368317242791
0.245735880873303
0.251064845594717
0.24913668979446
0.248762835140153
0.248779780660301
0.251251298003224
0.248741992193452
0.25131059289127
0.249287838769992
0.249932126585962
0.24767751809693
0.250101317169562
0.245126870512456
0.248225142490627
0.243693452252819
0.244449401339633
0.245873065117189
0.245182625702386
0.243598112312373
0.246773882533331
0.245969815565718
0.243561298943734
0.239582726288423
0.241887148406988
0.239460358880097
0.23836389437367
0.239268140928784
0.237107190235639
0.235396829374258
0.234735846155871
0.233603442758984
0.233785349806434
0.232895901533157
0.233338204263425
0.231465202975698
0.232761819974332
0.228466666835111
0.231332829940641
0.23127207005353
0.230129982313279
0.229387259627571
0.226656457197629
0.224427723099267
0.223032793981982
0.224976147676746
0.22460141189994
0.220849413127321
0.220733263360215
0.216904797057391
0.218920835376255
0.214217166124575
0.213817563950252
0.211907961196245
0.213214002011851
0.210705245861471
0.20714830035467
0.207072008792644
0.203815611559948
0.204271436072919
0.203078002497053
0.20055591548045
0.203439919118959
0.199634284941832
0.201471674020648
0.200794588886507
0.200717958619505
0.198463104918972
0.19818217186086
0.199663466345329
0.197971525985764
0.195231742775458
0.195662766445325
0.193749887452195
0.192179486412513
0.188125123205274
0.187980069780845
0.185036485472011
0.184766298454247
0.18151004179942
0.180651662324597
0.179420848110478
0.181146199203239
0.178223926635632
0.181043450486404
0.181975853951335
0.18654417683981
0.188682604195474
0.194637073273072
0.199977513026178
0.205062778788749
0.21389748416009
0.22090561522934
0.228817560509963
0.23958944941965
0.249097803919539
0.260374879438841
0.270380315291303
0.27881593923923
0.28925642762428
0.300618551619757
0.309111972913495
0.321438641715164
0.328563936501446
0.33930416729887
0.349521468871478
0.358347440883408
0.363959155916452
0.37635159156547
0.380501397498874
0.388502187081885
0.394646317216021
0.402476881081786
0.407304208298149
0.415596616027329
0.420319138102012
0.423606262543936
0.427502221124564
0.431667622922129
0.433102694062354
0.435578155097
0.437077423472706
0.440181608311098
0.443034747038111
0.442256168203379
0.444543891794399
0.444071939273327
0.444627847467382
0.445613784800257
0.445762989178961
0.446320086397658
0.447271784512115
0.451690735285364
0.450599680974759
0.454332151029432
0.454206085476225
0.460345895900391
0.464515633455378
0.467909828427875
0.472372285076772
0.473888854087611
0.476922780510048
0.484337388485586
0.484419569070962
0.49387397174807
0.501218102063395
0.505732299038816
0.51244792125076
0.519669486512897
0.524616413330378
0.532839540866385
0.540668290546626
0.550282548110529
0.555821603381936
0.564676969895644
0.56953328355788
0.570495727480317
0.574758616961992
0.582272302597589
0.576982719514973
0.581437248592863
0.575236395938714
0.576180165279035
0.576882759932843
0.573565966821573
0.56855047186054
0.569613653849383
0.568371315538605
0.570197391222539
0.572130612826027
0.577250281604578
0.581576730810161
0.587605976098366
0.595013922438706
0.607631471817791
0.616562466336291
0.621709499317675
0.634925938675061
0.645052282040493
0.65332577344509
0.663410370635679
0.683331897803002
0.693057915025923
0.691019205982807
0.712543589597156
0.717041636489737
0.729709383259246
0.734325419898244
0.756428894426826
0.760063263440839
0.776570915829213
0.780400291383417
0.800783284892118
0.813292390149692
0.830308065704495
0.844899923978885
0.849692112428737
0.872711793398472
0.883450060379667
0.892225128565441
0.899949175665002
0.90316435711394
0.912689947320042
0.919720908715888
0.936362052641488
0.933042436840792
0.941734122880794
0.949352156352189
0.964836588337683
0.956133028660735
0.963445749068796
0.959071029145293
0.951961662077329
0.937307695985962
0.942963403263647
0.94505227687403
0.932635075283761
0.931036175024837
0.919452721182618
0.92418950725551
0.913179629473846
0.91479752609114
0.91254669361639
0.922879487959809
0.91651601984831
0.93236407736753
0.935047079492617
0.941986106793127
0.934833427510382
0.942271397123041
0.971845573374853
0.968934561946432
0.970405396552738
0.976515725475244
0.985989072645713
0.995165778108082
0.995264182859274
0.988693293843758
1.01226152642347
1.00766931572806
1.00203784695396
1.010517052468
0.995780097040008
1.00612750491951
0.988386342579427
0.999612235192283
1.00133632222627
1.0089561614128
0.988275530870305
0.992919762906808
0.977364338356225
0.982026053933735
0.976928093258892
0.968971042432513
0.970470072305265
0.969060195124216
0.958936231643405
0.938329323823778
0.93594531828828
0.925682517763249
0.92682180132119
0.921464458290158
0.908986089877365
0.894435785799445
0.87623202999601
0.863532736331941
0.82530496133313
0.812741655459827
0.790566072941498
0.765401147682129
0.73844952444379
0.715805586379811
0.690717542315932
0.66168367880476
0.633533009285012
0.61037741589237
0.590750200037927
0.56576148670031
0.552840474156739
0.536049858790151
0.522414135710189
0.513579581392543
0.51187461378704
0.503681700747347
0.494633327750978
0.490381786506076
0.485632170323591
0.484349342940621
0.482807985822304
0.473053364052733
0.467241259775612
0.465719289802895
0.456207888059085
0.448218565678344
0.443149518042434
0.434226694562121
0.426162249347724
0.41520037495844
0.408243411518558
0.395936467571735
0.381789874065329
0.370016693978993
0.359384013400882
0.345145197734863
0.331767284808601
0.319476323522482
0.301782895358224
0.293328412017903
0.278844188317094
0.263044439074438
0.250850904897935
0.240072756412093
0.230331933781167
0.218754923615883
0.207930716226251
0.201946341932162
0.189727024660694
0.183100625211269
0.177182586759289
0.175498092585945
0.170078935751744
0.164435351813345
0.160705157458544
0.154386079912138
0.153071525669504
0.150185467167317
0.146612984244331
0.147263242813685
0.151391783275755
0.15119868958791
0.145551763650758
0.150206728844845
0.147445582892727
0.150140411448635
0.149114801082854
0.14921596101765
0.149882664944288
0.150769359968109
0.148763783018997
0.151328586874783
0.152158280138127
0.153224605824162
0.149513716774541
0.148839047994929
0.147219514055053
0.147869471876989
0.150305919412728
0.150475218892966
0.142020882486025
0.145208613047845
0.147237910809275
0.14366805956057
0.141164410740533
0.146630687348079
0.142299599680573
0.145058126492042
0.141277727147993
0.143162338728515
0.145673438729356
0.146404066663038
0.145692979704341
0.151021854426176
0.149129742307109
0.148616690358619
0.150940895870738
0.156988679700196
0.15815023290408
0.160182844048571
0.15955021756712
0.161238703307942
0.160708155854926
0.161725712730487
0.162140774803776
0.168490954769547
0.168360216201184
0.164253340451442
0.164429211064638
0.164221774925296
0.165485822004286
0.164519182092847
0.170894995618501
0.170276579710765
0.169379656954638
0.173859441527533
0.174198193655907
0.181593570690168
0.183134442324907
0.184924578454022
0.188663145734165
0.194192380637694
0.198178640933232
0.211134690781114
0.212498137983925
0.218364706500244
0.224321726979646
0.229809169454791
0.227941768382038
0.231176273873976
0.23034954615629
0.234856694141914
0.220927150890007
0.226183003530517
0.221562768888756
0.217922698735871
0.211455371313323
0.212051976432145
0.201809970037926
0.199434036600366
0.194960431490993
0.201275975368794
0.198179563373941
0.200795049834306
0.197743640465073
0.196953577478852
0.196479883771295
0.201930539923955
0.193329141676833
0.204914400344602
0.197144717927711
0.192177969014586
0.197035906739308
0.194649255698505
0.184187526560592
0.186073294839366
0.18492447947352
0.178473520346263
0.181759594261182
0.1781607830732
0.178899226023777
0.176204460590927
0.178202534230451
0.175140536634538
0.172939179053452
0.177948149280751
0.169878390375285
0.167734287136738
0.165986052555341
0.167263703296088
0.170896581620684
0.164675671063956
0.163275720370125
0.16403226040969
0.158990251273592
0.153764061868546
0.154027882977416
0.157672291327694
0.152452685114646
0.154298979366669
0.154701386639887
0.157331555383566
0.151898222923432
0.155073490030478
0.147506845801361
0.148147951245158
0.150094522238647
0.14871519792313
0.142920491891363
0.139799988209743
0.144095979695253
0.139846752228508
0.141829635760564
0.145073975761087
0.139351422080876
0.143341788340751
0.131429572675724
0.143102490001422
0.137506776024403
0.137098492065569
0.137985754609592
0.146368254381776
0.138258453393877
0.14319851221338
0.138111716217198
0.143364747773385
0.134308380794381
0.140921539713501
0.146513207426428
0.140347293910581
0.138657314843623
0.151589218300479
0.150828858035339
0.155360987852195
0.151273711439762
0.149755878611547
0.145621952173085
0.152673274848422
0.150365336693787
0.153336263011664
0.157752288758908
0.160148877702304
0.161494963052265
0.171683695821602
0.166499076843411
0.175274784407119
0.16565136285226
0.179860621951693
0.183655380837269
0.178002129221822
0.17717019834896
0.194759581355101
0.188556623179128
0.203720527057723
0.214275777673049
0.220442124450552
0.221900783487014
0.231957964863048
0.239241484241743
0.255652370653148
0.258558972401145
0.258077185942973
0.259183795048481
0.273045904294171
0.272043527140458
0.280805239692592
0.277633114649304
0.28522252595817
0.281328349635126
0.277612605863646
0.277234095754704
0.281837192121838
0.274675056259987
0.280723430347379
0.272718337641938
0.272470208710381
0.269355499209094
0.280938943169962
0.252381003128796
0.264288313644506
0.262229578075167
0.269315591739587
0.248515013189172
0.246651123439769
0.245558485387902
0.266534448094046
0.251062863017631
0.242738342353978
0.24219007936882
0.254874554896372
0.233545136023589
0.248283415288387
0.232957712438792
0.23226874994286
0.215201213816546
0.22943122727907
0.223816577990661
0.228478618809132
0.223709549767298
0.23083739145619
0.226760450020789
0.238497588240258
0.233214806091354
0.233010071524079
0.226831876313547
0.229767360428007
0.217576445743124
0.244693432593496
0.224753397118868
0.22149844044726
0.241033640452196
0.251869186808387
0.223571050632783
0.233842833313248
0.23088664153239
0.254186339777036
0.260093597347323
0.221207357527142
0.215007468504136
0.228030562788351
0.219417422199184
0.247417096783653
0.236738850772836
0.25165576781742
0.236309240010379
0.25968376557239
0.249467194596282
0.23475550659289
0.243355160423523
0.270971048242893
0.2262635497504
0.246072486694022
0.269460058900809
0.284680018921443
0.274773940194355
0.29618287620389
0.258414805152708
0.262422992665523
0.268108372722722
0.280626093419494
0.265393060182478
0.266024507008042
0.310005971505443
0.315149671706234
0.277450803416467
0.332652848474987
0.318666264333748
0.323214543808285
0.342561926072742
0.305958716988264
0.316340662773289
0.381410437261766
0.34826675702461
0.355703182293128
0.335873831561478
0.363497965218747
0.321042892637382
0.331036459477138
0.280236314003704
0.350439788073318
0.305818490261419
0.319594835261316
0.28974767304224
0.30752926226927
0.34776478126344
0.311957861485304
0.326880142104817
0.338404258849645
0.303686297988151
0.315602310739778
0.295030759566725
0.365628492593407
0.332724685907137
0.302039275562575
0.265660013912466
0.338166861289468
0.338564635599876
0.356483144113484
0.368159169302438
0.326703378796927
0.285136459174139
0.352024107308175
0.330824404497547
0.358613539388307
0.325909394384204
0.32599606395734
0.334043161943571
0.32913103662095
0.322198889158064
0.347992356901824
0.372835348228781
0.339080150805696
0.310039299655371
0.322763974375427
0.302623853228997
0.387077932433844
0.311292105909391
0.265348574441059
0.254593574109126
0.428596950008444
0.338829250255592
0.34522925023113
0.314213822564373
0.393978576598152
0.306261080687738
0.332054785106643
0.366006604134568
0.389380692843101
0.289625322762885
0.417015337540698
0.349491943996601
