3596
4000.36533379555
650.420452594757
1
2
2
0.0621684805154843
0.0859036438708146
0.0673199109695829
0.0820505493548487
0.0733488516649185
0.084143212792892
0.0621515051821777
0.0775770866361011
0.0602178926682144
0.0927715820969175
0.0679579327742565
0.0826963246362554
0.0589109644630349
0.0904013394021799
0.0712782683703104
0.0824253745048968
0.064686308605953
0.0864309291842486
0.0648508663315957
0.0805612210688231
0.0717601132055368
0.0743266292342887
0.0652064877909023
0.076079347990986
0.0688940671998543
0.0873089191633305
0.0637073422879878
0.0879820574639119
0.0514273053084696
0.0917946640856053
0.065022067880539
0.0907567668295775
0.0711683270089843
0.0822466035895827
0.0678824965877798
0.0843048553560246
0.0686289852918171
0.082435598277259
0.0568642080675234
0.0858364877276357
0.0734341713021416
0.0772445064772224
0.0775290620958634
0.0752712249381168
0.0658434629184629
0.089479694619309
0.0699362657697512
0.0853509256276634
0.070432275371428
0.0790410149643161
0.0669707547634025
0.0765157334459204
0.0850665697338235
0.090156874302071
0.0666083112271998
0.0997120474129853
0.0723512232062757
0.0743740947477401
0.0728702784556747
0.0790352921087773
0.0868814765281982
0.103764665569974
0.0624102887165147
0.0815746827615262
0.0608762837532154
0.0818368312329502
0.0686280738439722
0.0864241808957805
0.0576551317633606
0.080426310515288
0.0650068852806572
0.0956704781850045
0.0783861985737629
0.0869331935898383
0.0728360491811601
0.0840681548839745
0.0666401907025636
0.0819593755346356
0.0589655656412096
0.10154157555129
0.07578242791152
0.0886583025930595
0.0654577539243374
0.0763592516865493
0.0698801771643657
0.0905062950541248
0.0626569878912482
0.0812776728521046
0.0848108286256034
0.0962576176199586
0.0647844756101003
0.0778200365954032
0.0652221888974289
0.0735575199308074
0.0649768086412473
0.072877706057724
0.0589855098624064
0.0867035483441743
0.0617626891789507
0.0880736925740267
0.0830624102378624
0.0883858412648907
0.111680150354261
0.0700847431439074
0.125942086107416
0.103234942674524
0.0502161648858915
0.139966590726618
0.0672844405533134
0.0924797000238055
0.0627610973063542
0.078934578117743
0.0516483223830793
0.091380896925497
0.0550518007434663
0.105018049857176
0.0998988795880472
0.0869078317254655
0.0625268218217615
0.0787587282338402
0.0530810165952653
0.10102137148177
0.113780789844053
0.0703435275283097
0.0806323920847706
0.0781714395448854
0.0579502323983555
0.11279212155417
0.0963111831188391
0.0735784113436186
0.0682018124704148
0.0733553776846019
0.0592287444055463
0.0533589802308455
0.103995035613393
0.086121575284833
0.0722865163720588
0.0851424808271967
0.0866124229813928
0.144915911875824
0.0766403148872362
0.0805567172540804
0.0635644785392495
0.0811219530563599
0.102889571482397
0.0835295291260888
0.0608791541288834
0.103239311804693
0.0770976178684795
0.0694293057833051
0.0719513744708616
0.0708021537401578
0.086820287964704
0.0864775600351846
0.03867181519013
0.123461576830079
0.14210904107985
0.0998113471335178
0.145683460534558
0.0685587106126921
0.077317471986862
0.0749737616250307
0.0720324705703823
0.0684174804467503
0.0650562712199422
0.0767753480530839
0.0690624473289495
0.111839521572503
0.0645899471974013
0.0789321382884775
0.0898250665369037
0.0982224933444701
0.0565639722386025
0.155098481672908
0.0878627002648219
0.0656089285428537
0.109525699835066
0.0878284314915051
0.0536179267986134
0.0735557231705617
0.101999239547357
0.0688444394797152
0.0739652320408044
0.0666100674722073
0.0659394024191579
0.0877352002583678
0.0719984247621274
0.072190063713347
0.0813656060227638
0.0591439736886936
0.079758164524045
0.121423355382924
0.111498329023234
0.0853169708887751
0.080239842668756
0.0431289832188995
0.0999480670135002
0.113078161739641
0.058456707823019
0.0709802421471278
0.0611841277212948
0.0721010204986667
0.0681412175590656
0.0683039266509256
0.0682099369378687
0.0521471740117375
0.107723819861651
0.090149705941354
0.0657692593753224
0.07077246118425
0.069033911686886
0.0767355635721082
0.112659772239784
0.113322172788564
0.0557678091296042
0.0830280379794756
0.0598205085319597
0.0947991180772288
0.0874662435652012
0.0706054120733872
0.0591702563149412
0.0758900232830153
0.061417041072006
0.0738452381726339
0.0584662981661738
0.0731875963013274
0.0580134038861438
0.0702472495739633
0.0608285535088707
0.0757829460559631
0.0715079824769105
0.0711936104264383
0.0608449110949187
0.0758694577741333
0.0566120855513544
0.0758795710436743
0.0988929679870716
0.0726418144836813
0.0708489259938249
0.0571463847036387
0.06477903031705
0.0717040201873411
0.0641716181011731
0.0646737145595135
0.0662724790873027
0.0594334534872674
0.111530677709335
0.0796350227959813
0.0646275719867827
0.0578632576861828
0.0805611278272294
0.0971721396102431
0.0587375929759511
0.0708374231267109
0.0595471479473981
0.0726362365942799
0.0596271988831217
0.112721587715505
0.0754596155268251
0.0745320865753372
0.079886981407132
0.0904597791925771
0.0577902854029646
0.0823047673473096
0.0457127665243576
0.156033366003282
0.0953730076039769
0.0680793059889629
0.13499730294328
0.095521194156201
0.0730239470193785
0.0852533449718321
0.0279128188368562
0.208908748311231
0.124372388818246
0.0783298705526429
0.0703387043363078
0.0985995061323756
0.0651871088235408
0.0823804640294385
0.0749154473829034
0.0757608267343745
0.112659468310292
0.119146264051798
0.143641514571469
0.0662765493250493
0.090319182262834
0.113545400681916
0.0643672755201445
0.0781066155734479
0.0608497303900508
0.0735754944260961
0.0744249726792991
0.103061046977295
0.0717394988168129
0.0901147053960782
0.0556667695371491
0.117026006882323
0.0701709982647448
0.0870202358002904
0.0693383028402049
0.096950409199979
0.0599734097567106
0.0733510101946741
0.0606961353776078
0.0806112479965226
0.0659997520918999
0.0799657600767375
0.114947587351864
0.101972309841291
0.0597420546790251
0.112342871654022
0.0730405073998964
0.0789026258155121
0.0647619396267651
0.074804349573107
0.0582548612937802
0.0723930497662752
0.0567535408860472
0.104913833662978
0.0790593169441442
0.070769216041705
0.0667072850779315
0.0701992057072524
0.0650012219701189
0.0712581547173617
0.0683781387471915
0.0725936760826657
0.0705631328964636
0.0717319796196619
0.0802052846328221
0.115471414781183
0.0642087576664444
0.113641578318922
0.116961095133696
0.0753441355192738
0.0831159335156937
0.0746260765447176
0.0704815643974641
0.0752609517495239
0.0737227150952688
0.0723905404689354
0.0761229871197509
0.0926436114154856
0.0855962074823719
0.0814702905024165
0.0776284736327684
0.139249507073733
0.145831138484619
0.101674314392024
0.0816906486256809
0.0722531217522539
0.0983875931404547
0.132578820618979
0.0787400254942738
0.126673420804959
0.0692072925177117
0.0919098894365739
0.065222772986351
0.0819547275694955
0.0686396184457048
0.0919684865115477
0.0732335890176993
0.0905303872598408
0.0822054457558506
0.0924247562946695
0.0800771978512391
0.085380643189439
0.123840901505115
0.111045748552719
0.082876869594439
0.0993235069291234
0.0776646189213945
0.119791281586807
0.133774576967744
0.128148888445866
0.143414713055494
0.114754608911394
0.157020146840292
0.107626582321118
0.0967112758997523
0.0938460728429286
0.0959869211161853
0.107431980612187
0.100391883625661
0.0996776576667766
0.103726339104228
0.109126061030732
0.109251106249111
0.103828344909868
0.104958180913973
0.109227991355692
0.130448652896825
0.121002864850359
0.105680692421062
0.118680719200619
0.122378151223281
0.194945340523055
0.157621051251686
0.144406160113269
0.121482195829554
0.148814478192307
0.114605874349029
0.13312404024251
0.110944971594931
0.13502605364892
0.13424516596247
0.168736889243846
0.149542494386502
0.160214568832969
0.155088785852195
0.139741350941735
0.155991547854953
0.161406280155224
0.154723106994574
0.191684717484418
0.150418972306642
0.15532901124903
0.158522328905924
0.182543622872399
0.149581208633428
0.204569803134626
0.151560497163043
0.164247485156669
0.154876988284127
0.17737867993035
0.170133414265618
0.18558805663516
0.180336854514792
0.185921900086583
0.180193387403445
0.182244849956007
0.17306169515403
0.208873734873513
0.193701191083526
0.191948303037653
0.206509889887926
0.198056881103505
0.196334178262374
0.205433170304165
0.20597792959294
0.253604347321715
0.223040829756561
0.250830552903889
0.196830261282824
0.220204842192499
0.208957326621641
0.22469914283761
0.215664363777136
0.226503686756979
0.214345735213691
0.225778266293496
0.221681462118186
0.246131139855043
0.235991479146723
0.243410829260195
0.240706443607568
0.250744632114254
0.240459408964045
0.251982765431929
0.264971454874211
0.266947201474641
0.256547891336181
0.321312257337113
0.316888146442953
0.327023976476435
0.270931635860679
0.293299811355921
0.2743537528476
0.282083737622814
0.274379262935865
0.304503288394789
0.290859734066491
0.313043873195246
0.305878361088491
0.313870302162919
0.309317157608324
0.312702071780795
0.306471614202531
0.336092744881105
0.322319924264073
0.329868154635509
0.324731665026451
0.335259523471217
0.336194412648
0.36925507779166
0.347725055531362
0.369359553429444
0.352967332193201
0.359119640416625
0.361770359258171
0.353722877349018
0.36049207334277
0.384841413982367
0.363954309800815
0.383765012091466
0.388834038427897
0.408520725124361
0.380328247771312
0.392088251416594
0.385523957106171
0.405549099640854
0.406395088430789
0.42284123572907
0.42823532971069
0.458754372310478
0.433796265892034
0.437648026754882
0.421691707192005
0.439892057090515
0.451592276503283
0.469228166509404
0.436648036142095
0.447715514605162
0.458124778135092
0.461998725190308
0.443283148164548
0.484077212047058
0.466362090067645
0.468552351226969
0.472084138704041
0.490117502821765
0.507425797289592
0.519830199757173
0.492638652833225
0.509095780447159
0.52771679508503
0.524791508811445
0.509820889372595
0.516808303360263
0.523397629029851
0.544020016299932
0.522113293854333
0.537997192488639
0.541523702172372
0.571837236157776
0.563576407951931
0.575498530936384
0.541245856174652
0.560112989698915
0.581427701296626
0.592107519632098
0.566962790368916
0.584677670583575
0.583801461340868
0.607524703008035
0.608590491754148
0.598570238544268
0.606014172246399
0.614214187064777
0.618364888916155
0.652850099615128
0.61780066465996
0.633721574219197
0.62465808977891
0.658707887757673
0.656306888549019
0.651884549278671
0.65210219027802
0.682486653389059
0.658915329526146
0.668167796541623
0.661168398112688
0.686569091572902
0.676742452244644
0.676499217291339
0.662766004948445
0.688342580326264
0.693780382983477
0.685795909566076
0.673608675588462
0.728549201996735
0.709036212971503
0.728638891865706
0.720804358879499
0.723972800163015
0.744930078249911
0.757085167646923
0.754863275061326
0.762695755565951
0.746142682017914
0.766976780959602
0.757961311116615
0.76642412598594
0.799461739655782
0.778044485225989
0.746065540172331
0.774894741621942
0.753338954773768
0.832570004602237
0.814100626853828
0.788236543921077
0.815890106007221
0.80606087514681
0.793270167303777
0.866468584060384
0.819757173056854
0.812580088862052
0.833693401700246
0.833785599430078
0.823170358772773
0.824995715204237
0.831486663707978
0.831017215620487
0.832414869771334
0.834104472295033
0.848286093925054
0.900333333845883
0.8790190538284
0.870848367861352
0.847718998320802
0.869573586716669
0.903110022323835
0.931821240191278
0.914703856524152
0.891778461354884
0.930893581028742
0.912623499895246
0.905969433234364
0.914399908120232
0.921154312081516
0.972148715285149
0.902062777982155
0.903063701424206
0.926462453064058
0.921836739818233
0.927091059618073
0.942728591619242
0.922128837179623
0.920270882333791
0.925359082143269
0.954856167828509
0.973718324333491
0.951819641541441
0.948659450363869
0.970744468459422
0.959804139236399
0.931444167462712
0.951203391048393
0.925654143904046
0.918968262246435
0.939052253661672
0.95685267807071
0.969878561733403
0.970220207895627
0.993078997805394
0.983397844811121
0.965919325064371
0.995551022521345
0.997434098045908
0.990460287835552
0.973252909910981
0.987326267575834
1.09556002391971
1.04676203511449
1.01017481623156
1.07854446162007
1.09652828656668
1.01794877371721
1.01052286847765
1.04937867368502
1.03364130476187
1.01637085158707
1.00543978702309
1.03714157772136
1.04871947640615
1.00654378150759
1.00325964872231
1.04620519157249
1.06561588775631
1.04356123910479
1.01549517616659
1.0112345613367
1.04376555296841
1.04164050867383
1.02945229273647
1.05112968571
1.08201994839432
1.09352306636111
1.02568664810634
1.05254532343724
1.09891082556923
1.08914709578491
1.09667635914655
1.04856240273286
1.06634765264729
1.09253833332947
1.10412138857737
1.1150821339935
1.08031980596312
1.08955549600919
1.0598303883578
1.08954969853798
1.08633755116376
0.998427280484058
1.04017580729219
1.1033797716866
1.1295665546652
1.14356708669112
1.0796979492071
1.11139370900633
1.10176231297076
1.09298624382725
1.05677652410401
1.12030299247201
1.11251896668506
1.05560054225827
1.09614194884151
1.08645681534646
1.06773539461946
1.1213699690976
1.13050438645342
1.11710797933092
1.07221453322843
1.07933920330142
1.10357290424943
1.10189611357748
1.0903267355361
1.09842623807848
1.12191109953983
1.09257146171891
1.07639571667009
1.07455011658503
1.04029692990858
1.0857538406649
1.08557878236513
1.12659530547057
1.15907671550043
1.05475182910087
1.03900906692602
1.08844379280627
1.11282148440227
1.10857073410937
1.02034001659029
1.06303205804979
1.10241200356487
1.08124505496279
1.09509958056431
1.09445189793018
1.06671106519886
1.11517358253703
1.08557723280676
1.04614345554521
1.07361276056477
1.07605735183862
1.09722780821701
1.11283432909117
1.06887200260108
1.09870317043772
1.03988540154213
1.07841704485671
1.06514545480274
1.07120525748005
1.06343102714786
1.05824967219526
1.04399610934792
1.03200170696527
1.02889443118754
1.05031074233537
1.06784097717156
1.05210896312329
1.06434964223993
1.09072171829537
1.05971552983688
1.08069571670572
1.06792191929863
1.06107603875373
1.0413083907455
1.04748718727162
1.01355898683048
1.05033085274949
1.06200207598261
1.05507091551891
1.02971145112531
1.07041709077015
1.02017644431438
1.01889617199634
1.01458165319638
1.02724926421954
1.0405566911418
1.03000123885793
1.01964378728312
1.03316690335858
0.991867632795524
1.0213194311566
1.05700434512717
1.0249528460514
1.03094630261815
1.04269844629104
0.992739463463482
1.02893154460838
1.02843605415184
1.05045056494645
0.986588534397458
1.00763405501106
0.975317756453135
0.985179327482359
0.964250233154883
0.95299811461185
0.971787109353484
1.04151996423496
0.994600927149825
0.963496263765697
0.985372005136462
0.988836170463346
0.978890327996186
0.991420024499052
0.98191468587789
0.983380809120934
0.96434314487969
0.992776039864008
0.965168936153608
0.963441781532218
0.966638819156102
0.944450853924387
0.947863207384591
0.955235166435458
0.947616993676927
0.950406543857497
0.937747041086432
0.919874326863949
0.91676875182747
0.935678428176574
0.93360079404639
0.929098943147639
0.940257189972473
0.939245936393856
0.908404284267862
0.912981430529131
0.911394739912493
0.939050508406254
0.895124750908388
0.904263568926778
0.888998401267671
0.922370048238317
0.879536152334407
0.895756704162638
0.887986745941865
0.870912249212177
0.88366830345467
0.892112965937703
0.867577217996239
0.88875199606073
0.872594825936343
0.875386701374811
0.852587706170625
0.866353613518869
0.843059926584425
0.85780083212126
0.866250170247786
0.830854135133339
0.838732090339837
0.865534715204876
0.829382467187675
0.846585286803747
0.809756585109624
0.824356825334753
0.817590466169052
0.837932516686443
0.832788033233227
0.829138004797196
0.806149668188526
0.794498780495179
0.792231774671838
0.840014461541258
0.803361741995372
0.781528749596604
0.798688337742194
0.767249426704079
0.769145927798795
0.767420418052544
0.786655629429231
0.76047628094407
0.758472331849186
0.771223079136784
0.750608693572729
0.747864966585728
0.730550909053785
0.736906408060405
0.754541532840921
0.762697152603395
0.732474306481038
0.732404120802769
0.733209268422052
0.717472468937465
0.727499801714669
0.742570960747648
0.715190850999217
0.702030303926788
0.712297342097965
0.704805863589761
0.695355492316134
0.708987884600757
0.686822580231051
0.691208711714453
0.695582718493415
0.682237037989007
0.676850720912566
0.691106719379942
0.671419566069626
0.6786402232651
0.660807404972878
0.665814216214212
0.653607579719758
0.660958731102795
0.64909860741448
0.639638478133442
0.652041123709894
0.660013003520265
0.632601596174746
0.641285957032587
0.627931103528603
0.623464918187032
0.619454688994875
0.628066783058015
0.618027383548634
0.618438233825743
0.607922391102679
0.611789629214639
0.601048655118945
0.602191670906269
0.590466864540373
0.589465796688391
0.595121140997702
0.599318385805818
0.58190673283097
0.584924364388363
0.578693303337742
0.575618808584759
0.57820082570099
0.57059393931562
0.564654728922955
0.560859399533482
0.564579628747163
0.561444777541359
0.554499600619336
0.562267391879361
0.551919426240576
0.547440514958475
0.541690451319992
0.549080451141162
0.537962973818891
0.531315612965246
0.527217258691414
0.519723430115481
0.531949440641039
0.526422824533807
0.517409828818121
0.515437978158364
0.506789324649645
0.514027066679833
0.506715870876734
0.506671873726516
0.50123333369078
0.499624304164358
0.495576451699475
0.493237386466993
0.488599671214446
0.484052628788747
0.486102239488337
0.485259015152431
0.470170951830166
0.47986039813974
0.468629619271469
0.466744941851152
0.472991552221103
0.476495442331578
0.468712525789952
0.459920664349368
0.463433984345903
0.468635867933629
0.451134129284999
0.450520518049572
0.450333361657966
0.446711364729167
0.442998006237888
0.441746245254106
0.444188270152662
0.440456526241022
0.432330356299238
0.424254302877653
0.425330756944151
0.428681355952088
0.425020518893613
0.415392410759461
0.42229847622275
0.423093931960066
0.415297624639219
0.413718537455709
0.404776430882521
0.404365434187899
0.407243113376404
0.407897430698901
0.397571509936423
0.401416435932448
0.388806091229749
0.395142013244894
0.398104092562993
0.392960574971219
0.388497252673209
0.386080197582188
0.383184930318236
0.380361300049073
0.378843567787997
0.377822681106175
0.38176427835804
0.377166719492843
0.377212275367076
0.372554882181527
0.366512387307815
0.366916863914138
0.362127296837823
0.36776166438283
0.357924839089373
0.355146353888281
0.360860968326858
0.354186860998433
0.349111007971048
0.350721743526601
0.341217506540997
0.35207201806446
0.341550166382218
0.342890971111968
0.334047976629959
0.337973445097442
0.336971709782443
0.33000032070082
0.336452633688923
0.327846469785173
0.323077420707256
0.328632907400683
0.328286176927168
0.322322062196497
0.318440241736225
0.322027004185336
0.322853605576079
0.318483047786481
0.320328902547963
0.318803111104742
0.311813908198478
0.309092087849114
0.310344436631565
0.308579935422369
0.304756930625045
0.301434534749024
0.30000680979936
0.301457853986134
0.300293704295869
0.295270013139244
0.299574410571403
0.296596617262776
0.285324011970684
0.291007745877444
0.288447576786775
0.288962686157834
0.288333661397497
0.283301112095094
0.290536108922251
0.280548055177312
0.286614001245979
0.279690217689673
0.282594761511153
0.285239508509275
0.28705543532658
0.282157090404091
0.273736735391332
0.274232154781466
0.270630055103972
0.277754326613998
0.276114391077568
0.270141337833794
0.276417680215304
0.275497483779198
0.267662589616251
0.271774477395297
0.275743461270156
0.277246357684323
0.271867849224863
0.271273111679383
0.269945574115319
0.27571545242398
0.268451337384982
0.271605793110607
0.276509091902285
0.268629333738019
0.266169873913139
0.281239934004052
0.277990187367979
0.282054952205112
0.277867315231836
0.273378303378072
0.280833362531831
0.283425872004883
0.27918264837451
0.282134021585
0.281618641885506
0.288740981772597
0.286079398472685
0.285004947828179
0.287452926099771
0.293476630753005
0.290428602707257
0.294586825960427
0.294572740899218
0.300180719531211
0.296773926115626
0.293033396526921
0.302423642514031
0.303154632931405
0.296465365577655
0.304785557429525
0.307974203436261
0.304304625542408
0.311037002776546
0.310753544466906
0.313346088613813
0.314909487992914
0.316252601467666
0.314755278202128
0.323518118219174
0.329590972410291
0.322216758031236
0.328476583635038
0.32844342230765
0.337240796193252
0.337278171286792
0.335947027449376
0.34132022849465
0.343603616273684
0.344081446966795
0.354990208193168
0.355502298710993
0.357079334800561
0.361782502582386
0.365771208853445
0.363913590526645
0.374325676243772
0.373024205331932
0.376167845840635
0.38239659561953
0.385207041497435
0.382506257427797
0.385510082097277
0.381952094993444
0.385354038133317
0.38879522026217
0.385916128899027
0.3883860336576
0.393095322496778
0.395206677029412
0.397099236838376
0.390861860575706
0.39337925921642
0.39217899377247
0.387189812283908
0.390186222106554
0.394012773654764
0.393480469236103
0.393983971546496
0.391859822565043
0.385309379208342
0.391646786867009
0.394116877686973
0.385305314649958
0.393880855482799
0.390240319844971
0.399910963209785
0.387321581047798
0.395391291772892
0.391275337237448
0.391574076849378
0.38992653666807
0.39729189470673
0.398810096291894
0.389408302055425
0.396779372319799
0.38585833851173
0.388994239521737
0.393626491552834
0.390877193103038
0.397658785128884
0.395163619117902
0.393045678199957
0.392958533500114
0.395186753964713
0.403906779249799
0.396597987270261
0.39394449128969
0.398690613770286
0.396716149425356
0.399857927882095
0.389428146435738
0.390973285642731
0.398945346809941
0.401324512413247
0.401666493928262
0.394800392943773
0.396758423121557
0.385960231666653
0.398548942624997
0.394768724257059
0.390189690043785
0.389772567750086
0.386045981579108
0.384246159224512
0.387474434279865
0.391817323985414
0.376812485159354
0.376119632176305
0.373753899259468
0.380891758572136
0.376520651290812
0.37206706586097
0.366766584153339
0.365329123229621
0.362463042044108
0.360230625540676
0.352062615535177
0.353958189758148
0.351681164710319
0.349753287740021
0.340684712412246
0.346290410660244
0.338765465710117
0.328129129469563
0.335492604440073
0.333801656717714
0.323133737108588
0.322269225409213
0.322503326461696
0.319389629993575
0.316659104274308
0.312278539977838
0.302737063057482
0.304945443014299
0.303137425797583
0.296371072472268
0.293134617336586
0.299547055041281
0.291944548720676
0.295037978051357
0.283666043627427
0.285621652112683
0.28578258244878
0.28384815645985
0.282341629672965
0.279273868236435
0.280252658299163
0.27551272710379
0.276233668514815
0.267964032206484
0.264445826449154
0.267684276108064
0.262820941209716
0.266924168870841
0.258913958587975
0.261817112713784
0.2630708746742
0.263510498243965
0.258606850612354
0.256282590764723
0.256801133066244
0.254934012553366
0.248365869463231
0.252381302587976
0.249399854864458
0.252240374846379
0.246007804787283
0.244665606067623
0.24199942656156
0.236146669234628
0.240853950993919
0.241238967391099
0.240045029376277
0.232113805777439
0.234587191938421
0.235957782709453
0.235502497368614
0.22944567249936
0.230038910554354
0.227814954833884
0.232986285868385
0.229848266195148
0.2258337721322
0.225411931971409
0.220811909569133
0.222250251413052
0.224410323185061
0.218673186898595
0.219499163009903
0.222497398245728
0.21580276923489
0.224615814134393
0.217444959399004
0.218562864536182
0.215397339332746
0.213822958069674
0.214675628915094
0.212477307727703
0.214268547282602
0.21162683988081
0.211767796887223
0.210094524428201
0.211868194212031
0.205461846676314
0.207001170341555
0.210163163251707
0.207236050372986
0.207526704872645
0.203578264431347
0.204005937636952
0.202707393551327
0.204331923122324
0.201395112765716
0.20135685919262
0.198559244514941
0.203774153503659
0.199294476995585
0.199349190068517
0.196058896847299
0.194409158651261
0.198480038022594
0.197442676712703
0.195626045602371
0.194957536651521
0.195465355667256
0.195381725897646
0.191291301906621
0.193502778851651
0.194841740119883
0.193839379327284
0.19487984979101
0.189973833118057
0.191472433236136
0.189324143367956
0.188973035337525
0.1891447437003
0.189872209383686
0.18576005632381
0.185649716094997
0.187923779318201
0.19065742354275
0.186686789759903
0.185328622227025
0.185679404194558
0.186230702796825
0.185306372209973
0.185385115328131
0.181355039166562
0.182909204466385
0.181328328263198
0.185075637602149
0.183670735594116
0.182464673421591
0.184312687171309
0.183927141268322
0.179727580652889
0.179114077154178
0.181696235927083
0.183939979742658
0.177607812305135
0.177129847124821
0.178954378431944
0.180825172424806
0.179389493704827
0.179282851960632
0.181276689223488
0.175794909150905
0.177385369121099
0.180379447079862
0.17360017349434
0.179371896608736
0.17975827136175
0.177370468234733
0.176195237115615
0.178006777990163
0.174317881486438
0.172917773292413
0.174339755028309
0.17146611020514
0.176870394317555
0.174187795345431
0.172360739133434
0.172654123506964
0.174595717337451
0.170570701439643
0.16865566817128
0.170055808299662
0.172272283349423
0.171078357940454
0.170100845782091
0.169958044416626
0.168978546249562
0.166424881583223
0.16547301623903
0.170584883051455
0.171531533470407
0.164326349752303
0.164991278833593
0.167326885231982
0.164289121227986
0.163570476132957
0.163301979889262
0.162465768375706
0.164066198711165
0.160025605717637
0.158808038393955
0.163121085067684
0.163630774177884
0.160765922179959
0.158606064192091
0.158814361439277
0.155585457042866
0.159212986312236
0.156894228763968
0.158554929087662
0.159307906106444
0.160092147042708
0.154171069780349
0.152168303176268
0.160134015613131
0.15264953407257
0.152589423674874
0.15250395329942
0.147735238526719
0.146902907562326
0.146769120332912
0.151012485269823
0.150251397402437
0.150716861833736
0.150445262126176
0.150559645241474
0.149687993547011
0.150780662176249
0.146332807389947
0.15077247059504
0.146415024101461
0.142936464507151
0.144828509643604
0.146724632569757
0.146268725769607
0.143517780294271
0.144638322829349
0.141344684718739
0.140880816505811
0.140912584598852
0.13901519055233
0.14305901035437
0.138729521380213
0.138882798342077
0.138124621379506
0.140323272236894
0.137228393965201
0.136338886621197
0.13235088974506
0.137402252115077
0.135013951415948
0.131780604996268
0.130486744096502
0.134157461687513
0.130492702621068
0.130751661911502
0.129834416113049
0.129205122704787
0.131016445262028
0.130131909201371
0.127368911824978
0.128412782498639
0.127185742664421
0.128705370265386
0.12381196056362
0.126151559039611
0.125211772035788
0.12510457412855
0.120075389902897
0.126058884436434
0.121492852144244
0.126122387620587
0.120233237705236
0.120887603961905
0.119992129687283
0.120229797333132
0.119704799510529
0.11883110100666
0.117491288438736
0.119883386240036
0.117863948828184
0.116324792686106
0.118251472490623
0.117183776455134
0.117443906209463
0.118080479312325
0.114220015152052
0.116042001825571
0.116307433411392
0.115578199255602
0.110883945668627
0.112920788737777
0.114305467093189
0.116701080197975
0.114267909655817
0.113401810154429
0.112298302375794
0.110496207548991
0.111013825656064
0.111068598934269
0.109755861261235
0.109067145354376
0.111656736567316
0.107800545158856
0.109220270301732
0.106358658306463
0.107161041458946
0.111764946298985
0.107052497134555
0.106005760104884
0.106123843237662
0.109634019022091
0.107196718107641
0.10564028146528
0.107067571640855
0.105748113370385
0.105697729137872
0.107420854383401
0.103699425581423
0.107686064003284
0.105720542943044
0.106994441759003
0.101845977581729
0.103837760530549
0.104084004700403
0.102153574047763
0.100641776487952
0.103033368235109
0.100480483827761
0.102791617162615
0.0994709975802056
0.103845999212413
0.0999333349391596
0.104184191335331
0.0978765397929453
0.0999694278132061
0.10079067807507
0.0989638256183374
0.0984474596931253
0.101731489995933
0.0981197070658839
0.0993733923599429
0.101184092886899
0.0990102241825149
0.096755242305601
0.097900825044817
0.0991810810289687
0.100889969688186
0.0997662536843238
0.0999753218243998
0.0982266077623739
0.0996920595597067
0.0975193123288699
0.0987983003077695
0.0971431628586088
0.0972882198548607
0.0973162457007692
0.0962672846294971
0.0927546546113662
0.0971155817147495
0.0966346975149851
0.0967123448559487
0.0951526358573224
0.0976622350352416
0.0922350547399531
0.094234616277866
0.0957945466033359
0.093063093710025
0.0918416584141731
0.0937328508871803
0.0917640810550891
0.0941441062933635
0.0938751138469668
0.0955749112038657
0.0933795164150518
0.093330042572176
0.088469765236043
0.091643517266981
0.0915866473237056
0.093929222167726
0.0899542221851554
0.0906567072193721
0.0913637731094649
0.0906100344463386
0.089111596501401
0.0905514419142125
0.0893523338801124
0.0907641913551125
0.091473809710823
0.0914573906772962
0.0881921027876599
0.0897492923918665
0.0875517590067613
0.0926531893001883
0.0851368838510002
0.0874117656343851
0.0888873964805268
0.088413410309306
0.082529582705216
0.0880011296703201
0.0881243122400345
0.0891480487641368
0.0890187968099567
0.0874017249161858
0.0864236522097264
0.0909704483392523
0.0868512393685946
0.0877978147558495
0.0854550720486955
0.0888635429071452
0.0858411443529781
0.0857836069915598
0.0850005626074776
0.0859673696688381
0.0831193452096844
0.0872904880342986
0.0854870745027275
0.083284705230516
0.0833327032150714
0.0847175664833737
0.0824944572402918
0.085618900808045
0.0803712883038853
0.0810431543380215
0.079797415656957
0.0819632262522329
0.0820483702034485
0.0823234331441894
0.0790671587509929
0.0805016422154003
0.0774987224495273
0.081087045529545
0.0781181902251219
0.0806480934578581
0.0773190163295948
0.0822460489022839
0.0792101256395192
0.0787135582977707
0.0766746782224426
0.0780502421814192
0.0750037197578778
0.0775932415870091
0.0752433691507282
0.0767663043405163
0.0738596888680166
0.0768942606004322
0.0738484227377131
0.0768594856004526
0.0748232542748786
0.0755687472155457
0.0717498449442379
0.0776339634315651
0.0715859381534189
0.0762268864849252
0.0727962697408671
0.0748979470439895
0.0696262921610349
0.0737336092686411
0.0752920972479111
0.073583135371639
0.0716027437359911
0.0728409999366878
0.0680463945808243
0.0729505425967684
0.071063287422524
0.0711906062136994
0.0722423858371473
0.0722888727357346
0.0663943476610711
0.0713953133068757
0.0696577869560488
0.0718806831645872
0.0674071999812125
0.0714239175431897
0.0707530051827703
0.0694168330871659
0.0706204829383546
0.0671177277118671
0.0630413304384036
0.0706374432564505
0.0685252535710995
0.0708205977632179
0.0668426309338109
0.0670031036016208
0.067922198173072
0.0660965496670225
0.0651761270968065
0.0675440428792809
0.0658197828620605
0.067653860938532
0.0639341408511412
0.0665848939646817
0.0625871513194505
0.0644005298701179
0.0622351482663113
0.0667283138317228
0.063832038361023
0.0641904708067388
0.0631480864895878
0.0654003876956129
0.06428444691416
0.0647238481350096
0.0622243688108879
0.0636098473954282
0.0601844886826731
0.0640859051567886
0.0598820569081973
0.0624532876520301
0.0600439379770401
0.0623859266203391
0.0621643036973449
0.0635438440548268
0.0605676002464667
0.0620090411212238
0.0598338168934098
0.0607668968698974
0.0587953671171778
0.0601348084215144
0.0586686365829814
0.0632415213079652
0.0594849126740202
0.060728000417626
0.0566052760852683
0.0605760040514451
0.0574199972650819
0.0606679367432357
0.0592998256448293
0.0608882109524242
0.0587061255378463
0.0633435359734496
0.0587009173718358
0.0621659653759223
0.0607950599985147
0.0623439661892017
0.0587923787794223
0.06342029370298
0.0578656686358791
0.0631496029336872
0.0593450872574515
0.0640206647604246
0.0550211197035897
0.0597914670977582
0.0545529532207103
0.0541660404788428
0.0469161998410673
0.0518637329041404
0.0534839333917897
0.0544208439011966
0.0452707361490742
0.0520909804702917
0.0481071269813711
0.0538402277022649
0.0433496893338802
0.0550474804076689
0.0426240546836586
0.0500251949777159
0.0507987200889508
0.051980424418035
0.0451928942000107
0.0536926074729116
0.0473070544027192
0.0561865254481639
0.0459997662968072
0.0607957380354433
0.0506508843592026
0.0614466576298438
0.0465090308423044
0.0619756329453263
0.0448808136349904
0.0558943621548997
0.0483559558320411
0.0521868441294908
0.0482104219007795
0.0535425374506685
0.0455194529977118
0.0536535980306851
0.0494322188810005
0.0541215778715432
0.044572886737464
0.0508292051130349
0.044834811508527
0.0403696993340856
0.0473778777587335
0.0442692573607778
0.0580739249913531
0.0509086954322335
0.0616402841364387
0.0341968778144084
0.062081380202428
0.0325579684631033
0.0754517238881433
0.0326733652944615
0.0698917169774129
0.0186518762175528
0.0867295737490901
0.0232295064744407
0.0829434637132825
0.0145336372842406
0.0934542907764569
0.0246942647530102
0.0824324150561618
0.0313128718812269
0.0789069256876438
0.0364888827093345
0.0667810431248079
0.0471131151751643
0.0546570369442942
0.0560299425491396
0.0506490224892286
0.0591174085741339
0.0462053129896947
0.061662789256535
0.0459975579540233
0.0561032086555143
0.0545893465429898
0.0492760383638728
0.0568114535639651
0.0472247995663646
0.0569579408339978
0.0501224970392565
0.0543197620367396
0.0495279412500185
0.0510715217338892
0.0509271945228348
0.0499890283755633
0.0495114432434014
0.0481456865207985
0.0499162010078528
0.0509363983023527
0.0486429498916416
0.049055126581404
0.0498060900276486
0.0485440727209512
0.0500434500508185
0.0508241001442774
0.0490190733027267
0.0509059572402999
0.0503005311843103
0.0495788809597042
0.0496703266918839
0.0522809734253554
0.0491075487485315
0.0490687912467796
0.0460384281499065
0.0496093217592024
0.0519058499013973
0.0492557397748431
0.0479612216926861
0.0489469701418925
0.0502045518767429
0.0503076322429511
0.0505982466260481
0.0492015613999377
0.0486390292812257
0.0503187864603613
0.0488595732941286
0.0502377861645162
0.0468821725601942
0.0504269278460741
0.0485345993846827
0.0504034978788116
0.0504594069124204
0.0496329456064249
0.0498436791741564
0.0495663280847376
0.0481259942025763
0.0483608297937889
0.0518984688465636
0.0510109713363507
0.0497604475588958
0.0493476489842497
0.0513884952255579
0.0468255814837699
0.0479556979813438
0.0487315376841552
0.049206695550702
0.0486589012680575
0.0489799744533193
0.0480355676487147
0.0495349856857646
0.0466432126388076
0.0482705051064717
0.04701410682695
0.051233120189394
0.048121302847003
0.0471710897773018
0.0481094023872603
0.0474997866571314
0.0494518762525436
0.0480177124994947
0.0479612896125828
0.0500482777737497
0.0462631404726922
0.0471096993467829
0.0463776578675619
0.0494734383962835
0.0490082223130191
0.0480779025283739
0.0493125402450788
0.0488478423832332
0.0474768481755982
0.0502486575515318
0.0487237040451312
0.0500962598692783
0.0469564732520346
0.0507265349488079
0.0480649216831384
0.0467744581054713
0.047944698617569
0.0468018265016621
0.0480645217264277
0.0500660195527685
0.048183416360173
0.0493959797665711
0.0493404935120911
0.0492579657284792
0.0490285516147743
0.051658746864772
0.0475516084777177
0.0493128021641225
0.0499870075992766
0.0489529314715719
0.048785334829998
0.0525873206877764
0.0490129836934869
0.0490138556069836
0.0481540794538545
0.0516393718279095
0.0485137903776834
0.0490638936817436
0.0489284972508628
0.0508154588452561
0.0503201895337397
0.0493190824419914
0.0470926679243822
0.0526010800860294
0.0496251010019892
0.0498992864319259
0.047196174935575
0.050121023600947
0.0472413365163607
0.0481884151612511
0.0469848757046901
0.0503126837707863
0.0481014862230319
0.0501426898295651
0.0478597297194672
0.049115204991646
0.0481107787801253
0.0510070294378329
0.0487479275421759
0.0505041104890764
0.0481906037307395
0.0477210744679975
0.0484435113999902
0.0495066808707812
0.0481503278738505
0.0517411490690243
0.0500413798172447
0.0489974579266161
0.0474711455255965
0.0513277780071804
0.0514796303581063
0.0492712889843935
0.0490216234215373
0.0513883820432026
0.0503472904069845
0.0512635007446771
0.0504511793894819
0.0512237841927232
0.0479626412243995
0.0524976838295878
0.0516029160874831
0.0541555654794664
0.0508327245145458
0.0504871199152687
0.0494897758242785
0.0511341905320217
0.0507222430677955
0.051617737541003
0.0489096962893424
0.0521141560844638
0.0496022970125214
0.0521552249214006
0.0494377863280954
0.052000968287916
0.0503279206504602
0.0490108451448851
0.0478356034396002
0.0485482322752216
0.049507880079915
0.050985464537292
0.0464188603238624
0.0504247054034732
0.0498828354589299
0.0479948944142471
0.04930593234356
0.0487587525527131
0.0470391877294171
0.0471429080170015
0.0492574320672739
0.0510473824381358
0.0463399709331001
0.0475744923940848
0.0461682382443854
0.0478558026941092
0.0472434017097008
0.0498198820030106
0.0456046827565631
0.0502732136078338
0.0472687779150536
0.0467796726650032
0.0473211886676997
0.0471011053559512
0.0462047346025399
0.0489705663577343
0.0472842049664064
0.0478134045510143
0.0458022350165692
0.0490419689399667
0.0463487427306101
0.0490003135529282
0.0482546763246603
0.0480692091900329
0.0453413990004111
0.0471344795557554
0.0448523248788
0.0469456700932288
0.0456010737469198
0.0457607873943891
0.0462622368268682
0.0460591822677961
0.0453938289229128
0.0467865757413404
0.046870612456706
0.0496023648624532
0.0446983422940362
0.0474041839716095
0.044872358864089
0.047783070134943
0.0456712957018554
0.0461717492152889
0.0471345984943169
0.047675750744147
0.0469762335429795
0.0468753872468917
0.0437414427305714
0.046614350186567
0.0435359011818372
0.0462307257428073
0.0449970744517105
0.0469018603937237
0.045062193178446
0.046405685292503
0.0443397386848523
0.0477609275829387
0.0459600854477604
0.0457436334081876
0.0431889892848059
0.0464086231533889
0.0460671868981887
0.0485719862589512
0.0440264909982217
0.0461966548574171
0.0435137929093424
0.0459136000646362
0.0453665859768565
0.0444238432587502
0.0424375834569788
0.0481348771698559
0.0469889906687534
0.0479654814809998
0.0433021888215083
0.045380281374649
0.0457538082642585
0.0482115594207595
0.0448440415019915
0.0445103174411106
0.0437023807203549
0.0459104602120524
0.0434677689699975
0.0476326498274256
0.0448023354063611
0.0457488066161557
0.044807232467807
0.0462699181515184
0.0425634517237436
0.0467137667918267
0.0459862497844035
0.0456482641138793
0.0440438782246125
0.0432921257222138
0.0433038095129136
0.0442586862262637
0.0438484100927152
0.0470015348472149
0.0445370237372665
0.0465206899433404
0.0446847952976367
0.0467950959033963
0.0442023599585723
0.0449654598270039
0.0440956207680774
0.0453681777174339
0.0420724377564429
0.0435542416448087
0.0410169343300532
0.0452349946458358
0.0421987614346789
0.0438229434332823
0.0423299336571468
0.0430039981283314
0.0415597549823309
0.0450831677433633
0.0417132354077043
0.0424823842692722
0.0415424981460555
0.0429094766299388
0.041433326994792
0.0455569292632852
0.0414760164129562
0.0460715907391624
0.0440702183116041
0.0474002605566263
0.0405589976250349
0.0432747942273989
0.0387392698552911
0.0420298897540043
0.039515932933187
0.0416990195690866
0.0397207660754266
0.0407620877580675
0.0399070170479012
0.0428304359934971
0.0362887266980968
0.0386589310512665
0.039065283899871
0.0431701573104915
0.035833151632511
0.040095478995551
0.0403894137745745
0.0431354996718442
0.0384682977152451
0.0411764170511526
0.0382988444822971
0.0419952186751992
0.035946819590847
0.0445949425851994
0.0436375172089072
0.0518587408845108
0.0399554080937295
0.0408770941256569
0.043810967311769
0.0416644891081548
0.0403213236867089
0.0391732284510766
0.0384734355610915
0.038007843421251
0.0372538232187134
0.0376785517857874
0.0373855983426816
0.040649714695485
0.0376668005126073
0.0395460116247649
0.0376644394170486
0.0404014236617678
0.0363044986880723
0.0386479196377729
0.0381886352289993
0.0384184189481394
0.0362134330293445
0.0400469599875221
0.0382662182061047
0.0387825765222864
0.0384708450981506
0.0455476844039509
0.0458845738805722
0.0401568512902255
0.0363077905510873
0.0370858416901201
0.0384630357600465
0.0382819563497715
0.0372982405360379
0.0376271322887516
0.0367385779840585
0.0378859982670306
0.0361118080744985
0.0380790204570171
0.0378900649210801
0.0428737517571909
0.0368418027801111
0.037370357842976
0.0358560747975632
0.0370153021974338
0.0392357676679384
0.0368688810972213
0.036302615211356
0.0382222560996284
0.0388751226141255
0.038859415267144
0.0329395870254713
0.0441116234075994
0.0524657540439241
0.045999736622018
0.0338204341403312
0.0391665641360098
0.0345383215496252
0.0380134486437077
0.0354382251566599
0.0384462685887371
0.033728808677038
0.0378098615448466
0.0360156492956259
0.0376031201565164
0.0366604416020815
0.0388518527169782
0.0343678225417834
0.0383952545059351
0.0335735536395641
0.0398057660055666
0.0347858122267966
0.0371035251833784
0.0409673321254291
0.0507614216133571
0.0412220059303207
0.0406551379053355
0.0328594257035971
0.040850850120298
0.0476498196924276
0.0533369924959426
0.0317463852255945
0.042217976793277
0.0330719910281696
0.0375175505592145
0.0311697853853446
0.0357665975546159
0.0396309628964047
0.0451122112474017
0.0383579105607966
0.0415693212636585
0.0364414036782003
0.0370603081559497
0.0345417044234036
0.038646299574063
0.0349967694970955
0.0361956416106302
0.0332514131326504
0.0374766258015549
0.0352184999569415
0.0389857086498271
0.0338716026394171
0.0379588490396877
0.0389607200411944
0.0438896306450643
0.0329503839518642
0.0379265872739467
0.0334538890188066
0.0379284145897684
0.0433918598464049
0.049790437156143
0.041892874120393
0.0344328679940256
0.0365290740200166
0.0363930185502445
0.0362935252731231
0.0368822259059266
0.0364915651174115
0.0352564039915138
0.0358346798726129
0.0393196203367026
0.0367359941870999
0.0381592567692335
0.0354016642943761
0.0367040709380527
0.035010160971093
0.0371005329128723
0.0338375951078591
0.0372733090029004
0.0340910788077569
0.0442668663593639
0.0474053530600535
0.0633902787632201
0.0486134345988074
0.0513040457803312
0.0420707522575615
0.0377678803182102
0.035418837937895
0.0351442222996555
0.0370023303976378
0.0366317070755781
0.0363115313280349
0.0362721907435918
0.0365596875094067
0.0358878327656616
0.0342052633320458
0.0358172262513566
0.0340874465120919
0.0359351563122013
0.0378632082920766
0.0333697153355021
0.0369075460287428
0.0354822691965944
0.0386457640731924
0.0416013412230579
0.0504486489441438
0.0356172451153799
0.0440448869837338
0.0563530516353402
0.0651603829997547
0.0442344456709873
0.039194757098197
0.0395688395704136
0.0336121726613684
0.0361347424886462
0.0372177795935915
0.0423080699578951
0.0375564256885595
0.0375080013457623
0.0363308725680548
0.0397228275165452
0.0378201417135346
0.0371997092735554
0.0448449581667747
0.0659414217699006
0.0509611085890904
0.039176557940768
0.0352577739286074
0.0515532390141932
0.0541100349446712
0.0461504793372442
0.0350402614955163
0.0441767609084556
0.0339715602900278
0.0396827369154436
0.0330603208164286
0.043322770871597
0.0423482455813163
0.0394707191351933
0.0372633292192599
0.0381381868142626
0.0363144671750654
0.042571460785626
0.0413491088364551
0.0520152573952837
0.0456289557037813
0.0416691420947635
0.0415878704680422
0.0449130600318145
0.0346824202666575
0.041640208409462
0.0370421955996915
0.0412017540184854
0.0496899705258989
0.0551422055504301
0.0460638886282182
0.0552872085471142
0.0494417203734449
0.0417581463185955
0.0406182698898953
0.0556671081597188
0.0421558295779979
0.0421921512810377
0.0498755308365817
0.0665583849098813
0.0674603689102987
0.0533036943037364
0.0510194932895893
0.0378501458948813
0.0460643493555226
0.0336309587724074
0.0486253600837603
0.0503851095435636
0.051626013807261
0.037089596800597
0.0431057360735061
0.0519880005275565
0.0570049549297967
0.0471863767150079
0.0470846853252202
0.0414796100221098
0.0461488308230166
0.0567954983520764
0.0452724064757949
0.0493288949873292
0.0617481646176261
0.0867366542697841
0.0640934501801082
0.0518808174099786
0.0502709667502871
0.0755724780234757
0.057729973692242
0.0415176073855779
0.0468948160042006
0.0452790026794932
0.0417537160585353
0.0533820368643181
0.0716231913898177
0.0565620782422943
0.0432972696699368
0.0476384894761057
0.048499023974679
0.0622718892387818
0.0596703727164833
0.0473675169226206
0.0513451982994432
0.0439121916982648
0.0544933348800895
0.0806004088045031
0.0745565778160001
0.0676937666640795
0.0720653378927508
0.0739736080147592
0.0611645650479758
0.0631023024580015
0.0541746162417669
0.072718030292763
0.0709843776250052
0.0580416521169324
0.0497554838050109
0.0766903253456175
0.0718673608032489
0.0685338073013115
0.0551855763655355
0.0601904773262905
0.0542185432641256
0.0997026486483485
0.119370003196704
0.095687635233204
0.0616615665703423
0.0735062446021963
0.0863829503140634
0.0744415112363169
0.0607657227683483
0.0626873186221346
0.062934042359831
0.061764528561395
0.0689972820064721
0.0756503949724718
0.0695181468924048
0.0722677182581615
0.0675804460717863
0.0786244875355771
0.0909595731129259
0.133669815182326
0.100051474504889
0.0975862115245235
0.102146300168743
0.107564716824778
0.0842297333572598
0.0797024437031518
0.0705555932691235
0.0867452770796844
0.0801646040637582
0.0786481383926038
0.0789416321204595
0.108920113749523
0.0970479019646244
0.102506272106677
0.0982379095820974
0.0965197522623038
0.0838571290031968
0.126336073570568
0.180568978832863
0.145718222793957
0.0978640377735814
0.11634455982845
0.117941573156284
0.169972832830957
0.115832654477917
0.104963017204843
0.10021478430263
0.107211513288349
0.115940539456478
0.125511118027936
0.123761932755972
0.140127751306178
0.122397424901197
0.131751862723417
0.138071654236311
0.23285544575208
0.195273510819758
0.162461286135353
0.145593846875413
0.167280719804971
0.163022864685334
0.155839662709681
0.15394256671663
0.155056247401199
0.179793130794986
0.20528167465766
0.182033078326213
0.16990680701189
0.19165087848578
0.203021155538273
0.19607895827418
0.222842664658914
0.228610454334444
0.203797176819503
0.198116187015646
0.205318668442106
0.200445372403853
0.213785898529876
0.232902820197413
0.236065998337079
0.219863415564868
0.22606131289506
0.2230192589168
0.226474048339277
0.231926860721389
0.233486904026447
0.238534873446796
0.277507439042585
0.286791405176475
0.410062914883203
0.268782862529955
0.247836351266967
0.235579410644657
0.259028318093025
0.275436478867777
0.283579621134127
0.288965602378727
0.270592401497969
0.245615564245646
0.244557302952504
0.242606013040292
0.245185435430576
0.248649729919042
0.248683967037366
0.245429094065052
0.2658204826478
0.252204712357259
0.300118030903982
0.3069975057594
0.270231902903378
0.24602234614585
0.252937606417794
0.243239434271427
0.249592729932415
0.240805412636533
0.266828618357275
0.257594526356994
0.255361742844117
0.239716826664287
0.256987841625505
0.264556591878961
0.281443046595779
0.25004324017182
0.248037843258248
0.242626151175522
0.249147803301324
0.238387917837309
0.27776107225328
0.282560271405643
0.259954770874005
0.241850106875723
0.250132762046025
0.237240415208747
0.248921975722562
0.239588246220137
0.256214561612469
0.247495173035536
0.251913007858103
0.251788810435867
0.251189056287008
0.243389953761734
0.254691007895846
0.252784479906074
0.257089485209544
0.249456981618043
0.257526245565834
0.252483331531172
0.256672695778631
0.250490260972626
0.260785510112647
0.254663957105682
0.261537377845878
0.261329262956873
0.259490657633503
0.256294395053555
0.261426548064328
0.257768946442459
0.262070825576009
0.256545502856096
0.258447324221861
0.251910657278418
0.255932092768985
0.252113978811169
0.258779028980036
0.246759883019745
0.252724632972898
0.248376148434932
0.24777349131147
0.24651167945878
0.249419287121442
0.247176575081448
0.304911898183037
0.263204924096837
0.24117676059246
0.231451263432
0.234447523897325
0.220838608753465
0.231926098186113
0.271599954174902
0.253050212793155
0.220716874193206
0.218575901545045
0.209887767254964
0.233562521291581
0.214599579479765
0.209763851513921
0.197998593617719
0.202641749657049
0.244309626206955
0.277453765995759
0.284977813287709
0.280972431604854
0.211214097064014
0.190040596546661
0.210295145431736
0.221377269450956
0.188443855042966
0.179822583301309
0.17935888121857
0.230040859562898
0.19098837974804
0.179143220082438
0.17437582350406
0.172266524956954
0.197305741034601
0.209348751623662
0.187379465244412
0.200905260364935
0.208655857615412
0.198493537908112
0.225318114456876
0.242189211565044
0.194666227273518
0.166047228432741
0.160442954978314
0.157195784292128
0.169027913662065
0.21463652068416
0.170612562059665
0.172848338376889
0.151218908139186
0.149525075088555
0.150334773498378
0.17524433169831
0.156261777204426
0.171395846066621
0.180430125238235
0.148667320318015
0.160329862172101
0.176041641040957
0.196957582268259
0.207850966715037
0.156408651368443
0.144229406662779
0.18073804047017
0.188142346838089
0.156448049995599
0.157448336267036
0.13038201270044
0.14943503107003
0.158103679461718
0.142914659717667
0.158970423043143
0.165827792080324
0.176725397257975
0.207319809552215
0.213511193072244
0.203547653786432
0.145899217868324
0.132870253520922
0.134964127072412
0.143455215849133
0.135691976517489
0.135625213648765
0.17563419320962
0.149305576406978
0.140607110451955
0.190219086048267
0.154321902211553
0.144622991083738
0.14465031558947
0.146570393439677
0.156098604389309
0.189279754240373
0.201142648673023
0.175772724405519
0.177122261842973
0.189532332442938
0.166778169251078
0.169496770255155
0.163599345207898
0.174466503760104
0.17656606193521
0.196730241215574
0.182591747480447
0.191376239512665
0.18709689525376
0.193124585784362
0.22835761516046
0.235183998851628
0.2019196999045
0.245928050244707
0.240727152746387
0.287196848017606
0.242960725781989
0.229581531211077
0.234569610711638
0.239873319014575
0.240797016008834
0.241125216438487
0.263721455800557
0.29143272880422
0.252375722730455
0.266638849829316
0.258718944007618
0.2653234980134
0.265116275356621
0.315216784232531
0.300709103836332
0.356510743751157
0.325546563965909
0.30961353852071
0.290282693634128
0.280919874485224
0.293888625709024
0.296316568674972
0.289933882498925
0.291966993580623
0.293817516569098
0.327280254008877
0.295445092580628
0.296948965726311
0.294427672928539
0.300806124147725
0.302373333530481
0.309323090112573
0.301593856642864
0.311934804799941
0.30843758762281
0.314008584709109
0.31311457205777
0.404157586563115
0.339345024944402
0.331787328606781
0.33123775609645
0.340089546054412
0.332549340607358
0.340369560564913
0.361148852340783
0.351496707818975
0.343036683306351
0.353141950654353
0.346941328434766
0.354342628621461
0.36218462628339
0.387529709852049
0.353653505537
0.376065476290652
0.358435894191211
0.405452194978079
0.409195170511538
0.389174854555625
0.392298974154161
0.379296612369089
0.376001438680841
0.372925976048856
0.370551757791028
0.378708702904583
0.379573886222587
0.375771996053239
0.37776866109005
0.374781429878942
0.370279282878659
0.368859657177402
0.372925469202325
0.401572654062592
0.373385546519555
0.3726058427738
0.36515985259418
0.371307799250783
0.366132936068222
0.402833282374304
0.383097076668632
0.378657384990842
0.368871842816205
0.384341912467853
0.391090971081881
0.382715248717673
0.359894424642196
0.375124667100567
0.364626027758755
0.37388880534927
0.354574119532048
0.386114568541835
0.398871986118356
0.379082701901998
0.372337992157007
0.373523568663259
0.374514429139843
0.375205028006496
0.381653686371818
0.380661388239054
0.375892893523326
0.386424236215673
0.389729626299138
0.386713215706167
0.388684360593897
0.400547179656984
0.406732113891807
0.401828125255009
0.380748709294166
0.383558737666344
0.377291987467733
0.379515568723549
0.380417593165674
0.37719025566351
0.367402051883693
0.366115314110186
0.357467394615329
0.361809038230353
0.39080867993215
0.3560090808227
0.362507261816867
0.352394167010337
0.34197720077763
0.345630612563435
0.340424630455918
0.339352469369938
0.330057760492242
0.335766468350082
0.32809415021716
0.330541916309208
0.324372473483257
0.326098988043731
0.323730456716562
0.326362642505101
0.320076315730227
0.320999752665172
0.318913429399522
0.320312801537829
0.321920056864183
0.315313937244023
0.318458171940892
0.316976073298681
0.334836887833414
0.338881900848359
0.335572250564244
0.325018498482862
0.322484808788179
0.325366384093849
0.309375525887757
0.323178070184308
0.310160773502056
0.318454758516985
0.314330738514776
0.317532560950893
0.314661025335033
0.317101733155779
0.313618733517432
0.313574871252283
0.31025871944452
0.31678036881009
0.313949742760094
0.311859812326058
0.308576246571783
0.320908853627587
0.314162948223941
0.323054435859482
0.314996202934802
0.318119460889845
0.313758179198282
0.317390832335835
0.314982897329588
0.315206082482267
0.321499678000601
0.313560599964979
0.30934071887789
0.308880997550424
0.311138321754733
0.313875022551232
0.308666652900924
0.309023031999131
0.30661066680195
0.307596936360574
0.304965605137464
0.304425595881611
0.295588355181522
0.298744346817306
0.294419078258559
0.29349427085612
0.289312803830628
0.289923082209588
0.284568971906925
0.283293274994104
0.280354705649508
0.27731953745019
0.270596345535373
0.273239447168908
0.271112089400359
0.268441314848389
0.270542832641336
0.272051389206086
0.262099305381207
0.26415380220199
0.25925183878898
0.262493857480494
0.259131351582764
0.260380345541091
0.263409556204282
0.262099330021031
0.262055460843667
0.264373771238222
0.260185845117266
0.264694475587049
0.260997593454885
0.267752786363813
0.263461641180094
0.266062151567782
0.269940414017413
0.269720967683623
0.274052075608009
0.272425209960375
0.274523399045489
0.278519642654044
0.275343295518692
0.278208828989313
0.278361258079371
0.278788024882908
0.278784322778289
0.279946986092213
0.279647189458786
0.28154827779927
0.277084791291176
0.285529528610248
0.28267550622402
0.285117742227504
0.278779938451375
0.282626966235263
0.281918581733318
0.280608121366481
0.277009674575413
0.276777891936826
0.273793961000178
0.27894144039356
0.275195264297901
0.275620484797873
0.27372929609069
0.276027984765581
0.272282068309851
0.272426614031298
0.269013555129156
0.27160398198552
0.268009171547357
0.26722209775369
0.265190336454721
0.26525650523158
0.262518442174529
0.263537415679189
0.261932481811873
0.262390887713862
0.261806973729285
0.262674401566922
0.259703510660466
0.258046156415359
0.25739958947373
0.256691876181538
0.258086558104808
0.259290440888882
0.256504167527958
0.255292753734028
0.254394542765201
0.253256216702525
0.251765345447808
0.251338053274894
0.248882706681318
0.248285228133959
0.245139401696774
0.246593934841776
0.243339165490433
0.242680044510825
0.240046266488988
0.239177228491207
0.238946052474694
0.237482381712816
0.232603070423125
0.232748790066688
0.231470295718264
0.23078777715702
0.227591410848015
0.228643632870614
0.228498231644998
0.227584430645272
0.226018447504601
0.227452010298812
0.224092549705951
0.227962313021339
0.225895884316949
0.225365001886335
0.221601101852218
0.222622657407315
0.219805523378055
0.219555564120687
0.215765420794141
0.216096358802404
0.212161243030826
0.209377369627451
0.205712161559779
0.205412137207509
0.204273830230095
0.20685985451961
0.203744735821535
0.206205763079744
0.207285517608397
0.212983956605551
0.214783281510187
0.222291417934966
0.22775290395579
0.236253816963219
0.244310341139518
0.254864939661896
0.262576128307571
0.272341627792112
0.287531710021894
0.301476605515181
0.312909085337346
0.323984390230436
0.332916953943095
0.349975758449257
0.363102437944835
0.372103512647726
0.380874544226293
0.397120059531751
0.405789067614801
0.414449446662782
0.424001472247559
0.432016317106087
0.443461736083327
0.452285913939411
0.460285182651662
0.469363431617992
0.474802347994683
0.482706531080026
0.489217848088966
0.493984385963446
0.499499268836216
0.504757493167815
0.507597048677117
0.505776331173408
0.512603127265089
0.517086297643567
0.516786078640619
0.514356606535988
0.520460816880575
0.521342210261735
0.519839029079008
0.520463198448346
0.519716553264618
0.523022527015937
0.525547566253504
0.525478556485025
0.529084216027352
0.534500319189328
0.536577716367588
0.538129659046818
0.545731730521735
0.547702207548499
0.552659934060564
0.559856782030115
0.564216702964924
0.571581366725289
0.573084272778895
0.581926875452756
0.589828304405075
0.59306738254642
0.603324147766275
0.614861880530493
0.624539441268682
0.636719969766548
0.63975099864663
0.652182899945577
0.656424728893141
0.667774819815951
0.663636660168721
0.677261830614626
0.684301311641482
0.683946547331781
0.686301606467698
0.68716569465781
0.680670137070682
0.683442537330592
0.680127427031036
0.676817194468832
0.675207733630214
0.670637267552701
0.66949498902888
0.667553293152754
0.672145272130401
0.67808699060834
0.691554214854103
0.695105246058611
0.696836626250392
0.71224710573723
0.730832358472952
0.741082105309208
0.752909674263174
0.772884146143546
0.781005721951586
0.788977190588109
0.801601828872625
0.816539578016121
0.833357801978438
0.839567038724715
0.850708425059354
0.872994160300696
0.879025158219984
0.887620958251966
0.905620067239819
0.923279247636575
0.929847503492395
0.953934533101549
0.973544621492764
0.990071123012015
1.00966034392128
1.021595765049
1.04478454923987
1.0616677721395
1.07358338447104
1.0794220704886
1.09124581623398
1.11198359326546
1.12167137556044
1.12369453430921
1.14904702687938
1.15830637169294
1.15869944054359
1.17196051452798
1.16121454994062
1.16628728116458
1.16104681569086
1.1541821480252
1.15751851415891
1.15532515881115
1.14107873270823
1.12328382872923
1.1282066231314
1.1350306645827
1.12633792911419
1.10308980836234
1.12099497219683
1.11603537272419
1.10916362358443
1.1302603312137
1.14501931050774
1.11852047158047
1.13431653538508
1.15720603958274
1.17603006487832
1.18553862498236
1.20941829598956
1.20155052888474
1.21030792926725
1.22674035847048
1.22544902787723
1.24575085814807
1.24515064483834
1.23858588254638
1.25199739381974
1.24667454199466
1.27762754054695
1.2527450446719
1.23585125777326
1.23890580816731
1.24107545774389
1.23365694682433
1.24278990890615
1.24561582462259
1.23853396260952
1.21862194318651
1.24578053686331
1.23035742067088
1.22480516317888
1.22691586249078
1.21333067129623
1.19556180897343
1.19443268544473
1.18068043787615
1.16925689105327
1.14293497771453
1.14674875073056
1.12735609505742
1.11218001093529
1.0964310848408
1.05840424285051
1.02832251258783
1.01007631982175
0.98181319314162
0.94372864812834
0.908406886786565
0.873391402186915
0.839561936555102
0.805110751405558
0.76715070753704
0.741751755286354
0.707324785562141
0.678020013746938
0.664166574230619
0.635543839193095
0.623910460923883
0.61735304745369
0.610487101048715
0.596670516560502
0.588809978765671
0.591980897434849
0.576958722479638
0.571443719271481
0.572287307934584
0.561308973136773
0.550775858124974
0.551574510642871
0.544741071510302
0.530899630120247
0.524366026998816
0.516803475633438
0.500417859482809
0.487245824698048
0.480037965226383
0.46410617743174
0.444912644990129
0.430993741155869
0.41681009753273
0.400973691652073
0.388823033685476
0.371444956269878
0.353653288028991
0.333100073793907
0.318765903326718
0.301779642085238
0.288890227131712
0.270393878956588
0.261796010959874
0.25014375009554
0.234821368449655
0.22436309844396
0.214643881996227
0.210223513040836
0.201985172241046
0.194368865562244
0.189528258413868
0.182437339239358
0.179115583930176
0.176854421101847
0.168944939713274
0.170027543385966
0.169579593001669
0.167289717934095
0.166174106193192
0.167070010520769
0.164756346556295
0.16497812636657
0.164413826392429
0.166402528293498
0.169663113523963
0.169891500540759
0.167777614746382
0.169708663774346
0.168614925402819
0.169597647093368
0.174094369438041
0.176060825004927
0.173085579252322
0.17074640979795
0.170708117587164
0.170531537776497
0.169491736434979
0.168303309137779
0.168162481097508
0.16949169708707
0.164095652885132
0.163857293692578
0.164247678943395
0.163986450480451
0.162548497901006
0.164054035869275
0.160717137579997
0.164256710751675
0.16991286892872
0.169605577798736
0.168838615188877
0.173769169297887
0.169602495722852
0.169215036986807
0.175105530204125
0.181107471116516
0.179403405965216
0.184364689938267
0.183581467211291
0.183990334873975
0.182670895247652
0.184533438600653
0.184745429373385
0.191520978535328
0.191980360960931
0.189751506344999
0.188904795084631
0.186679373188292
0.192044468560301
0.19289493545208
0.1904903485395
0.195507038168598
0.193850044771037
0.198184472811537
0.203467608715538
0.207499016578562
0.209913640898894
0.215022895630506
0.220656562781763
0.228991976144705
0.232562938926981
0.244065276245593
0.245868748721998
0.256340344071869
0.255108358870185
0.265681234908548
0.276614140859451
0.272750738308198
0.266064003699462
0.270508807265951
0.262936247684663
0.265322943049992
0.258130043386007
0.253030970513088
0.242549060040811
0.241810002325312
0.236687338266121
0.233692338012235
0.223391291735222
0.225423477120171
0.229745085562196
0.230407460643658
0.226615669134273
0.228513530601254
0.220887902590088
0.230396407827207
0.228428117808731
0.230399928079097
0.225374457651328
0.225374893071434
0.224215016172767
0.225991217084007
0.217459376433731
0.217631369259755
0.216197776694692
0.208028966996952
0.204110511515191
0.207154680655907
0.204095981711853
0.198943760321321
0.203191416147472
0.196546906864513
0.18987261432274
0.195983896045557
0.191818241434457
0.195507996654348
0.192710030942959
0.19676134057792
0.185171833091056
0.185604213607859
0.189576471996466
0.187926159110223
0.180874844075675
0.180167652338718
0.178163288606276
0.180673657018922
0.169745222973419
0.172841269234741
0.169201400840179
0.174032160410328
0.17495297826333
0.171250234183254
0.162894038012391
0.162620023857216
0.163575590953851
0.161983982222807
0.157473299843606
0.156391432981099
0.161090252120103
0.162750521481495
0.156617759491012
0.157517798728299
0.153241831982813
0.153986033399815
0.144375626071834
0.155079247802808
0.160286928983944
0.159680150433622
0.158394931306264
0.165234696212252
0.155447310317063
0.152601646800774
0.148257791065128
0.161178490931859
0.15294547424668
0.155188897526216
0.154760227248491
0.156710773734456
0.161176376608348
0.169386099650395
0.16150904846485
0.168204295986481
0.168896578454308
0.169021615218804
0.164986259289695
0.171171195940955
0.172469677581641
0.177201534083492
0.172736692651734
0.17827941548189
0.179188811235866
0.182748437738212
0.187072797449419
0.205669581702693
0.198650210470943
0.202377716826478
0.196581475247253
0.211345102039974
0.215250067391007
0.224438058652095
0.22063753424085
0.239682621019924
0.243360570525965
0.250593502177073
0.249519007382481
0.260861427098652
0.265336544183398
0.290475088336806
0.296133027456579
0.307233315280398
0.308511147360279
0.312575978039458
0.304570267951473
0.325267628006284
0.319204881372112
0.329089491741927
0.321396438020503
0.312102487272634
0.319214548633852
0.3202564273288
0.319912837733335
0.315654844704057
0.309189983621963
0.310940125632087
0.298690126374236
0.31391145701559
0.304152108707337
0.304925374601434
0.291770211231203
0.297691322384933
0.299527738065394
0.291354310479808
0.279454520738322
0.295863779544603
0.285451251305367
0.277987894683441
0.275227533371173
0.278850366122011
0.268810272164475
0.286354903320049
0.272738220483419
0.277429481175353
0.249404538146676
0.250479398089009
0.251801098269014
0.263639612177081
0.247745681790474
0.260811918256119
0.240319481192414
0.247392547337367
0.254108818770474
0.255815399770827
0.261551581826459
0.263638239766067
0.239460393198147
0.271352217800852
0.261945884475389
0.248742376703039
0.242929199577378
0.256435107909214
0.245847790684047
0.251249121225652
0.24045376658828
0.255720495967284
0.278128492043141
0.260268762546533
0.254041814922421
0.254222319416526
0.265616568020243
0.29296120438699
0.281367481914073
0.278649273712827
0.260969150958532
0.287552327017075
0.268272006564576
0.274929293610044
0.267439626560625
0.295302918469581
0.293768940855418
0.272807739877551
0.290997243701567
0.322347001082383
0.28866851482148
0.317374186906295
0.304059968022719
0.311338944393212
0.319635042263202
0.317100711887371
0.296438759925609
0.316195261426023
0.342990220544452
0.346216926637812
0.308913731959283
0.352719401955585
0.350599480996798
0.3730614276974
0.401542294213431
0.401995468913198
0.378141963651835
0.408636722996243
0.398501983126845
0.423687057290304
0.373196596731962
0.42520700938924
0.391893582175358
0.37230182857565
0.363819338193622
0.409861227828971
0.343288140835972
0.380123465422262
0.373022354294928
0.324336638548048
0.363353703596161
0.362674556963928
0.31675933993316
0.345870934736138
0.337907713103159
0.345345222534536
0.35072011788156
0.35849678185311
0.330323176192338
0.345422767961454
0.311453291440953
0.413381183447647
0.42103804753526
0.33957925879638
0.35016933400661
0.372398089196002
0.323820431286808
0.331639679730992
0.348036000409817
0.364544805133144
0.436643760855731
0.381799352279308
0.364723430053899
0.431953483619417
0.413194721105531
0.389647370266768
0.283274089465587
0.372560490846949
0.351188787018341
0.371731650669502
0.377025307486264
0.448482322680808
0.44009448287432
0.363066950830633
0.243390981304869
0.38480307391579
0.506222275660373
0.370396843930178
0.36404957632853
0.358762316473506
0.275912406597999
0.431534209373629
0.501884549033073
0.457659793903997
0.42498461764319
0.420749378168475
0.241048743584508
