3596
4000.36533379555
650.420452594757
1
2
2
0.0733212142075996
0.0847459129399217
0.0682654968439253
0.0874935473159254
0.0752177046310062
0.0871367541300448
0.0683294324118017
0.0844723608496137
0.0702960810064859
0.0927391552328283
0.0785477473958569
0.0824155203460244
0.0646518810877572
0.0849262958474039
0.0684139451363434
0.0818001503796197
0.0680088878067109
0.08329049692904
0.0729348410447066
0.0896887946248384
0.0817281118127477
0.0763948205808576
0.0755385582492714
0.0851872863010161
0.0742755660392748
0.0899850194922025
0.0734640953933087
0.0904780899231774
0.0660468964625212
0.0826652928946707
0.0642141176764345
0.0849957417690828
0.0708856207783502
0.0904577814696825
0.0727247955501749
0.0855074170454822
0.0748510112347451
0.0847720981985281
0.0663123784547242
0.0951373393919768
0.079828847497399
0.0860097167249217
0.0782197692531269
0.079167152217944
0.069261849154343
0.0885371134447604
0.0698151857236065
0.0894363096161285
0.0742689294028447
0.0887023555409198
0.0723764612539067
0.0820580675557954
0.0888732072918344
0.100186430456649
0.0718486114715287
0.0973203769886455
0.0723954324194195
0.0856515746185795
0.0710433334111449
0.0974306071087276
0.098649894483849
0.096393102227286
0.0735280170522913
0.0817895983105638
0.0745478066948413
0.0841403793158648
0.0719860411678675
0.0817559527469382
0.0702053975484654
0.083284083697324
0.0731881511845101
0.118204112619762
0.0857365661797351
0.0921896086205209
0.0876875981925797
0.0867088853671697
0.0720535303349155
0.0810402068717194
0.0698549815889268
0.102233715158878
0.0924667664420576
0.0907661184751609
0.0663790009474579
0.0741769834015111
0.0882527285088784
0.0993225451283321
0.0692253271719088
0.101674169783016
0.0901323872138339
0.0970643503182175
0.0666304220263055
0.0890261939161392
0.0711559596057515
0.0741314474445188
0.0771676789213179
0.0789811944195221
0.0672542471321611
0.0856689645832891
0.0616841736385783
0.0980659296770684
0.089026874982809
0.134204708371177
0.0953140856789239
0.0890351142353515
0.10989778821221
0.101418038404524
0.0852953856025228
0.127961412569392
0.0845098513814856
0.0915262742651097
0.0696648172920066
0.079737248113048
0.0732683222207582
0.0824721398439458
0.0770144083792503
0.125631960149931
0.100559957380366
0.0837640472637515
0.0702616846439886
0.082678147986446
0.0635756207625596
0.13045117251381
0.102541039578221
0.0944846163087149
0.0805077462415716
0.0900667855328437
0.0762396167937761
0.122379017517932
0.0890791202779428
0.083386807762222
0.067866862023573
0.0831232326005014
0.0611455262147322
0.0889252007987609
0.111958232901377
0.0938895055692535
0.0795998704272144
0.0953715012290095
0.112125239681192
0.137043809248493
0.0884610036079709
0.0834214243967809
0.0670369417536342
0.105550271412368
0.107117043518165
0.0881218453434388
0.075236723632491
0.106729045073417
0.0692059986710658
0.0831169989604836
0.0724414256605059
0.0841952656322737
0.0855794332663158
0.0916664113536854
0.0585380315793336
0.164238379317793
0.119163062458278
0.154159222848312
0.119662441741042
0.0874457957926424
0.0744369891695686
0.0864293300672783
0.0746907777204442
0.0772927550643192
0.0678442233345942
0.0758524416935675
0.0857291284299482
0.111053337722349
0.0703673939884516
0.107068798765711
0.105599394583009
0.102843349000409
0.0812641109921649
0.156203284477205
0.0852153590439556
0.0924975213064727
0.100657722735333
0.0972397478420106
0.0592365000911131
0.104834003394229
0.0861566602865678
0.081356910926347
0.0704017170974856
0.0755616817930801
0.0747136821379171
0.0984179900013578
0.0705811826807655
0.0823039678776393
0.0741538382324963
0.0809382540138293
0.0958412626834623
0.142002609876327
0.105028127090696
0.094391122715601
0.0680100793421808
0.0686380028656871
0.105836856536085
0.119418072080559
0.06733139886213
0.0770019328509272
0.0613946544800131
0.0744332672475655
0.0673554219246646
0.0832932689891717
0.0613077759579925
0.0786083379092292
0.097985141957795
0.092234773189085
0.0684076204806036
0.0821441954582483
0.0739403623423361
0.0901950692034574
0.126321959248407
0.111137214062036
0.0667306477985528
0.0826095969693472
0.0770402869688431
0.0993102567692682
0.0793513001701814
0.0791257139082091
0.0667752512323538
0.0805603003545357
0.0615990155248249
0.078664095010266
0.0660174141740173
0.0838935987733957
0.0616014573486561
0.0775207769879126
0.0649601947802125
0.0857090822392779
0.0816480409092822
0.0791633151256521
0.0625326303451614
0.0808608929637671
0.0547735217868829
0.094191350603083
0.0829792272076515
0.0799892306270646
0.0676278270183041
0.0745398464894285
0.0677915551802973
0.076826151246658
0.0643305563077632
0.073879570117267
0.0623099059951686
0.0950594898505309
0.102398338156193
0.0876265175960549
0.0706844421192536
0.0724333557570964
0.0950142421175815
0.0930268029776635
0.0628515776181497
0.0741605519914405
0.0689249364797056
0.0705423864602966
0.0769842184723515
0.115664995479414
0.078190156836229
0.0768368388439242
0.086822665701119
0.0863696208114932
0.0707698175515913
0.0823853311016801
0.0894625800972165
0.17132478962534
0.0951769900900155
0.104942436597194
0.126914293868867
0.0974422331135564
0.0863398078381127
0.086911695962814
0.0650471159828703
0.21273112877248
0.117777639477972
0.0815801958282519
0.0786367110706038
0.106328499660127
0.0739217480456704
0.0968418343054441
0.0800257052911583
0.113607087036523
0.111361369671547
0.138582356422645
0.128506820742795
0.0821267247123651
0.113222255613843
0.107938814065917
0.0781317104115249
0.0790974073852402
0.0693002942371719
0.077105229777563
0.0904777007759847
0.102712007765951
0.0899473412451707
0.0853807379619184
0.0750271703192475
0.112674865780878
0.0782883347969537
0.0806487400587385
0.0806940681485191
0.0978927071945253
0.0681260982399296
0.0747364089199482
0.0750477179247923
0.09153761813702
0.0677640178759719
0.103975853830626
0.126333423970315
0.101401312724586
0.0886322815704302
0.113717631571637
0.0757591818497271
0.0834306994529498
0.0669238800762482
0.0775978774164554
0.0628235205337401
0.0772024000769722
0.0661998942628105
0.111931453460681
0.0700785631458525
0.0802593913181366
0.0641645890392113
0.0737563761155491
0.0682773837041773
0.0809142757961843
0.0698328978283661
0.0845771887511083
0.0689218157781834
0.0714158802258852
0.0973923885448804
0.111954732581051
0.0762000330940694
0.151089571676558
0.099514392325115
0.0844754980027021
0.0790379713092198
0.0847584094672374
0.0701325316899575
0.0785639890756623
0.0699005616675185
0.0799874160635996
0.0782559458450706
0.110068216845696
0.0833361105260925
0.0947408531219212
0.0916008781268902
0.156134909183734
0.143485323548822
0.108125865076254
0.0851609401895856
0.0790636517830948
0.125838106988072
0.115102434671968
0.116784407865101
0.111653723595197
0.0723030918178563
0.0934045094963451
0.0695268636926254
0.0928257141720581
0.0737176707928157
0.0963221071420552
0.0667112029502602
0.0930746285821008
0.0756762875949877
0.0951748049368835
0.0716358705780654
0.108437788743809
0.121388572247522
0.112256261744381
0.0853065117442746
0.0986082962481426
0.0777750550889181
0.155076203331428
0.107572262274201
0.179845993091667
0.12329849009189
0.149593133298689
0.139400811598788
0.113562800118011
0.0941685125368976
0.092989555522634
0.095373253040614
0.112577423297855
0.0986766588561359
0.104134333229464
0.0969627133982028
0.110305741588095
0.105903715337825
0.106439073650183
0.0961640157235305
0.115667936121798
0.128046851035195
0.111169612895978
0.108433432245198
0.122736394744848
0.13593467154267
0.19790706895535
0.156108312090072
0.132599443832221
0.121641921766236
0.128592235247262
0.103621169645162
0.126236333169167
0.112679920889618
0.127929877959569
0.123293436339339
0.174370389774436
0.136184385907932
0.162265218599165
0.133877613172154
0.14121999884433
0.156654150493489
0.151873736242123
0.159727604037987
0.190093421735983
0.142143438231999
0.143228164772845
0.165200194458844
0.167365009437048
0.156107121481983
0.180199921805366
0.127934699114795
0.155252705422759
0.138060017249119
0.16706901566032
0.142812019894143
0.165089883601768
0.156450830640914
0.172181498935726
0.161391509700858
0.173018358078121
0.170453566483641
0.197401493753917
0.161916094403674
0.190456134580216
0.175887041831517
0.173479374099791
0.177475487522528
0.180471494567624
0.204096921881029
0.219138679200338
0.205549624709033
0.229809577301878
0.171804845010042
0.204300684845069
0.180093530911463
0.207151132308089
0.184209737153003
0.201445120294515
0.198122874294867
0.207581277328529
0.195474639338552
0.216924717523042
0.203535396031492
0.229062312825542
0.201652463823234
0.221070990692198
0.208354922517516
0.230420795046734
0.218221368018118
0.2345133966706
0.24068111553283
0.288376028515725
0.27712871188223
0.292023753029317
0.234451628371538
0.262538676517449
0.231347838967216
0.257408998991908
0.234388393769535
0.273975815814561
0.241161877969569
0.277715971916387
0.252718293155755
0.281640759779286
0.252858988066332
0.279270572402802
0.258004506372128
0.308160667914401
0.268542692387005
0.292936741840873
0.279193645419387
0.309523616185868
0.283755065762979
0.330792726125239
0.304235553323286
0.33976725539177
0.287792896980396
0.326748682026892
0.288329440368339
0.319032781104158
0.289793239853957
0.332757606682544
0.309891466943121
0.343236636172234
0.316326381361059
0.355041351917766
0.317318063271474
0.331936917317941
0.333811765173526
0.365716558925216
0.322137334129309
0.354221551790957
0.359510225510347
0.377710338491505
0.364128197902799
0.379642961467757
0.339968894250741
0.379712290726681
0.36315070794484
0.417613621446911
0.365118740443428
0.392171085005677
0.369373304953185
0.411272223175303
0.363163947119649
0.410829377781356
0.384614216860726
0.427423860782738
0.383340680290513
0.428606898481196
0.415342234518873
0.437868085827397
0.421157941433911
0.43554380419122
0.424792324249282
0.448184136590518
0.42294480529986
0.444303747693749
0.434645338506049
0.472451301604804
0.438236126537008
0.477894782510086
0.437992833143978
0.453288444201972
0.4283257429483
0.480939707278663
0.461059154348934
0.494640600502763
0.447474697227363
0.487062051118303
0.45699735412453
0.509560887236626
0.473163006006296
0.501786071537624
0.485700029583884
0.491533072470902
0.501448050564416
0.523881365163567
0.503612277167539
0.533989699605792
0.51158377479226
0.536357006151708
0.509626080710207
0.552845617307815
0.524003400906708
0.584268327192716
0.507911826620344
0.569139195177223
0.521046113565972
0.56593127633104
0.53080879713247
0.56610012088321
0.528329099039313
0.587301291014282
0.508422195547366
0.559472637190474
0.550970962954974
0.602059360246845
0.564369650679204
0.603042042054125
0.567793262311226
0.612996280931736
0.592633877547297
0.633357971984261
0.599634521854524
0.59931699804009
0.585289644194944
0.647868245745538
0.607200242092996
0.639007851856391
0.60740981383961
0.637753406084961
0.607905629170513
0.644692178517521
0.61098711996433
0.676753699667014
0.617907640769171
0.678431990910632
0.616579324857259
0.652269288206889
0.634256508528462
0.715340790905037
0.665996533853142
0.712904500442857
0.639293198743903
0.684441899245017
0.633419530308918
0.66105467373925
0.628296539706245
0.697646586684525
0.663721874374727
0.710558030863089
0.689138824759014
0.721732929291062
0.679977335209092
0.702296334617611
0.705228742771777
0.709987716290928
0.659386781371262
0.743665539813747
0.729258416829748
0.717858129475683
0.690788884505459
0.746826621564362
0.70945808741959
0.74400105743539
0.736939321817536
0.783717590267366
0.737859142911599
0.774919803284642
0.697271533991954
0.7759287706439
0.715279005208077
0.796885924863854
0.728406969371371
0.736116822370985
0.724198256472675
0.732771923893671
0.732973589147424
0.781301718564779
0.745649461942041
0.772128787044551
0.756509900601507
0.797525392137559
0.718101343907771
0.796515798515031
0.74094844719684
0.805123138526916
0.756870599517892
0.784637695253933
0.766915923766595
0.815903085265381
0.761106057961933
0.797703019216065
0.81058360824961
0.821405640226469
0.790020344723847
0.811602012228261
0.753572667446678
0.81557296268286
0.759321398848277
0.846717585230002
0.796432861558446
0.852523237451208
0.814498900116662
0.832881567597721
0.826531047240699
0.886335310296821
0.819268307741378
0.842867231252944
0.769751701228225
0.847780117775454
0.774305191349826
0.85290985040028
0.805371324837608
0.827504566974601
0.795703651643993
0.821114178144319
0.81261214088152
0.810980120641172
0.793150020818979
0.839264556055449
0.808501658892877
0.837329115633739
0.84968008772901
0.865912742372802
0.814415565713887
0.893819358741789
0.83825249387206
0.871127790866637
0.853291052381117
0.852426686473854
0.817839655411713
0.85791797004621
0.846606565214607
0.871566030377684
0.856735875840229
0.908435529414283
0.864533586470457
0.876712764589109
0.818260103464945
0.852239728900707
0.821588515632166
0.904375502468503
0.8368330547751
0.873732701448249
0.831252023522496
0.893983307849015
0.849450410269514
0.903750653356852
0.868884325570821
0.877101562920049
0.81645213613884
0.872404006006546
0.856744007905571
0.870005640169659
0.809525790248499
0.840056958494519
0.859245523844691
0.884125598340647
0.844587974168557
0.882313933404817
0.84426189886141
0.8833905047701
0.870416643143133
0.832926158990447
0.837733787663744
0.914726051152136
0.842301492308277
0.863526600960244
0.845050520015962
0.887296774386792
0.843726969933078
0.874643003398958
0.833582303476401
0.893292610914203
0.864223889563175
0.884484108659753
0.843621256084851
0.869071560385045
0.87181150901848
0.885724756332983
0.827008217420013
0.872176753335583
0.83654356488681
0.871416126697382
0.868866831114139
0.877345431871374
0.840831854144358
0.852553993954253
0.829956439111775
0.851546706873171
0.84215892497873
0.886521780774425
0.83324795112206
0.882908514817301
0.841430383743083
0.839488492773046
0.834903342726113
0.879211497466596
0.841881010999371
0.87834002724537
0.838563355349849
0.872019682757625
0.854718436758897
0.85420736193246
0.829584247570808
0.843119358359733
0.832794040916796
0.869374738165656
0.846891852550717
0.857674137197516
0.83078558531662
0.865887719509817
0.799313909320608
0.833484559964486
0.844712253505664
0.851277223390951
0.809573584406434
0.831697715422622
0.812084513983656
0.838993435024634
0.812023820582393
0.821675028156372
0.818663425610225
0.855424362384119
0.826871415125111
0.846881444230331
0.817530100542146
0.827813683797851
0.802066010235475
0.806696602830313
0.784562771894875
0.838279045470536
0.805862510950685
0.806796738971778
0.800980706695398
0.804436883569772
0.791454114539324
0.835750445882213
0.793910663184845
0.826442742704533
0.794174451870566
0.809678318328527
0.772757607693034
0.792309245224952
0.789097415860056
0.816822077082758
0.782054767535075
0.802178107543529
0.773494144244156
0.772348795169811
0.761542211630536
0.780380469560613
0.752654338611867
0.774040181930424
0.758126645028593
0.780389386048674
0.747369116717789
0.777078326015127
0.746466087737606
0.763927998110083
0.764466983629454
0.756213812166383
0.743617090055712
0.759819742802421
0.743322026041305
0.752674458097227
0.725627265824913
0.744902360862576
0.723925100126717
0.742622320501308
0.723548256641107
0.740131287035972
0.740156474582819
0.747530922630671
0.712924322820697
0.732953867724976
0.721117371336825
0.722678110023576
0.709947891073935
0.720102862537212
0.694705416784831
0.705920771527501
0.707963129134756
0.720505403186579
0.69812649838781
0.711737233607711
0.68126101044189
0.693176323608422
0.684900155476916
0.712611988069256
0.686114875556906
0.686756302189069
0.667466766612523
0.686899999089528
0.674058550797499
0.690209748856541
0.672112460049296
0.667340237049809
0.668765640616014
0.677099549403834
0.654158611673929
0.657912630999346
0.640513474573887
0.662622626529588
0.647145823461094
0.651151330108478
0.628778045822493
0.635973920500276
0.649262952027981
0.655748065501746
0.635091278542944
0.641219542147023
0.624076821152884
0.647142057156049
0.621947871888095
0.624558581624615
0.60489454344983
0.614464041127234
0.606797053226382
0.618402403374784
0.618163584179878
0.624917057841706
0.59071097215886
0.601320265730514
0.5840700323173
0.596627868778462
0.590891129671458
0.60855621821563
0.585851716477863
0.585983690710439
0.576659325516583
0.593510122519433
0.584623629543635
0.589215740131537
0.559238043727068
0.565161508951937
0.553732437768654
0.569025670031738
0.546227251617966
0.562029187360427
0.558008739278107
0.561365382308655
0.55143208739731
0.559846453234379
0.534298009296794
0.546021214096568
0.535217644055672
0.537065971270536
0.531874522862083
0.537189623059656
0.529672830373197
0.538682661690072
0.523476826573703
0.523818714586809
0.512272770118728
0.529418060401197
0.517272400596869
0.511939250786005
0.498056104928711
0.513394617065646
0.500842436721633
0.49420818480834
0.494479681686164
0.499673345562908
0.486067180574415
0.497101883753553
0.477757751993362
0.484893177884183
0.476349392809948
0.481560925828094
0.480112558788228
0.482332201627307
0.476465788929578
0.467905014042365
0.458530573671467
0.469798562236316
0.45243646858662
0.468611473858942
0.463531854563139
0.459279251473003
0.451708896259342
0.451150047617625
0.439319986322913
0.453003931489008
0.436412272391342
0.443267142602591
0.436933808669757
0.442991901740266
0.432262502486088
0.434515300779776
0.434104593669609
0.431748766887526
0.422428096734007
0.421560871087301
0.419368645854064
0.424708728533625
0.410938905507797
0.426532074512502
0.40907361564146
0.408352575988153
0.40414930802357
0.406909218010877
0.396185343253625
0.406036183298793
0.393303809869295
0.402446510980063
0.395781615507022
0.39695053480471
0.391924341484317
0.392556104352814
0.384756496304428
0.383564244839322
0.381393354053551
0.386884384377871
0.379630114078303
0.39091917614602
0.381494148797739
0.375769144700323
0.363953827948797
0.368744532508219
0.363285256506478
0.360757855556967
0.357650381773021
0.367675607877613
0.356033146775712
0.359285218354685
0.354980305893558
0.354331225273777
0.349853280642046
0.357703351975204
0.341286142630312
0.345214975222698
0.343149863719571
0.34623081094329
0.341463501137875
0.341782790639107
0.332246480077649
0.333300516082939
0.329361401994058
0.33280084582446
0.328829798014222
0.329906873293617
0.326617211497094
0.330111655760758
0.319527871414292
0.320431426434802
0.317914360423128
0.324825218424878
0.320407273991488
0.31908415551161
0.306649064841507
0.313170513032587
0.307210841620249
0.312564545502833
0.305047464424397
0.31145629012579
0.302578132140485
0.30187392336564
0.29968173283201
0.300839855200388
0.294703559385522
0.298376583492005
0.290103934227785
0.296156707721346
0.292125985446235
0.291009239162355
0.291701968027249
0.285954255885764
0.279722777286723
0.286750588897203
0.27642953285168
0.283619042506335
0.277306506345632
0.281777796753903
0.278082589598808
0.270515155951288
0.26834404388142
0.279750199231664
0.273203886854421
0.271400163623657
0.261853105872537
0.268344449993305
0.260580132149884
0.263292329819459
0.262591041892484
0.266899798389522
0.257940752808169
0.265317105042542
0.25709537819876
0.26155718514574
0.248782506758907
0.252234797215954
0.248173691740585
0.254250876528979
0.24686121426888
0.250976002813148
0.24954130388037
0.249385303247896
0.24204334129097
0.247410159077205
0.241205948165969
0.246857154083241
0.239155390782084
0.242297503561729
0.23770959866832
0.240991757644688
0.241934790859097
0.242400639817925
0.231189103218833
0.234920293580759
0.231271752803625
0.233093607057898
0.23000879991387
0.233003308692465
0.229769859225635
0.233344718781025
0.232028381488479
0.23664731999039
0.231619268770189
0.22873003944772
0.227214216676899
0.232632649934133
0.231477793782628
0.230648859679418
0.224080067874838
0.235150185925898
0.233855880993396
0.236403016205731
0.228923912673527
0.233156849225341
0.232780051339337
0.236486684890659
0.237661224790699
0.238337419948897
0.234436333743833
0.240856113989346
0.234921616427413
0.238911613384995
0.236238888905567
0.244976651568606
0.240092997781367
0.241801625312546
0.242508361890416
0.242622739364085
0.246225320858726
0.255214773865118
0.243355644251315
0.245808998337384
0.248622040213751
0.254260877604553
0.250711726876855
0.247379686090678
0.247988963002045
0.259167160532016
0.255302017075411
0.256789004535315
0.253931031366131
0.264344970811431
0.260947021606609
0.258490790408187
0.261481486263908
0.271543617934689
0.268773739181265
0.270094825763583
0.267872550086237
0.27128334599924
0.270039750498734
0.274913326415198
0.275068756434416
0.280702815795681
0.278738876125497
0.280665976387339
0.275677273020822
0.291445179135598
0.291292558801619
0.296713711217114
0.297981958383885
0.301031225392779
0.297466602868608
0.300111637156476
0.299967217699306
0.310330209515359
0.309164772361285
0.31305001336594
0.313104965537744
0.317244457883641
0.313409324602881
0.316800819264037
0.323473000480071
0.318138114149912
0.325088467505021
0.329342043956588
0.321809399633518
0.320928026932793
0.323413527579195
0.329408262702608
0.325590823431346
0.324306632226628
0.324702995710995
0.328115036456417
0.3212524094388
0.323319699821839
0.324204081530345
0.325351397102186
0.317906539889087
0.322634238815243
0.322238397129219
0.322206130280878
0.324209509387931
0.331731627350566
0.321197407662223
0.324778080019723
0.32824699666372
0.326706919797397
0.323635709995505
0.321855390718161
0.320622580548794
0.322697571323287
0.323982259067413
0.327035007418638
0.326072778741582
0.321543229700298
0.321998737399802
0.325673817714536
0.323564358600236
0.328356072347105
0.325286802748956
0.328534359974505
0.326719985049689
0.326999802438464
0.324327013454522
0.332286379848406
0.329137028425872
0.331439420313626
0.327978349400927
0.322595973653937
0.32586225618704
0.327965183075218
0.325111840244315
0.322527442688619
0.326605545430437
0.335817936116949
0.329638851286739
0.32661446910334
0.322508552189393
0.330042320250909
0.323864778554014
0.320739409937445
0.320712837108374
0.325900573270049
0.322416677990652
0.319362124746296
0.316898052438359
0.319634914008685
0.314267336331427
0.309307999095586
0.304789809672677
0.30873716380547
0.307701380928366
0.304589894893644
0.305421583782211
0.30496541598422
0.294044542621082
0.294679807023499
0.286822302380388
0.28899608912526
0.288421904999663
0.286148330054526
0.282451618326082
0.279086071542363
0.275163479369889
0.278954874769052
0.276712962626027
0.27039666230472
0.266774595523874
0.268985143384522
0.259482689329186
0.256120613931845
0.255529246686331
0.256989189417544
0.246575660603777
0.251096885441004
0.245487099022392
0.241773289759429
0.246706648153965
0.242187973321724
0.243261375104939
0.241485424753907
0.239949585153321
0.234530051970992
0.235867597974682
0.239021576999893
0.231938726705713
0.230322246789964
0.229564185781378
0.23113552982704
0.224507442493595
0.222300018666498
0.223400777708978
0.224362181628091
0.222759587341007
0.220074267672402
0.222201116391563
0.222911645041066
0.219835372541318
0.215852466356148
0.217980889362008
0.217565589440061
0.211521528305854
0.215094911931464
0.210836243398409
0.210770986999962
0.206381087479929
0.20883614012849
0.206510219089898
0.208503293830502
0.199797507714615
0.202859377903678
0.201983757925822
0.199580428389662
0.199556523598271
0.205757162969932
0.206718050500578
0.193638523524933
0.191908422886385
0.199747666487961
0.19396136668523
0.194314023102681
0.194392968193135
0.191119903946528
0.190990881918263
0.194932746888685
0.190794373843624
0.192880667481668
0.186148517503953
0.186820964244966
0.182833156380864
0.185365883385036
0.185905224676921
0.187546627656464
0.182632360529616
0.178194237198879
0.184420756154806
0.183630661450194
0.181317500695605
0.180801728169726
0.180387447632309
0.184158800582867
0.179953138638637
0.181174377771205
0.177579414978611
0.176412138169819
0.177327769491575
0.176965959187526
0.176176756669098
0.175168345940275
0.173301258859199
0.173103571034509
0.173309334136239
0.170975624885651
0.168405188126433
0.172140872208368
0.170480483796115
0.172970412365212
0.168966732320267
0.172011014993714
0.169018413121044
0.171763439621915
0.16857161763683
0.16519591170541
0.167220288265756
0.166320412959626
0.16634541934151
0.168185429773767
0.16940039664224
0.162189493841827
0.165722422138141
0.16842200869093
0.16468941691543
0.165681139436381
0.165439593351473
0.16303221417763
0.159056245427884
0.161323438842292
0.161197711216665
0.164553950154184
0.158974155777512
0.163477107479755
0.163573365773994
0.161736179659398
0.156629623111834
0.159501503485638
0.158964782741165
0.158526253989455
0.154668435251014
0.158627792290282
0.159438190108055
0.155044305429649
0.15548469177576
0.159446510813018
0.156078620744943
0.15503673996027
0.156289642433602
0.156962163354958
0.155441338263827
0.154988610648037
0.155492565448167
0.156667210206954
0.152219473152811
0.155229873057839
0.15925272377406
0.155814863085201
0.153695013358303
0.154825115744572
0.150453534921605
0.152523677154682
0.150260910604056
0.154176304512035
0.156474534106127
0.151372843432231
0.151314312189196
0.153980871977083
0.153390336716017
0.149466650537649
0.151197216671157
0.15284264310359
0.149878469838866
0.150476405224803
0.147934542002591
0.147951845142695
0.149558129665686
0.147415684918913
0.147946556497349
0.144792375761649
0.147184479749387
0.146856681877114
0.14812991032027
0.144839755586413
0.146781869964291
0.143859210995017
0.145705354084803
0.145267600921999
0.14334947772899
0.14176168687143
0.144083002263906
0.145572662470518
0.142263196574119
0.140867796783425
0.141061012542502
0.139138898716065
0.138268329742872
0.137875360911184
0.135146537588653
0.13900118774097
0.139789369031881
0.13715368117268
0.135936526390214
0.143677511879838
0.135684806372912
0.134893385733971
0.136201883266981
0.1377744391204
0.132835725927776
0.134604294041099
0.132743198206043
0.135857236713673
0.135565531309258
0.134077914101967
0.134020641005454
0.129801262005455
0.12913818077297
0.133243242840936
0.131148709438487
0.132152495403417
0.130888333324936
0.128647846311829
0.129827722477759
0.129668656797129
0.129018562036762
0.131200501715597
0.130295560267442
0.128706980830481
0.126279615584812
0.127526831750853
0.128149472692221
0.127364326078439
0.122456102084782
0.123369154828511
0.123865068764046
0.123573766327788
0.120853621843344
0.125373165877471
0.124926185737245
0.125050380092122
0.120373122618721
0.118612350790291
0.118845620156741
0.120473655143215
0.116784523753949
0.122726651409704
0.118053318405298
0.118804618565068
0.116034793888705
0.115759018683616
0.118055973865292
0.115589265770025
0.112793350245678
0.116172964638282
0.117320713091032
0.111898593790318
0.112796535942283
0.114483418087253
0.108895012154785
0.11145584933677
0.11372965313853
0.112980028474
0.108021533265694
0.109454048956923
0.111575662994618
0.109084081659235
0.107792673471154
0.11241412976858
0.107480064485656
0.110591784943885
0.108142607592101
0.10597578579635
0.10937555662614
0.103962566356984
0.105481739238018
0.105192743387225
0.106091185958447
0.108057772790004
0.101927702058135
0.105124623717395
0.103586265432451
0.10313924830101
0.102654495107091
0.10438235952507
0.10496786552
0.10448288350977
0.102839056823782
0.103296536688132
0.0972458961606144
0.101974462560073
0.103496129095762
0.105580716721669
0.100986084823385
0.0996469167742571
0.100166375946937
0.103693337803588
0.0998213880789524
0.098367489744323
0.099725567068625
0.0988509500270885
0.0990672887775518
0.100723728398277
0.0954458446331874
0.0963714767742789
0.0963434717241558
0.0958270134792025
0.094545410163911
0.0976984268817661
0.0938191864181218
0.0991501901167211
0.0973239272432653
0.0937307022572042
0.094147575326805
0.0950221333237221
0.0956858359714167
0.0973572875520747
0.0921442406744073
0.0930503980508124
0.0906561058548802
0.0931915457087054
0.0907952288368234
0.0938855342980764
0.0906624965864844
0.0930929640217099
0.0925746836264664
0.0940223405704835
0.0905401576477831
0.094119332742408
0.0917180709452853
0.0949828911848261
0.0893059797597764
0.0931227628921903
0.0864872508718639
0.0916327789878372
0.0929356005846298
0.0885646007118773
0.0890489315471373
0.088261455597229
0.0871427005412635
0.0913808310462232
0.0925619526384201
0.0899919963694863
0.0897639218698229
0.0908380931419502
0.0866503365726609
0.0905308264399542
0.0898537059243615
0.0887100477505232
0.0873570011458648
0.0898273588439481
0.0882472398229139
0.0890649069984089
0.0880786810886725
0.087065711759085
0.0870401023016505
0.0875729412149071
0.0839484756387151
0.0896989487055427
0.0843902108380761
0.0860198262383708
0.0885057371263533
0.0876831729448479
0.0856016923520686
0.0823176704698484
0.0873413076334404
0.0862489734683754
0.0853958224165206
0.0857292871900992
0.0836599707937167
0.0848228563449089
0.0862256977896536
0.0842375340656341
0.0823609336719527
0.0824831557136509
0.0810431104053608
0.0804420100276409
0.0827974964367059
0.0833213373113483
0.0819987821858175
0.0839963781855696
0.0837299920303909
0.0841224638100089
0.0812468544696481
0.0841196871197417
0.0809203716495563
0.0812800676307231
0.0808044040574216
0.0829281111575769
0.080142685733597
0.0795933431136121
0.0781474571977872
0.0826173342808725
0.07677122649215
0.0789598561327338
0.0796535447148539
0.0787576798331304
0.0801017757964256
0.0795783954658194
0.0785771183004617
0.0789946702679628
0.0822909200338482
0.0802238804413875
0.0778188596251743
0.0787088071655284
0.0803972970555937
0.0781210670645882
0.0776708370394667
0.0784825477190283
0.0797821500691062
0.0767642557748094
0.0767456302453761
0.0806025348848912
0.0756770312376721
0.0792644405832153
0.0773082666365831
0.0775759422332025
0.0766565265548882
0.0746882502316742
0.0759430085412243
0.0759529838158667
0.0718279456442317
0.0724274961556427
0.0722938118745168
0.0730036158332719
0.0750883319700754
0.0743069142773309
0.0739533088686644
0.073138574427339
0.0720088263505556
0.0729364770188787
0.0712994029836901
0.0722245000283564
0.072622795456085
0.0741028492765508
0.07177709924592
0.0741653545114032
0.0704316534976221
0.0722890440280532
0.0671807533240014
0.0707684941103048
0.0697694748443725
0.0715025383663087
0.0700606947152031
0.0699044787965211
0.0679180935544962
0.0695220686246584
0.066706502758178
0.0686747766553982
0.0665391998486833
0.069500687535974
0.0669602488099327
0.0696638048669417
0.0658937495885967
0.0696589945720572
0.0673955313979079
0.0667846678277667
0.0673700795280879
0.0678101108767194
0.0659750113571729
0.0663739905810021
0.0646950868093437
0.0669966050672748
0.0651814347163736
0.0666614144324436
0.0651949445059703
0.0656968777271079
0.063982634996131
0.0661251553652029
0.0642988770024645
0.0687559413499513
0.0640621589652551
0.0645744889767186
0.0638434207735356
0.063673731315371
0.0642702976825058
0.0645944945110559
0.0617797574331816
0.0655532585879588
0.0641219112325833
0.0648165926133491
0.0638250022858932
0.0622700828912641
0.0620145300232403
0.0601097351698295
0.062101684896689
0.0617374449072118
0.0615505066406431
0.0637345057583517
0.0604598445145378
0.063134238552704
0.0589038768732531
0.0609240485361387
0.0582982166341913
0.0626238610002483
0.0618722421815825
0.0591220749603834
0.0574247874498703
0.0578958381062014
0.058651408330051
0.0598257888207893
0.0572846589853875
0.0606907547109105
0.0575850558048123
0.0588843181807611
0.0560048900375983
0.0569270969634837
0.057394833700194
0.0592866896907909
0.0591848094200033
0.0590965135360965
0.0551439172581578
0.0589795036351523
0.0527710235411996
0.0569029415902304
0.0556124854326612
0.0576150958966546
0.0565154221377802
0.0577538274311164
0.0544883031993678
0.0570075308425391
0.0523111960151298
0.0538635492582236
0.0538017604579787
0.0581892224221068
0.055240936035714
0.0558063028042941
0.0563581498972183
0.0593493732769523
0.0562507461176172
0.0586766190972455
0.0589282950268094
0.0596950071317386
0.0567101549146127
0.0630545640650089
0.0569405442727281
0.0645926262306541
0.0569105332649606
0.0599074432226329
0.0591142744276422
0.0595391451090863
0.0537362783258736
0.0549700738706155
0.0457031072243769
0.0484042223016132
0.0499294883120279
0.0546663730170871
0.0441395099088018
0.0471453076127685
0.0453641952698516
0.0556965114243877
0.0429891616354724
0.0564917987157143
0.0398955909064213
0.0478252272012
0.0475632262932892
0.0473042924785226
0.043350484747577
0.0512564478931795
0.0416050581653643
0.055423507126399
0.0417167405080157
0.0572750370922389
0.0487772916662905
0.0558729895432932
0.0443720994446554
0.060685294032631
0.0399159143135385
0.0527611852208976
0.0425607410181135
0.0508462613056962
0.0389792497248833
0.053701471672859
0.03955505844312
0.0549972007518008
0.0428430942127595
0.0587573185841799
0.0415737722897589
0.0599819979313473
0.0357564994050818
0.0526889946177707
0.0327373295969311
0.0504343407808316
0.0414211479627834
0.0632299708197967
0.0480511574858589
0.0516330455886502
0.0379441482365931
0.0492513230124681
0.0553358278937553
0.058626469085513
0.0492697237583875
0.041222087256508
0.062695171940456
0.0478337396380184
0.0613038775826224
0.0336358067898749
0.071857804573185
0.0377470982383433
0.0702236183825887
0.0352034852225738
0.0742199850326152
0.0338727114859551
0.0687467925294203
0.0416790470519905
0.059841700800501
0.0440491052566917
0.0602633852793956
0.0492417443885019
0.0524409506887914
0.0521958464750496
0.0474158324512765
0.0535456902721207
0.0508524719634505
0.0482158864714125
0.0549946875742404
0.0470283570194578
0.0538074532783779
0.0462349192984842
0.0527612013883634
0.0461510091240933
0.0512644870199258
0.0470537119231304
0.0485139806457756
0.0474695085463326
0.0473941860452832
0.0465846129792556
0.048237054758754
0.0458930655535471
0.048457294627881
0.0459489585954446
0.0488040247527642
0.0465901662990822
0.0499690417131952
0.0459796240215708
0.0496300024270442
0.0439482447689522
0.0471719793891637
0.0465154416696704
0.0499447160535102
0.0470701611527216
0.0471863542736318
0.0440527689756289
0.0485878728307668
0.0490211793500728
0.0493883819613854
0.0446490322162846
0.0465433629636524
0.0441677281928985
0.0488443174410999
0.0488659025794717
0.0476125217213763
0.0454409374154197
0.0479647485360976
0.045084749762189
0.04949288792294
0.0446469619764954
0.0445345802722233
0.043930559153611
0.0471531156087944
0.0469249565944408
0.0479508285438972
0.0470045219793386
0.047124059987893
0.0462674333631766
0.0456709464796589
0.0456521703236999
0.0477443871456453
0.0441771097342749
0.0476697114873414
0.0478700793812036
0.0463990785050481
0.0438553996561847
0.0452922201018395
0.0447074041817602
0.0449020651380288
0.0456595283138065
0.0469785325072411
0.0478910706608157
0.0442052470146194
0.0433181402271757
0.0456223986173957
0.0471047124183586
0.0462551132457542
0.0456029190057101
0.0461940457695164
0.044541701111579
0.047256393015122
0.0453741456399242
0.0462687800230368
0.0443282241749026
0.0448299963102404
0.0444625286019909
0.0462641633204204
0.0454691683891652
0.0456977571885496
0.0433342745364486
0.0452758672083829
0.0467970742821892
0.0467100814184384
0.0450511093228305
0.0470307110475954
0.0474069812707716
0.0460486516754298
0.0464211421198066
0.0451263661325148
0.0437819901899013
0.0478360409305013
0.0443800744763306
0.0465619659042654
0.0450625595052462
0.0471276435829146
0.0477651646183319
0.046736293258792
0.0460446128650285
0.0460793448420919
0.0464661861876372
0.0465202099983776
0.0446160153191603
0.0481883884637899
0.0432777503814772
0.0453901089282881
0.0487893369375682
0.046560634029342
0.0466954521213824
0.0469379824109506
0.046948302254738
0.0475864902653167
0.0468460277450831
0.0453240214355489
0.0472644306140339
0.0465696157741776
0.045744319266104
0.0451284298598911
0.0478338610505935
0.0478966380391031
0.0449633524695621
0.0452012520408122
0.0452522281920277
0.045591887474519
0.047383083747708
0.0434823656634616
0.0457912984095993
0.0463848106269788
0.0443375595396108
0.0461503790319277
0.0465428383395304
0.0444234478157084
0.0460308805406875
0.0458151001033954
0.0452203765548701
0.0469155559364111
0.0448945295702155
0.0466972079958711
0.0460311669902879
0.0466940483530883
0.0475680552097496
0.0465875114132272
0.0456123682434864
0.0464541562036169
0.0473438354612187
0.0469573918028493
0.0459262778392275
0.0454350056821454
0.0475829474007191
0.0468418112142528
0.0479051416357701
0.04667238083596
0.0479841414069492
0.0470963252273565
0.0487113166452154
0.048025612561466
0.0451124381392124
0.0468709881560365
0.0461882529657405
0.0473556624842269
0.04692027666901
0.0462158747341917
0.0486301802117374
0.0480384589354634
0.0472843255077615
0.045740021056079
0.0485883557356357
0.0461451282411023
0.0462855365436387
0.0454052980492421
0.045280340909956
0.0478123933651436
0.0448299724516989
0.0453681850965967
0.048159481818152
0.0456658348932139
0.0443634389121414
0.046903294951612
0.0447776435598765
0.0443031455654867
0.045623941141585
0.0466677617835841
0.0442722688427961
0.0464405839376299
0.0441258173134484
0.0444954745897564
0.0433478727687828
0.0447983270279248
0.0448855938414782
0.0455724902663691
0.0463897379854173
0.0447744455629068
0.0459117505343747
0.0441443675816317
0.0450788175602485
0.0453671859674428
0.0428965847704973
0.0447267254986123
0.0441712767991471
0.0434639247834055
0.0452589696325599
0.0432407142496747
0.0450438495121007
0.0428476939718986
0.0433870767869813
0.0445825972977601
0.0444423011936337
0.0428212295092923
0.0423314255313871
0.0437421852804413
0.0445448726870279
0.0427509545646826
0.0440443416501683
0.0436230034068823
0.0423312634520995
0.0435774517133177
0.0447047710338529
0.0432594771684436
0.0441220553475739
0.0450870050315002
0.0449698837275029
0.0413675628420744
0.0434716755535746
0.0427206162539755
0.0416865976515162
0.0421759396074362
0.0436133237927723
0.0427955609090252
0.0426815180904469
0.0450231592125157
0.0419935104884885
0.0416503304766225
0.0430092017350576
0.0424394173007222
0.0438057299866826
0.0433202728234364
0.0420075237233509
0.0407525357575862
0.0435581239062351
0.0426989199585676
0.0433497872311527
0.042682046584285
0.0439167519169335
0.0428217955004125
0.0431030196371108
0.0420873882687979
0.0439818054468297
0.0404977576816507
0.0407676647425775
0.0428377992433655
0.0399566095832724
0.0409069792672098
0.0432913653847518
0.0453277342826432
0.0462363905736895
0.0402270890582024
0.0437515586759418
0.0441428784064636
0.0431357215676167
0.0414984606219708
0.0410967318107492
0.0408009463206873
0.044444668070653
0.0416357476808028
0.043469173443107
0.0425612933381634
0.0424848030176376
0.0415069094922809
0.0435278821611492
0.0411839207011716
0.0422479154037993
0.0414709376606819
0.0407013167514059
0.0414674584491553
0.0403643344303208
0.0428315888832199
0.0414053182825295
0.0392967854322593
0.0445922239703198
0.0439664182317742
0.0423252410564398
0.0416533094206895
0.0428741530438451
0.0412577320289707
0.0401498736238136
0.0428140415587142
0.0422816240991114
0.0401611158046977
0.0421686569761589
0.0397566849096907
0.0415289905484542
0.0401601031799484
0.0416434453456203
0.0394006708330806
0.0402413606817356
0.0410559974403276
0.0414944466759286
0.0384188534675105
0.0398519142731278
0.0395334016540824
0.037893189462712
0.0408029634734297
0.0411583322692007
0.0404009772713949
0.0420303047721854
0.043334803227804
0.0444360497127631
0.0385366626910956
0.0396392526421936
0.0376228168771879
0.0395690270920476
0.039455037023505
0.0400282721279128
0.0387952816333086
0.0388261126085393
0.0366896136659479
0.0389482179177088
0.0364823608107339
0.0390804560910078
0.0366822935718532
0.0394029474323898
0.0344905063379806
0.0375242833620085
0.037633690971371
0.0402208066036109
0.0363747811040918
0.0383906516687708
0.036680737847342
0.0401875716847373
0.0352988295166159
0.0422324724589701
0.04121685242659
0.052080466268525
0.0388756087511334
0.0401240999651426
0.0407950555819286
0.0428433322699521
0.0377896022750435
0.0355700079614747
0.037248018467136
0.0368155323497811
0.0377762320288051
0.0371629315949053
0.0344061027176654
0.0389051821784697
0.0362713426270857
0.0379718815461517
0.037255600993633
0.0392403593903021
0.0355293681189646
0.0373192273878354
0.0372385676558612
0.0378355519897033
0.0359694996424572
0.0368600667166154
0.0347503314942586
0.0369036751401586
0.0373254160980107
0.0458856810738521
0.0440018265163257
0.0374883035305338
0.03549370787935
0.035217122572971
0.0362177826816425
0.0362957264875986
0.0362826814489094
0.033189919841776
0.0348597604917999
0.0354753155413336
0.0364319898928915
0.0358215086349657
0.0350008417467917
0.0382421155261123
0.0350827842665479
0.0356843770138623
0.0358525852521266
0.0363465732897909
0.0369951564845754
0.0346695072907443
0.0359696653372713
0.036547902848693
0.0400909247445891
0.0361831686510706
0.0354072311450631
0.0443893671895462
0.05597734237343
0.040791902389738
0.0356256026059135
0.0355622031615557
0.0328428936219123
0.0366652892906818
0.0348161545034437
0.0360037992215813
0.0324820525795992
0.0336793256998778
0.0362508845116471
0.034774468152898
0.0352924486219757
0.0371321305619534
0.0325052364083853
0.0343871829897321
0.0330061092078828
0.0375123132403526
0.0322968944445883
0.0357343484564622
0.0424678912463968
0.0511817139127565
0.0424617315547424
0.0367766461071078
0.0343222851437128
0.0372842398809994
0.0479576168414473
0.0514630128133096
0.0262785237291356
0.0423269273650038
0.0303685396489606
0.0389189657792129
0.0296722546706364
0.0372503503268905
0.0337985520421154
0.045724860510233
0.0355785500591569
0.0406697387342294
0.0337400269633614
0.0358300294026655
0.0319924337154896
0.035634915481735
0.0339906795847083
0.0346523040135172
0.0322000609254919
0.0347385683711305
0.0331045891893662
0.0358452541134865
0.030311933898113
0.0375286183326291
0.0369075135008392
0.0465852282519473
0.0317330825560932
0.0368166899196598
0.028851733665243
0.0385530911710957
0.0431272063391825
0.0534378285222688
0.0357085221230063
0.0331797943778751
0.0356464253890073
0.035310750175741
0.0346883260197392
0.0333504843512064
0.0347004119796466
0.0311833183887112
0.0333510233634278
0.036752132149425
0.0351775371541309
0.0335957402622011
0.0342492524707136
0.0347689161828166
0.0342161877534152
0.0344998854756019
0.0338920622401687
0.0344857424282377
0.0345604905818467
0.0450827514801733
0.0494108093109778
0.0693979917217744
0.0476934023024161
0.0523721623582807
0.0379564875923316
0.0372269270870514
0.0311728462119165
0.0330564596254848
0.0324197559846935
0.0383750773052279
0.0341221483158285
0.0351225940556663
0.0342677084030845
0.0346272304345858
0.033493012850692
0.0349482524021636
0.0312260786562204
0.0337898224510636
0.0331750996228472
0.032489336057804
0.0347331480000159
0.0323210987935408
0.0370096552208334
0.0417892266653584
0.049230526652095
0.0298787852355996
0.0524835619481744
0.0531571549261382
0.0710051511702838
0.0380012044310169
0.0428883053009024
0.0348173489470006
0.0334590312147499
0.0345050347073567
0.0378473676991614
0.0420562346926561
0.0371916892911755
0.033023694639708
0.0354245154607712
0.0390077298482661
0.0345476153396893
0.0393065932491664
0.0515975613644844
0.0674496794713385
0.0519621009335811
0.0340124465503621
0.0381728474402408
0.0489762536648426
0.0629225068823913
0.044763525589297
0.0327565334411742
0.0440523593181905
0.0316544512973139
0.0378606454652226
0.0289146497074972
0.040504359797116
0.0384985969477018
0.041340010871606
0.032867166789811
0.0342109352425428
0.0335285368131972
0.0393377988940697
0.0435339391614578
0.0499921067099785
0.0467416475332554
0.0400799761907039
0.039134720131972
0.0464033387685705
0.0327815877130163
0.0388028750150966
0.031428718458134
0.0411530105427662
0.0496651486894025
0.0556784122452041
0.0491972803113684
0.0571180339483105
0.0492025485915128
0.0429184345752631
0.039204022282281
0.0575309949955649
0.0371614142745919
0.0478506637009489
0.0430605422800878
0.0766723628481292
0.0642852113790538
0.0545134580751357
0.0486362284814782
0.0355837487588781
0.0442714504937341
0.0294353249809956
0.0508208494956207
0.0458561599360956
0.054899641088367
0.027357149082572
0.0480897837961316
0.0413329669376585
0.0590914195372206
0.0416551983042853
0.0465961298715615
0.0340586234781364
0.047075457570871
0.0493272788579632
0.0482576013242489
0.0494391413486839
0.0712754015953918
0.0885791206051385
0.0578076891895644
0.0523643879509958
0.0522091814158959
0.0692524169744651
0.057495328411198
0.0349304435373509
0.047514365484711
0.036382781217413
0.0456002066838844
0.0518733312576191
0.0735752466829113
0.0561903492520554
0.0382147960307644
0.0436306951776698
0.0512870703047347
0.0621620401480717
0.0617324081508569
0.0398057819740864
0.0508854098613285
0.038660125563766
0.0656451290085773
0.0717752139204603
0.086778368086353
0.0548481623657192
0.0835967716884212
0.0698847387339138
0.0658223523748938
0.0552641235695019
0.0542334368144533
0.0712758681135723
0.0727865469518531
0.0496975085474497
0.051765406714131
0.0698925876623244
0.0725861541143287
0.0624563183711566
0.0499409533959996
0.0600485555005924
0.0583863651116267
0.103391562308757
0.125635832799998
0.0881852077750473
0.0590897596551368
0.0725044951103882
0.0798485103939727
0.0688096232418229
0.053728052339618
0.0574065210662139
0.0551468276727631
0.0561018315275377
0.0633608798617458
0.0681378115238023
0.067438150754412
0.0594530419446388
0.0634665448854933
0.0696661845180229
0.107938830908333
0.129065323559768
0.0973182150641015
0.101737928344547
0.0944206446855155
0.108166445342927
0.0734881990939467
0.0735487821945148
0.0635576746305998
0.0818850125635725
0.0749945688613039
0.0719014743000926
0.081808501062247
0.0965770874753764
0.0980260925065839
0.0960036446084853
0.0977422633742307
0.0891608092243075
0.0804777115041048
0.149628097255189
0.14686866433074
0.153573691995126
0.0772778153311532
0.128087402976874
0.114878940434485
0.163569909520851
0.110809692256833
0.0980029727244702
0.0935182909080447
0.103485561743611
0.106285193653077
0.123034318932103
0.121943315184182
0.135581985737219
0.114850932573151
0.137238403861241
0.140052344142539
0.25082556326452
0.193413287034475
0.155724554091096
0.142945574516965
0.167503938038635
0.156524498746746
0.15592176919666
0.138719365379164
0.160833964917937
0.177954970212316
0.197109999847711
0.176732480991915
0.161062332260896
0.196374614556071
0.180203942516625
0.207556673668097
0.201961970492499
0.234942087920505
0.187468209669769
0.193185447658698
0.190068231540331
0.193192774914469
0.210418087151195
0.227147894603886
0.230601672617213
0.209241773428882
0.217011365431684
0.213452388719732
0.215131093449926
0.224583159283201
0.228677457149148
0.241196034641773
0.264219921571334
0.323922718944025
0.32361316592145
0.272187579928914
0.231281645683878
0.228055116622467
0.247208350889793
0.264165564931041
0.294801687673397
0.270564717813158
0.25922102985226
0.228542767736287
0.229054952431776
0.233603278276983
0.229843881474151
0.240147162871983
0.226706284010836
0.242752454217684
0.241982128826111
0.262939317755792
0.283805452476192
0.299244434724005
0.247213292400129
0.228556183347008
0.230342164862506
0.225435636976454
0.225288286249543
0.220306878662121
0.249805200364348
0.234030280142245
0.240824697628403
0.21768217654426
0.235847626245794
0.239620460946428
0.259208093608959
0.226011185468265
0.223084238207363
0.221280572543508
0.21530464470659
0.223514445036815
0.250081397851762
0.256105198583871
0.231741154481909
0.204834136989295
0.223006937762687
0.206385842386192
0.217824256361513
0.214911978333935
0.228895571811421
0.215735253056525
0.223842348956581
0.211683799379809
0.221187059526784
0.209721767834252
0.224301047641888
0.216001796130472
0.218503937263842
0.212778393255954
0.223265966405951
0.212008960593641
0.218554368761757
0.213790400577935
0.223959138180772
0.218301802455339
0.22714466374077
0.225126098385835
0.222255843496875
0.219402803059106
0.227880418417436
0.217650581353128
0.224788552541887
0.216196447625061
0.223328958558521
0.215144695335979
0.216112311494215
0.209374039491337
0.218280853127414
0.215889295822598
0.217350685222504
0.21385325697905
0.211510925836504
0.211195759849886
0.215102074308135
0.234278289310775
0.254536484593023
0.238648897736964
0.205841659302615
0.20203284716087
0.208085400816805
0.190698412283795
0.218356653499332
0.2425611187726
0.230704686003205
0.192512169611578
0.192008891882293
0.189635942219095
0.209453134133741
0.185383905621461
0.195205191157241
0.171833849215729
0.204238038531618
0.221329685236566
0.286725200152531
0.287964609966755
0.270492865240928
0.193555968803157
0.179203421857263
0.211310795041581
0.199620883427219
0.181663943463964
0.160280814507319
0.181935374421598
0.211223637264307
0.188819981406542
0.172547032017264
0.159986189008099
0.171769294637132
0.204387984177141
0.200898870345663
0.1920178416035
0.210603126827465
0.205228701026374
0.211821490381667
0.236074463553419
0.241562435655285
0.183001123686325
0.163195774219927
0.150637021253711
0.156201088578264
0.183689001480613
0.198011051346032
0.176468845779196
0.164402635868992
0.145095102842638
0.147191576607445
0.157179972573827
0.177702354432242
0.151764234538408
0.184467920143893
0.160810223999753
0.158434723756959
0.150629716342541
0.192101755115829
0.195285016191791
0.205503976161637
0.146648498350186
0.148830512489491
0.186954409107399
0.18406737916834
0.162193174174368
0.150420509110122
0.128721360005043
0.152448624388516
0.14410514828272
0.143835381133345
0.153101207157768
0.17014692237334
0.189663413842433
0.212305965649532
0.237331641629999
0.186918886380021
0.134822614181193
0.124851515763801
0.122766422083388
0.139371936427803
0.11642659893409
0.133672960171866
0.151509806910668
0.137516021070853
0.143922171133397
0.165788387100258
0.143110598237798
0.126328987095502
0.127680114382028
0.130458164640376
0.142963769530608
0.183741810247653
0.185070187166903
0.156974115848791
0.161908383389757
0.167995393543485
0.153583043044987
0.143272057386203
0.145891694862328
0.145089155335454
0.156758463217825
0.167146163690748
0.159757530049907
0.163322399610756
0.161102316664486
0.169680872792772
0.212667354574475
0.189452470249228
0.191328694734755
0.204173562862255
0.23927053997146
0.247326624139808
0.206655761301184
0.195175302468415
0.192456399412978
0.203999578380971
0.200696584643696
0.206439767517318
0.231103446387918
0.239290254344475
0.224010795023252
0.214231121432283
0.219950213192537
0.216909620598639
0.24138633823674
0.262185453503576
0.282317972447581
0.313415702169254
0.284805398090349
0.272499654140877
0.239938316336287
0.240846274929571
0.248114725269877
0.251847302338861
0.240439095379913
0.239934433318574
0.25852409878334
0.273326659481394
0.246834773393774
0.24667856753375
0.247243369757596
0.25203761309135
0.247973700722119
0.255286830654746
0.247900433877915
0.261257170495296
0.259622416557598
0.257871178346148
0.292267261386045
0.339507496483594
0.293396274826134
0.272448354876158
0.277640612218915
0.284293218577647
0.27486794484856
0.285861811525307
0.308681660110811
0.294822482449811
0.286304221701864
0.28905689740499
0.294727229887286
0.289753545635992
0.315825378716345
0.317827687267151
0.303982244446425
0.301130737509781
0.302315966791951
0.368946344061029
0.337942402477306
0.333418877192761
0.322318691713042
0.3209568470712
0.307704000240147
0.312830207162226
0.302217508466472
0.315508051827779
0.312322572487634
0.313993785343025
0.311981625467821
0.310059539921682
0.309625985038662
0.303220146632044
0.321357327265516
0.335982491014074
0.312285376186309
0.307450608363556
0.307092003027397
0.30556405270624
0.30996895948074
0.337131096089307
0.327894952205102
0.31944479155364
0.307259006967953
0.330624883464702
0.33585730871955
0.321197301232453
0.303831078068144
0.30414271743859
0.305634283948835
0.312681904657572
0.298124966421829
0.33128388400998
0.331137478019447
0.321767957715732
0.307685569897893
0.310078209134033
0.306614076568868
0.314699490169645
0.305985785643199
0.318181137284405
0.311484386775236
0.322617255724832
0.321848602510316
0.314934439306853
0.318828640468565
0.336114936558684
0.345585976628418
0.332565473905874
0.314501861159336
0.31686584613056
0.309409264100232
0.313864221483981
0.311372973023005
0.310401994855581
0.296801495135998
0.3060298033006
0.293749604858156
0.316689508143449
0.323135037298597
0.303621274371187
0.305187997132258
0.291437046647814
0.283220725701059
0.28548320447825
0.281498600371972
0.277676157100499
0.278952802586252
0.282479547472183
0.272710927137975
0.274681649756306
0.268045616859245
0.270425541955185
0.267302365548022
0.268868749941933
0.264114836352678
0.269870855915952
0.26366486418103
0.267890527891952
0.261425402013539
0.264896558269239
0.259993726389898
0.265736019945104
0.283196113039357
0.287382441683596
0.287993978221424
0.27198321021082
0.27345225868735
0.269688849467512
0.258170965585577
0.264072386810648
0.260476220918379
0.262416617907282
0.256192570193804
0.26369079672762
0.261543781401349
0.262123523358189
0.25865596341382
0.260204664457589
0.260766831154063
0.261039466698196
0.261227571087795
0.259559039596893
0.258871712137654
0.262077287380545
0.262851618594454
0.271319192636882
0.259211532468094
0.268420265486857
0.258850335214021
0.261746859235135
0.256956035396489
0.265325663114618
0.265222959463195
0.259951077958806
0.259255464220004
0.259383023406412
0.25776955311577
0.264520594584676
0.255000681010451
0.259715440589605
0.254376993394726
0.256287678101015
0.251135384882705
0.25276676409456
0.246796839756547
0.24888674021193
0.242894936727342
0.245912382137902
0.240265370769584
0.242320541392291
0.236241995046627
0.2375235395317
0.231059914981519
0.233285547377879
0.225157691214776
0.228581130574615
0.227342278840586
0.226676725098392
0.224096365248422
0.226906166352167
0.220740362107795
0.222600505570701
0.217759539368276
0.220576244680388
0.219742117942361
0.220734663362684
0.218557516222706
0.220560543819474
0.216629657745923
0.221207744401912
0.218411440669835
0.219789824624458
0.220273679462633
0.220850950935058
0.220818230286942
0.224874228968774
0.225796735065746
0.226011501001573
0.228069946731309
0.229146593053243
0.225566282859109
0.23054301566568
0.231753322548149
0.232939422469405
0.232681345894944
0.234060288017653
0.234992207325365
0.234125260685664
0.233802417607597
0.235860020799638
0.23361832049842
0.235982893579424
0.231555352730039
0.236954047647561
0.236270266002123
0.234209835866713
0.233370008952574
0.23168565111497
0.231696324701466
0.231924153812752
0.230163395157446
0.231980173908368
0.2296286858182
0.231312339867678
0.229521439123373
0.232056859934435
0.229239957916154
0.22821162346887
0.227584310434279
0.227417463932649
0.224265153849517
0.224821400244653
0.221995336265964
0.223252725813645
0.221304451442219
0.220968362950869
0.217998243752925
0.220139117680279
0.2187558354166
0.219605510233045
0.217426399028052
0.215934853516048
0.216635917696667
0.216235588467458
0.215279650919733
0.214082378882593
0.214049520815714
0.21500389333078
0.212426415367733
0.210307907369693
0.210405834464398
0.211651633538071
0.208232417938216
0.212594846077313
0.205936772099893
0.206196903410391
0.203349960106224
0.204351312855664
0.19950057010372
0.201956072776817
0.19992494549213
0.198596119238301
0.19469690589724
0.193395982659597
0.193128481763871
0.193393030888854
0.191182968622735
0.193668438774582
0.192342868649106
0.193559261803344
0.190558316563157
0.190537537594814
0.188664530747561
0.189433649886497
0.189254512559531
0.189711952063762
0.187420147791394
0.188547235113019
0.18251936076655
0.183241224141175
0.181175502203388
0.179603421306884
0.175922332431323
0.176664697753927
0.17365126313793
0.171522865300557
0.171733503211836
0.173084608149069
0.169625797908884
0.174417353450325
0.174155690157765
0.176772128387048
0.180084706651513
0.187165974482292
0.191801050184338
0.195092011634815
0.203715594139219
0.211443813699813
0.220945025449039
0.228576832331501
0.238300174496078
0.250968310807963
0.259492557036239
0.269708797269503
0.275644770378153
0.289065886343602
0.296663096911593
0.306815070752121
0.312961855761389
0.324192237738489
0.332945858845342
0.341043041263323
0.345806533647208
0.358746859204815
0.360241971025448
0.370798802146261
0.377659755916571
0.383157684272965
0.386879868839452
0.391790994139377
0.399422428272907
0.402421062058497
0.407088218345082
0.41229859416089
0.410028607899763
0.414232924597802
0.41825818801663
0.416680246688292
0.419188826730731
0.417001484710685
0.420630798942005
0.424684158114196
0.419103614480912
0.422644460937772
0.42281526388786
0.42823839779324
0.4236842054223
0.427692314937117
0.428061836717697
0.431540244225939
0.432876709644801
0.440032002645044
0.441067786957459
0.445511614373802
0.446316356356741
0.453943656560532
0.458565477994127
0.463697194116323
0.465936720013213
0.472424955026148
0.475050587672511
0.480113925746234
0.483711415199243
0.493197008591662
0.49784423327085
0.508934499462127
0.516185364424512
0.520227812321606
0.530949156115218
0.534904731468474
0.54014458919987
0.542509884480458
0.545013951640375
0.547913232081684
0.545751199191785
0.551065682473074
0.547179472970822
0.546591613572481
0.545160906913489
0.544493100592417
0.536243186358791
0.544013650797261
0.541825215190249
0.53974533139508
0.541199447691221
0.547803119970549
0.55066987422267
0.556291755624243
0.565799157952533
0.573646276683685
0.586442251891381
0.594982132977888
0.602803180698979
0.612970233947987
0.621125473239018
0.632597438650843
0.63596499763611
0.652227910734537
0.659867993061522
0.667850335701484
0.680666752493082
0.690237785299819
0.70528709694964
0.709559485259823
0.719463848323303
0.732747776812677
0.739725478922449
0.757102934215359
0.77488358462085
0.787332960262232
0.801290561740875
0.804571664101116
0.816049279582549
0.826705029124547
0.843009974042516
0.853299090856486
0.859656445104948
0.870393407953905
0.873626779420241
0.888199691422159
0.894684428340642
0.899998468715243
0.897096118339121
0.896794999941693
0.891969663253364
0.897777946963765
0.903342353081641
0.896156600397985
0.882052671474602
0.880804333244482
0.88759584709366
0.87417416996051
0.868733376099719
0.870917742905896
0.871847887199844
0.865124140105799
0.8601623028861
0.873807907021979
0.866603126071154
0.876829892098771
0.877213799756001
0.881000906677865
0.888675398931195
0.894028487752639
0.89917837870624
0.911063696063468
0.919666849879457
0.924286359990335
0.928718772437028
0.938320091638345
0.93056835598807
0.949306062045712
0.94300586272005
0.951080918934395
0.951827264131523
0.961400646684203
0.954407140855859
0.955104265684121
0.947467846819433
0.939836395781262
0.947343513310336
0.94280422004087
0.952644442973764
0.945181601233608
0.933932888477586
0.940600268625154
0.919454172991932
0.916076052417024
0.912950387997592
0.912854090430126
0.905503157498015
0.902597101298255
0.887348424662846
0.89707060832571
0.866152062039343
0.871820812940438
0.872794704289977
0.860794788743485
0.840384075732066
0.83210745702949
0.805189617541519
0.79030220406879
0.767851392732212
0.743550117482406
0.728625229905849
0.707583861425694
0.684647086587907
0.655291920532767
0.623138866356996
0.606069554389089
0.583810112848696
0.561059590964126
0.540977756917655
0.529421322680079
0.511754027263891
0.510432113188702
0.494225633111379
0.493058361015833
0.487893494906493
0.480894034718015
0.480097311282967
0.473594623389796
0.466340323074483
0.469554633431064
0.459239143038987
0.456604517877276
0.451887432646498
0.44208540751223
0.433232468671571
0.428013086040252
0.421923480018205
0.408515333703587
0.401640258947608
0.391293976690299
0.384148099800622
0.371542995135533
0.356539434312012
0.344601479328522
0.335185380262529
0.319154294711753
0.306064995836505
0.294360313277769
0.282909739153727
0.26974730126035
0.255439809027786
0.240681896422351
0.23211010344834
0.220858878581433
0.213674278659878
0.201516176978878
0.194080307779257
0.187204124523026
0.179377198682339
0.175013867694164
0.167441600609861
0.166581095073709
0.159104445855406
0.15563710930773
0.150471205003884
0.150387423095732
0.146735394714992
0.144775948762712
0.143732032894129
0.143487767772023
0.143790716922683
0.14386525081631
0.143184366515337
0.142686844239113
0.14488645573171
0.144787958081828
0.145842187664111
0.147559698698274
0.147440047025276
0.146329426566093
0.147668823772347
0.150970383381995
0.149367146735933
0.148471775742219
0.149240102989617
0.15041029108373
0.148664418774712
0.149969673159132
0.144748139294442
0.142861777824349
0.142978414999337
0.14115117769735
0.143230619850741
0.143206420524872
0.144070516444466
0.140744682422632
0.14430609828045
0.14057756062411
0.142560741181779
0.144680917410662
0.146164278143999
0.14376181124964
0.150371727505013
0.146765725738541
0.147699739090967
0.149513970627029
0.155914205458874
0.153260452281907
0.158678888297116
0.156866795612777
0.157447749908674
0.157379801301874
0.159924296878816
0.162727686288305
0.162254416218185
0.158871874664504
0.15898774097185
0.160383688559621
0.160065544652472
0.162648240561109
0.164486849237189
0.164931448844393
0.164369693721109
0.168418567325983
0.168236623329877
0.172222113113964
0.17654082239181
0.177415677751164
0.182063548956037
0.185855975684797
0.191623292576065
0.198642128090562
0.205463747405634
0.209475203179767
0.21620207615169
0.218563388410025
0.220913522101137
0.220292334703062
0.226266254064621
0.224304690851713
0.226851253057584
0.216479789373464
0.220195455838708
0.213255395380347
0.208917376050359
0.20177277398193
0.205028518948752
0.193638770989676
0.194838974619223
0.191945539060181
0.194430283857343
0.190907134778089
0.192290992393521
0.190050995893713
0.190866786137913
0.190743822135744
0.194181901886377
0.187685991789308
0.195218300301996
0.191603714210949
0.193214935598654
0.190818439607893
0.187341261099543
0.183730792647047
0.179397665849604
0.181525366069399
0.175519794678254
0.173653526550827
0.173961841018652
0.172647610989809
0.172165228185926
0.173800787827879
0.166208578357119
0.159438975827711
0.170345482620452
0.163230022862159
0.164863067167895
0.158318370570355
0.16340418131037
0.162026210459351
0.161748952669962
0.16291431031012
0.155768491720865
0.153963142925539
0.152153030190623
0.152922331471989
0.158517884645035
0.153135618326286
0.152051255660978
0.150324248854388
0.149824468511417
0.143665202799575
0.143882583562552
0.143390028837786
0.148256244361755
0.143452421564949
0.146073156345151
0.136363956759243
0.140067636159352
0.141168915671602
0.136134918340844
0.133510166394242
0.137297676935266
0.133545839260988
0.135089463597883
0.128905859405498
0.133781157920998
0.12728962722599
0.13411936507458
0.13209598529735
0.137804633563176
0.133265084926993
0.136710252525339
0.137721198012475
0.143893681411371
0.132998926638705
0.142055462843435
0.136735550421604
0.136070660924983
0.132945276910125
0.144204531526108
0.14142024982592
0.141584945728373
0.140313852726957
0.14542509015441
0.145836878954404
0.145129385500145
0.142670988784735
0.146236848249512
0.145448592899346
0.160214989065305
0.157166425090061
0.162992054997743
0.158345635665515
0.163707851107131
0.158722743615963
0.169340708113847
0.165950257729243
0.168322839284287
0.178213496595726
0.200144366422113
0.196841090174688
0.197828317355242
0.200209143556618
0.222798887086409
0.220231293290941
0.227978927741572
0.226622391037689
0.236987866247009
0.226640869301295
0.245216467855529
0.260064910069093
0.259557371760041
0.249208436001454
0.265634865446698
0.263684812849292
0.26468295571208
0.262307413243164
0.270840165532998
0.260571064809309
0.261428562209328
0.248638059888784
0.27112275275974
0.248319242712438
0.252948160818309
0.258817068050535
0.254523268897911
0.248327168834713
0.268292333549523
0.24678883948137
0.245403322135599
0.243228630697984
0.249494186519289
0.240105180196018
0.249321043104973
0.236407250355179
0.244696220698082
0.239570402026345
0.235546063466343
0.22532939691752
0.237501815002103
0.220054771678755
0.222906025356761
0.207309403252899
0.212819632631159
0.204537720205709
0.207112446892479
0.209906036609716
0.233114495464382
0.205479648266512
0.219089417162558
0.21105016398387
0.2169416443095
0.205367542452867
0.218832663107244
0.21237403242382
0.231572312577733
0.209744611537953
0.207716423887849
0.207406973762015
0.223677036863068
0.222562965963849
0.225563464006597
0.217441438821072
0.233463724559325
0.233030545322951
0.230867377582542
0.219287580292272
0.215067206852075
0.238641546855693
0.236710152064079
0.228440066260508
0.26576239506988
0.21802816243481
0.23107770201538
0.221743590595629
0.219192893924796
0.231653723644309
0.261292738533608
0.216420190199
0.228286271997494
0.240484567637596
0.253563448326509
0.249681564746959
0.289318581281389
0.262707710610515
0.264667350613917
0.281299756010317
0.287046276035404
0.257666243851671
0.270315985282589
0.270766803080423
0.309896314481302
0.286896368909937
0.293180005992647
0.302214998579942
0.343491738818141
0.339852166055999
0.330836055349929
0.307919140844168
0.347126800349798
0.294950570681981
0.3354314947473
0.340641627542326
0.361465535976104
0.310132190572512
0.301457868342489
0.259114545381864
0.325971142244808
0.31857620136925
0.344075899708798
0.301827754694657
0.288294838874981
0.278707126436579
0.308860937296683
0.295363779417566
0.304277561787503
0.317957522752568
0.303775877778765
0.260749618811451
0.339059339998832
0.28852394057985
0.279318767801678
0.241118723279246
0.315224512961283
0.252589644422862
0.240084280347432
0.338785317200902
0.319762553741768
0.301155894563492
0.304690372957409
0.273604740842801
0.314882209053693
0.279955616604768
0.4045057705257
0.436976469009097
0.405251462577323
0.320789163411268
0.306437574183748
0.355792276759687
0.546227818946629
0.420484944661142
0.376550350672843
0.29106517813317
0.402370326148325
0.33010625177169
0.270902758975954
0.284835783475679
0.383008665394646
0.393539160570565
0.322486809783791
0.274100234686655
0.48618461261681
0.256967703712832
0.330491741100649
0.348959499243053
0.341769549814235
0.158628950658321
0.246859299992756
0.262516870844504
