3596
4000.36533379555
650.420452594757
1
2
2
0.0745349106554779
0.0860408779974976
0.0740010670810421
0.0907219204141706
0.0821352581053707
0.0817366015299389
0.07376668149954
0.092301296792025
0.0721639781654772
0.0907476258082067
0.0767185891919393
0.0852188753978034
0.0718404825970937
0.0846016754370198
0.0806395080261782
0.0822614931767088
0.0721420070322959
0.0900974253491599
0.0738332614416211
0.080779185807111
0.0844577677221418
0.0911372729130314
0.0796566334068563
0.0818705604295366
0.0817540232401291
0.0929079599778342
0.0746625248995681
0.0954991960352396
0.0720913326548016
0.091165556068828
0.0747442945046677
0.0858418831334334
0.0812573149659892
0.090272454774216
0.0787508889294114
0.0906956429481166
0.0786660045899662
0.0884464294099415
0.0648092174832525
0.0899517344695725
0.0867448256798516
0.0897408422719135
0.0758018402229065
0.0829325692433145
0.07489225207973
0.0885673656908267
0.0752283480874356
0.0920055116374605
0.0748088243755186
0.0901674589435217
0.0808128890915278
0.0841578099462306
0.0894110717011166
0.0994747751885203
0.0874666796718345
0.108900036250868
0.0848519869794022
0.0912073651558518
0.0760083241568015
0.0937953345423027
0.102659987763947
0.101490783350667
0.0768028867559288
0.0844985111167804
0.0762587319489087
0.0869895309628756
0.0816539080058312
0.0823590126027474
0.0787138442398974
0.0793996839734271
0.0801524077128089
0.110922888416754
0.0924498450789642
0.095341006551886
0.091823086203152
0.0885582126221314
0.0783090227259222
0.0850515866893747
0.0735972843907105
0.106582233075097
0.0984861894470963
0.0916585352583404
0.0716875970523423
0.0745674891347537
0.0941549189147888
0.104143087002865
0.0770557226765871
0.096165614907976
0.101363799016777
0.0956230873070562
0.0762684028288341
0.0882880980548261
0.0694287588876236
0.0781958012139224
0.0762969108081062
0.0803418489680772
0.0790757099209445
0.0870194757099951
0.0725224808689529
0.0910221022125942
0.0876157053983936
0.125611817311598
0.113747176551642
0.103347048133984
0.114068431154231
0.112722602378258
0.0817562113372927
0.131340025875221
0.0860334445153116
0.0868311447915131
0.0775870230549155
0.0782564493191444
0.0693710800610098
0.0901244223074988
0.0759033022859797
0.111125907643367
0.112711871249437
0.0949412153756332
0.081686389003849
0.0853482881705657
0.0732492948842482
0.126310267158861
0.122798192795035
0.0964165314574605
0.081925341560478
0.0840343485282766
0.0773144807625657
0.13102845348277
0.10179321589055
0.0790368565878706
0.0699154416102545
0.0789619810864357
0.071843044607118
0.0951269691322715
0.109948656280788
0.100108155676222
0.0744493921083579
0.0999645915743083
0.114058109562552
0.148123404277162
0.0964039231767066
0.0827635804017696
0.0670354587598711
0.106489156708531
0.108487637071376
0.0894233043696082
0.089444794457866
0.119390411618619
0.080211312779986
0.0809080693523748
0.0786753589851227
0.091754980434734
0.0934819029976392
0.0971211066504824
0.0684483940319086
0.133176748718188
0.139367561492929
0.147640000481095
0.124981111420215
0.0995250120864072
0.074482569574167
0.0903781938204303
0.0696838765497061
0.0798329055217816
0.070330935288163
0.0815740007577436
0.0979316684321149
0.118753580125602
0.0762146672904152
0.0988081559264885
0.112881844582934
0.102635361533407
0.0838497163545209
0.150384361349011
0.0881854927421184
0.0939363060471431
0.107423215108792
0.0942675425108236
0.0631018180615774
0.106019029454109
0.0955097421729217
0.0827500533241995
0.0745229721618238
0.0825210489428191
0.0807128261184368
0.100501620665501
0.0719519251837352
0.0883634164144976
0.0761256546813363
0.0819203138308889
0.0976626992912769
0.151008243188676
0.110062411679721
0.0961395244557881
0.0748938457842032
0.0740446485240916
0.106176210366549
0.123479734536038
0.0714400696168474
0.0820722407893066
0.0644300705239267
0.0801937442390395
0.0689916195795599
0.0827923183140435
0.0668385937817549
0.0790798133990608
0.106059779738867
0.101943159760432
0.0635153165974499
0.0859135727453936
0.0764028150031366
0.0969074752442377
0.134884646092611
0.119159583628344
0.0673326023608047
0.0875245535210316
0.0800014740458938
0.107252203377727
0.0885936079865022
0.0845284750563167
0.0694221169563148
0.0829235627497238
0.0651881160636294
0.082405420144295
0.0691062267728286
0.0855768609320428
0.067791316518089
0.0820139280205898
0.0694039080593463
0.0871142044349175
0.0792539794039378
0.0810195902361502
0.0663856579000018
0.0760157048959315
0.0671066038849781
0.0951577112444384
0.0910710715264908
0.0907591136166555
0.0652868695757109
0.0742399123763432
0.0662877409382769
0.0798339421524606
0.0663249255744163
0.0817451005256756
0.067680620186241
0.0900610564086519
0.105935994827453
0.0963292993221975
0.068594802134988
0.0814239075260907
0.0957055215816349
0.103020280949561
0.0647223272153313
0.0816846396693726
0.0693450170507383
0.0778640471742916
0.0833251625216395
0.131992025002875
0.0805175189921393
0.0861780003094857
0.0923041685849903
0.0940512813064363
0.073661426160454
0.0860300970085389
0.0918331391550733
0.170545123498846
0.0932999864912067
0.097992778397866
0.122137324509981
0.104868043200115
0.0876543238391001
0.0887618937162998
0.0712662627293267
0.207587258409109
0.126762896340158
0.0862461390872626
0.0873252109632415
0.101452881276025
0.0784819054925153
0.102522223296072
0.0906057465650602
0.118220896336923
0.118189028387872
0.158697661329071
0.122558089048278
0.0911182902432883
0.102623680657412
0.113109685571823
0.0833086556284336
0.0822417306588582
0.0732827109602014
0.0840041805296366
0.0885228695087881
0.111162537742305
0.0998652589573281
0.0928451594396961
0.0833783625448792
0.118565665145945
0.0838433171704619
0.0833559856481701
0.0895928097073464
0.0983433345266434
0.0705681343716801
0.0775542456450242
0.0726600823462762
0.090576665822911
0.0747579233460669
0.105461954794036
0.127828576932484
0.109123513196558
0.0939235459701545
0.118359891999075
0.0795403928559687
0.0914653635330474
0.0712009235048508
0.0812007019040289
0.0665434539229383
0.0734020576172157
0.0736008150320692
0.113118436491469
0.0777844412557855
0.0857893814290524
0.0675865613670896
0.0757591097034697
0.0722557956372688
0.0859793785080167
0.0743511101622552
0.0855375936844169
0.0755937268398196
0.0755366747624094
0.0961435771006748
0.117293291392778
0.0741973854641794
0.146957059665794
0.112440214729496
0.0931621856507896
0.0779838238990436
0.091704258464622
0.0749680262849344
0.08790280866989
0.0779256403428284
0.0847650498212889
0.0825585585742395
0.107992233399142
0.0851472532765714
0.0999472707093543
0.0903302326596871
0.176593999875541
0.143554934150027
0.116771646952727
0.0836865126647919
0.0895624721191307
0.12014310713425
0.119860895861485
0.120022528428879
0.123950436448095
0.0802498557442334
0.096707386843858
0.0771072030573348
0.0931487847006894
0.0738187924527697
0.0975820250588336
0.0717552869115945
0.0998048058541194
0.0843560158737944
0.100019216463475
0.0780875241678984
0.115309766029711
0.124722174331505
0.113104175047824
0.0911130200511888
0.100676865408395
0.0892694654591521
0.147442971582284
0.118347054660173
0.184011060812297
0.136883020066233
0.164372869868988
0.148006099753778
0.119547972599165
0.0987454123076067
0.103268507575735
0.0976778977088707
0.11780279644557
0.10477161996879
0.114578613871412
0.103584564811532
0.126796076781854
0.108279093631821
0.117768909455219
0.102588752822887
0.126355544586846
0.133308982946843
0.119950493198502
0.110147757416882
0.11914230887918
0.152255249969841
0.206285113572747
0.161127689849272
0.144941765891405
0.1300250908077
0.134232717735732
0.118609395180701
0.133269244628706
0.126440345669116
0.140981107479214
0.142128251618323
0.181348829344307
0.143472773243247
0.185276372223763
0.149571575962427
0.14717503190381
0.158045060835314
0.158703956523672
0.167452823074019
0.195296712331034
0.149639421885553
0.155687195219441
0.174952692172312
0.175757316008716
0.173078159905342
0.192318469579343
0.145512732625282
0.176346598056937
0.147765083656153
0.179040665048835
0.153779521851742
0.189490813606281
0.169873033417444
0.180034394859247
0.176019789070951
0.179473785658967
0.175810795949762
0.225292532513287
0.173877210040983
0.20226437629585
0.183675317510095
0.188279937661704
0.182375679003924
0.192849492750418
0.212098389762922
0.228976124139751
0.225328645957427
0.24275293573636
0.185688368497631
0.217899127301586
0.192085522134932
0.218441083709838
0.195310676809336
0.217186549238438
0.210282904045944
0.237619656380064
0.2114366316159
0.233750117339203
0.21703187462733
0.238973970216343
0.220333422856533
0.244160997000247
0.228922585035007
0.244934783474326
0.232342895917002
0.25213201341608
0.263597696456588
0.298662601140121
0.298465236267463
0.312472136399475
0.25888972619009
0.28069419685846
0.256879755245959
0.275439091988082
0.256977408283903
0.296779113213395
0.26353574738406
0.29396515472855
0.268023152958231
0.298319459860444
0.2703225344831
0.291899390287392
0.289649107348652
0.320928971675426
0.284624328863159
0.311545978596674
0.290994524877218
0.332470066522806
0.299133914613192
0.354367452626556
0.323007846683776
0.35172075181969
0.313484711436512
0.356078329168492
0.308347240598156
0.341940637146097
0.32194494252277
0.359167262009942
0.324266351473055
0.36310041865056
0.33554567736201
0.37846879347024
0.345963306289653
0.366394564508722
0.338959675790379
0.384476619186189
0.364807536983287
0.405027443731782
0.374669357688119
0.414966154143262
0.388391141003638
0.398667689316653
0.386132890777085
0.401347284947754
0.386036765272307
0.437753423615168
0.41471882598253
0.43816650691158
0.397487872002614
0.436237565556103
0.406523777983848
0.439966267779119
0.420432026648746
0.44443452963203
0.422345214781587
0.447476641276049
0.416543339320263
0.46196076741652
0.45226139862985
0.492492432133685
0.452555029626345
0.482651886564931
0.470836753382554
0.476718849704298
0.468602690990291
0.484216284501566
0.479245414916454
0.523476998089695
0.475089107657354
0.511138328543834
0.500524230920188
0.512778323104001
0.500784423009872
0.51880778313626
0.525621923581039
0.519832111974677
0.495823642902918
0.538863698047346
0.509360310809412
0.542717463582704
0.535282286422419
0.539969343460194
0.547648474537348
0.56404336843029
0.551705338406136
0.563033174899384
0.546192433809363
0.580753478762404
0.570066329787131
0.590769470917573
0.557909296009546
0.619806496342154
0.57798043382534
0.605674104013794
0.594920789742748
0.618121263649014
0.562408553548158
0.616786996320602
0.575565504123536
0.648283123221708
0.575706534768138
0.641217398899459
0.591167186388518
0.654528815845646
0.611200030561909
0.652727427235884
0.604635198584706
0.65687560880457
0.628575221106771
0.689133278427101
0.663151894910226
0.685852055262748
0.639555912686544
0.714762191548523
0.637442077111111
0.712615912603431
0.653741467340801
0.724163121206263
0.64374467202429
0.712179158191381
0.662405048770525
0.714654035437711
0.652145181985995
0.709680776700649
0.688768103367802
0.74256636985233
0.663396801897334
0.762320871682857
0.682306626627706
0.737519931800312
0.671276926659761
0.731996153775527
0.724889776042009
0.754746716411394
0.731767916146132
0.767566311776763
0.729356866296045
0.757205185164964
0.741923999775448
0.756591009578443
0.729734858694347
0.783441221247491
0.735744870409375
0.805118897700236
0.7254432591925
0.805950845858863
0.755868002711154
0.80741058978157
0.783413344514775
0.860245819218914
0.788889369647911
0.799236929529069
0.780972579178738
0.842727568498306
0.772301971452658
0.846752479359085
0.814070964488526
0.843980870541106
0.79759604351153
0.841373342686167
0.78740014388426
0.83706081795891
0.763339449535158
0.840850607275107
0.82499410895813
0.852879315801859
0.801856305261536
0.870790865342763
0.820436251346354
0.892823508435149
0.843354268508467
0.881874946375981
0.844476825694945
0.854764625331669
0.831458976159805
0.853505904106997
0.814643773052422
0.873694874005358
0.816605001772845
0.920287390243692
0.912427942780776
0.911573099081206
0.8768352812599
0.892205996999108
0.812898729721282
0.924909123614672
0.861938980638987
0.924792795821266
0.879619423715806
0.90430391375515
0.868943011193899
0.912412795909892
0.875520291760727
0.948399633697917
0.866082242232816
0.933200651607334
0.906129361791391
0.911317387631911
0.831484509231084
0.918824993669038
0.86536179497649
0.931506857430437
0.895974718624701
0.949663040524046
0.892674256342513
0.928138583149439
0.886325728340286
0.950501403428945
0.889763463414591
0.900342934694711
0.881686011979462
0.964992872427218
0.882397793875572
0.949944501247337
0.921295880753029
0.963762438857694
0.891308201739995
0.968879880363952
0.925842142729274
0.950021900529577
0.891998048446107
0.977518935389727
0.902568784968123
0.979843071580032
0.919377319538862
0.969377402056996
0.892463441125206
0.958881315661037
0.913624292401176
0.943376916344118
0.907385523980243
0.943390925712162
0.929305080212346
0.939336235624445
0.926571928366002
0.940450391558662
0.956280497649065
0.915927076252455
0.923219957043249
0.951534508983916
0.929588529426321
0.960314233817346
0.934956883714799
0.964551228126917
0.934627064606764
0.952293548639851
0.934140499137261
0.968873546516611
0.927537081086838
0.952242297905799
0.9445746648808
0.963188959254704
0.942649190455798
0.930470079329029
0.922694108941462
0.941117217025796
0.894644874494785
0.971954157311334
0.972952360601985
0.943987866124656
0.916129938866853
0.928512644701205
0.972334915121252
0.928402020693379
0.914995308074096
0.94541518479306
0.939448650532684
0.953447403354421
0.937440017520863
0.960274669439384
0.899244729863824
0.945306437181065
0.956012499776998
0.974251357327468
0.922640930133531
0.940744611206371
0.891249508883931
0.95092814127949
0.933228577795267
0.904272198171716
0.898936660602299
0.970042622265666
0.89249623334743
0.939611791990556
0.877629539883412
0.934195796062583
0.935684926608868
0.937222137697206
0.910795957687676
0.948155707371271
0.895483408353925
0.94550094729502
0.901390783792144
0.935918327861404
0.912712036277872
0.931267511040137
0.917618086728819
0.928283914010814
0.873888455089155
0.944754584700544
0.897492120922888
0.929865114907272
0.88821568649238
0.909223907215371
0.884885543024784
0.899010255609378
0.875159624743242
0.914513265023912
0.881578109418241
0.898853618427714
0.890986802992725
0.892504134507195
0.902202064989162
0.894429342328492
0.85746704878144
0.882226288236944
0.889586551181557
0.92537629642078
0.869039501844347
0.906636836332751
0.880572959302189
0.900690875229552
0.852384427148676
0.910053279087247
0.854985424210759
0.866783748048107
0.862685689894491
0.884871989474299
0.869349106229016
0.870876614440294
0.840370911893955
0.87189350656374
0.837716064429803
0.852631410750348
0.834223720518302
0.854076474555564
0.823289128867774
0.845727017677514
0.812420672024307
0.842455511140428
0.807945416018017
0.844705782930928
0.822837699215178
0.842724462433146
0.82007794684813
0.841421808981272
0.805024719563779
0.833753698351366
0.804426802749542
0.842686075517585
0.795020468967696
0.829642449153237
0.794393532578013
0.810766892693652
0.773816796527098
0.806194878364669
0.793496118207846
0.801882239190789
0.777043862451843
0.795024214980513
0.770671717998769
0.792706001569227
0.762973734147453
0.803522605860128
0.76485118870634
0.768044789826745
0.770190478543577
0.773698114965544
0.741371124201749
0.764125709812132
0.748746454737026
0.777528589064686
0.740053360506984
0.760839828962551
0.74997314486326
0.750592794586938
0.733233875102075
0.748173325044057
0.73439164197449
0.740974068098411
0.723557865006098
0.739316655749592
0.710273315300641
0.746676165429606
0.729000958061894
0.722929094818975
0.70943189386615
0.697487100854177
0.713560225524398
0.713206491266546
0.696369935770375
0.705730108299778
0.690844472468554
0.702389013943504
0.693075283036819
0.706032110390829
0.679147937527027
0.684348877067845
0.674197719516309
0.701259497158706
0.673335621648671
0.673051735245978
0.661107412044972
0.673031176224557
0.660101401738921
0.65360229139842
0.651530110876149
0.663937527226729
0.64492858893387
0.649882710899877
0.636005112162902
0.652816213191004
0.630623307646811
0.642992892836707
0.62228442936877
0.646866477090724
0.631062228980387
0.636651076401997
0.620277090007518
0.620338759538751
0.62021700634462
0.6256195972396
0.609145745608405
0.625908574725788
0.596076973528204
0.601653315420961
0.593100985080681
0.598042296972258
0.593850417964363
0.595646691043385
0.585737084432659
0.591807881270671
0.582027183679799
0.576532854647632
0.565067512420615
0.580628686043419
0.562234089049148
0.573385266016327
0.559863959566917
0.571413742992957
0.556289222345294
0.560176475626678
0.556842976723521
0.554938225629636
0.550786126693396
0.546188744302349
0.542417685952853
0.545834128059286
0.530154898389782
0.547721711538733
0.524581859987228
0.5331180380043
0.517095462821109
0.52149465763081
0.510757384850389
0.520755411058478
0.510528420996901
0.513064357950054
0.505260080871664
0.512482836632757
0.502471331420584
0.502416834688755
0.49145886634989
0.503679203821545
0.493955004904842
0.49465412233716
0.48374606793035
0.49550576979792
0.478803304745394
0.484955320566218
0.477285781520635
0.479537360790759
0.467636246515595
0.477291704072481
0.467122405669821
0.47906157865963
0.461551436064436
0.462309067212597
0.456071675385804
0.464853155065904
0.447169665120203
0.455960054707856
0.450384735603997
0.451685937423271
0.434571802418291
0.452425341026827
0.440326451336693
0.452663292119918
0.429821279614077
0.438787317265117
0.426940701502928
0.436958679889707
0.423802191718928
0.426082749579508
0.422834169237886
0.424440791978964
0.415728206494426
0.417169598247913
0.409810581291661
0.414815125004182
0.408407880976004
0.419347595382774
0.40083893131244
0.40976688824782
0.410131511695071
0.406183612654992
0.3908208533706
0.3999586138431
0.392807500531965
0.396069421035269
0.386500590833663
0.383601934328216
0.381268971484977
0.394863295248784
0.3827489616276
0.380852440049382
0.371233460165701
0.39040579767755
0.376935790460723
0.376072761994733
0.364171982310992
0.381052724606096
0.368389292794491
0.364669992668938
0.360529143702516
0.370770655451105
0.356198125027807
0.356211222271358
0.350549552037758
0.35575456429709
0.346930044686911
0.351447799750739
0.343988596211587
0.350613799437004
0.342587468270721
0.351347580101604
0.343876321694757
0.354785647702218
0.33759918813932
0.339903035010945
0.331798019465824
0.341272767717484
0.330749483767566
0.33345375318915
0.327021969596308
0.330481251760849
0.326664374346836
0.330580571097887
0.317574540671057
0.325736500649427
0.314644930184289
0.315502895311936
0.314953001870277
0.318030843709692
0.31580322024938
0.316473834223806
0.306374702401613
0.307040024953307
0.296350954893605
0.308156880426204
0.301883098654008
0.301278114824549
0.293169606655512
0.302090894395881
0.295262929636461
0.302385154420866
0.29020790118651
0.298323266145618
0.29342671400362
0.292898532169703
0.281153353381519
0.291917259316262
0.285707346356178
0.286352060166862
0.277915671435468
0.288291199540439
0.273824868408928
0.282588875707612
0.274216024228885
0.280556353745335
0.27288369784566
0.27557761096194
0.269773943877664
0.274349558035583
0.266066275829334
0.26662295033305
0.262803107130108
0.26670311574594
0.255420603744027
0.267511951135547
0.260827212626099
0.264719254432438
0.253645065847488
0.265045487525668
0.260723820866785
0.260000448492323
0.258258598244574
0.260400565724583
0.261265381048059
0.261552510396076
0.247778553116085
0.2565188766002
0.252399036354493
0.251869379699236
0.243298381877273
0.25173628575449
0.246256172165199
0.247582645605387
0.240190281903522
0.253321795049917
0.250764408467038
0.251694330113416
0.246130703368718
0.252010553524231
0.254050383001212
0.255784697918204
0.244135658585367
0.255322898178211
0.251540653672189
0.254709490134327
0.251142055869848
0.253858210121337
0.251885113545124
0.255320581051112
0.249045660826789
0.262586724753678
0.257746727260606
0.260977949772724
0.258878197831253
0.260191166979064
0.259569847215175
0.266063125738476
0.263295281599145
0.268806712750523
0.263001183241259
0.272304314052295
0.268748966906798
0.272892113245107
0.269385345190787
0.27395962876145
0.266336124651295
0.273935338571197
0.27813951552606
0.282334681458225
0.275886381687612
0.284753212998883
0.280869261145514
0.2896401027151
0.284676561799076
0.287888561594757
0.287040003778041
0.2946625542782
0.291058571366944
0.296650181241105
0.297859392844514
0.297794399726325
0.292251452057613
0.301182341608883
0.300255118752731
0.310460165147463
0.304985203920796
0.312934733093833
0.306419486457564
0.31839311574039
0.31619297774766
0.320598042543082
0.324880773216819
0.328743794007018
0.32312449103763
0.334276640279715
0.337398207722769
0.334834619040834
0.332553478946682
0.343075186017392
0.345492531980915
0.344113033051426
0.345618861751045
0.353449047165906
0.346015923329878
0.348389216816685
0.348139468765296
0.355928923886135
0.353511139782869
0.359400345265862
0.349710273279793
0.355718619517161
0.351440131903958
0.355005145393782
0.352358749576107
0.349296347029283
0.348084755186411
0.356236683264508
0.352310760319606
0.355545953659757
0.347695672335902
0.349156301261272
0.347868467784836
0.353135797709833
0.346277999408389
0.352563414475199
0.346890233425705
0.355133837528704
0.354280397386779
0.356244143514927
0.345866831635869
0.349400711439395
0.349472717039904
0.349581326171178
0.347814450242456
0.355250161643182
0.349429812951546
0.351176210079421
0.353007427981145
0.35509575067938
0.347913959421331
0.356124631884949
0.353231655400521
0.353366443460328
0.353457870005626
0.353531241644342
0.351664550220276
0.362754926459279
0.354803412643418
0.353099102841919
0.352535720663435
0.355698015575913
0.356330033969346
0.356533414928279
0.348802336190074
0.356788716331861
0.352784050015014
0.356814171494042
0.350261983391578
0.359218681730172
0.352594266602019
0.348910537618832
0.347226773418635
0.354604892380656
0.342930000568831
0.343280398211273
0.341669817340853
0.347047333835104
0.342034311546099
0.340791721758866
0.33283608525611
0.337488166859568
0.329475266135068
0.328105684177628
0.323581367990698
0.324906022011192
0.320474625356487
0.323695091227296
0.316083892187316
0.316784046628804
0.315187482893097
0.318630978530605
0.305960052245149
0.304030529051711
0.299347123054599
0.307679879666505
0.303237349128629
0.291835327463125
0.286233251770646
0.290455438264897
0.285348204083489
0.282991816941737
0.274945259330218
0.280167112683907
0.272285664638652
0.273369289669396
0.269002443874218
0.268709737968729
0.267422691201712
0.265904665063544
0.268223927337268
0.263510440414053
0.260629049493823
0.263440253305124
0.256099298589733
0.25811403061321
0.252596122608214
0.254930622538583
0.248779680005238
0.251398617493003
0.247428668845442
0.247559429196099
0.240919989197935
0.242336178193709
0.243027449032536
0.242011755848057
0.240064109702098
0.24242793357271
0.238180835457699
0.2334513973738
0.232785599799483
0.236490480769649
0.23519835331244
0.232742684964253
0.227605061037773
0.228365399260008
0.225280616989239
0.228332413920596
0.222742741807819
0.224160091566993
0.215663955320172
0.220207995106483
0.218934616996941
0.221612703264702
0.216576072224871
0.218936572017533
0.22006109249024
0.215941050829266
0.211445132566816
0.214518974295618
0.209004143160075
0.216221094604141
0.211546236325516
0.211811307003843
0.208623311051313
0.210914447421788
0.204575389000088
0.20591379974919
0.203986780400697
0.205979379605671
0.202280199026375
0.204047086553814
0.204298940405799
0.202631184293042
0.200531098734868
0.199515537245544
0.198003723149051
0.202931837024286
0.195111106532115
0.197579647437473
0.198238272374013
0.197366713618985
0.196098612622597
0.198014498293004
0.192112290385563
0.194376691522918
0.193811326772137
0.194519041483425
0.194425175528514
0.196246909042226
0.184556760448501
0.189828842169485
0.191077295855129
0.187294062074192
0.184154937127211
0.188098640434791
0.182514914049092
0.186284185022369
0.188524675019411
0.18316931756781
0.18545373224494
0.18986843962106
0.180283101975811
0.182161374607351
0.182108125712236
0.183503804967916
0.175409835296919
0.179444995970164
0.182393311424825
0.179944008982599
0.177880390868017
0.181332188387734
0.177631286904943
0.175396969401496
0.175749494086843
0.175047907530353
0.172833652816657
0.178993161908365
0.174041994788872
0.177138926824723
0.175762406952769
0.177049467759385
0.174615732449504
0.17368301720445
0.173836691160351
0.176635011526541
0.172931519254711
0.171575303715109
0.169498511219337
0.170366337855742
0.167681027728242
0.170378521032026
0.171395686042452
0.172290129623681
0.169465087570351
0.168280649990894
0.169495221249507
0.16937445030276
0.168111491363776
0.169348602762873
0.164029926081247
0.170451272208053
0.168557261357709
0.166458059027523
0.169430980945759
0.166061393645041
0.16818778101017
0.168788590742834
0.166520289045401
0.167329324311258
0.162617771737856
0.168534507869184
0.169323499861542
0.162420163023336
0.163786593110387
0.167441406666522
0.166359222150105
0.162417536326298
0.160891877021246
0.168169975522346
0.165770878935826
0.161583366506054
0.160902311801084
0.166000596867431
0.160215316568879
0.159364370883718
0.160213226607424
0.158164890065431
0.157306404681728
0.158008501969903
0.158681891019317
0.158915675946619
0.15996368364001
0.158410321722082
0.15447481756224
0.157859051380856
0.158743279096009
0.153612737285288
0.15266831343559
0.155738924417813
0.15328097832906
0.153307933981802
0.151604119104162
0.152836983372958
0.153067413984256
0.153817508827484
0.14819031523837
0.15205809127062
0.150756720284951
0.150521251888606
0.149172842387166
0.150590454060338
0.147325894273006
0.147417784564197
0.147109680347029
0.149746598425868
0.146768604772984
0.142541547372463
0.144659478017168
0.14645649296265
0.147184680209235
0.141395640946025
0.141765624307048
0.143550238963882
0.14209465393674
0.143785300746371
0.143019169250441
0.142170366134843
0.140961376851419
0.141355921101312
0.140829170536159
0.140344071864158
0.140586010584831
0.141225059536683
0.137987772872122
0.142030268201201
0.137327568648042
0.140542268152306
0.139482417455022
0.138509625881908
0.134578661613194
0.135993513458584
0.133296822792485
0.134388478979363
0.130935123412502
0.132563282298993
0.13687630457493
0.138865615463946
0.128393868970061
0.132534175403887
0.130059641273622
0.131132430205844
0.13246872358051
0.129766897630312
0.129645727052872
0.129344363406568
0.124926844469744
0.123875195288201
0.123879674691856
0.126874723344947
0.124304599926036
0.125662312066068
0.126020681141555
0.125290785328128
0.124639766134679
0.123694936038227
0.118143937907719
0.122897034386403
0.12225491012832
0.122409813013809
0.118562504619507
0.12173706767499
0.120127651225001
0.119940540046915
0.118771300253795
0.121190937020731
0.118644486379356
0.115846488100218
0.114122482361903
0.115693491599106
0.118532101069596
0.113876375615977
0.11493653480138
0.115916565468455
0.113864410933287
0.115823512935591
0.110951435052419
0.110043783447932
0.109778640001931
0.111357560321788
0.111422312911728
0.117382954737072
0.112833250847022
0.111880249468441
0.112273285953492
0.11463346134456
0.107163452291906
0.111281077420196
0.110877577158284
0.11226881234068
0.108516975132129
0.109279996108891
0.107849764043659
0.107826572769832
0.105904996342797
0.104595831591063
0.108320171724602
0.109309844973508
0.104041499108714
0.105356817291028
0.106072217321449
0.105778022170141
0.105167564735578
0.106637369951846
0.104843119640644
0.104827461002775
0.100866325705162
0.10462421259686
0.105669020196402
0.101744343081756
0.102693339337006
0.102766618827862
0.103326886263
0.102491272668851
0.0999490765483428
0.101853457803467
0.0989298638437687
0.0996580629068721
0.101166431781445
0.100137827854761
0.100883090061886
0.100910404331482
0.101252605382671
0.0998375156467543
0.0981225481219308
0.102463432768798
0.0972418246214785
0.0998725076161077
0.097106707886289
0.099598410801746
0.0933690133050137
0.0958966328716643
0.0965535094491096
0.0958599573966907
0.0966754465721141
0.0990913933519525
0.0949131741402722
0.0975622655779113
0.0972110326228553
0.0968012373629057
0.0953400336186851
0.0960609010988219
0.0952839394918198
0.0988384364490313
0.0948296236568458
0.0962503024776725
0.0953519094925988
0.0991875895773106
0.0989337039035014
0.0941317446432713
0.0938762893019647
0.0957102813281458
0.0949984161291889
0.0942370972823394
0.093115125599022
0.096461553999878
0.0925251725339714
0.0954574347013871
0.0932693072379685
0.0931701046458544
0.0924000473961577
0.0900346242481626
0.0928821410829529
0.0917728474364911
0.0899068947481408
0.0899337309607115
0.090875037769569
0.090152010598571
0.0903635585660788
0.0934353759892253
0.0897981518799149
0.0920024378643121
0.0878312756423037
0.0897373990448318
0.0890965888895488
0.0885756532940952
0.0886155509130133
0.090687435945365
0.0891882791636393
0.0915759975117085
0.0868934886021949
0.0858664355827917
0.0867990572113563
0.0867455778487814
0.0881643053096438
0.0893359992314345
0.0851924288672039
0.0878032697343717
0.0851077001889114
0.089859393918445
0.0834671114987003
0.087346171367023
0.0864857095281884
0.0834653488220386
0.0852185722493914
0.0885991528499013
0.087491248617818
0.0870926146991312
0.0884089565592222
0.0830090764181926
0.0848986182957987
0.0846008346325145
0.0843404508873886
0.0848474404401051
0.0846733943050114
0.0851808411828054
0.0824930514671091
0.0838605409264444
0.084004744764327
0.0872973134902034
0.0809148839966782
0.0870079069630627
0.0845691932081046
0.0821091251644127
0.0815411448799267
0.0846448104571449
0.0807994789100031
0.0808807906547291
0.0823544843232124
0.0778220164227365
0.0815475127048652
0.0831446115423582
0.0798853071201406
0.0794676984568116
0.0800517962457524
0.0763701023503763
0.0779114962661931
0.0777435556072375
0.0756284378825698
0.0791132936712758
0.0756239639166187
0.079994492173329
0.0758307174619645
0.07704888580868
0.0776936167273375
0.0768159137078691
0.0735889443193034
0.0782873404892214
0.0755392092220156
0.0754206197565506
0.0762911433988084
0.0746533645588446
0.0758242109427382
0.0758493804350506
0.0725615702438835
0.0738079763348292
0.0712314236227718
0.0744954874555307
0.0690688240515576
0.0745073771545254
0.0730783273851965
0.0753103121163138
0.0722785667514735
0.0721362651836969
0.0746542766867983
0.0725346607402485
0.0721433410432774
0.0708763272144945
0.0674507583951463
0.0735338349602413
0.0728752575154936
0.0710886239855019
0.0718679616398207
0.0715675166926362
0.0703847424648519
0.0720808592287364
0.069933277571582
0.0715336825071376
0.069320062181955
0.0688815172722873
0.0690338036230015
0.0717525121621083
0.0667115716832226
0.0688437463632682
0.0639175304027937
0.0692630357881939
0.0682818878597259
0.0662482900516632
0.0678135253423093
0.0673509588606502
0.0663121079255602
0.0684891438083181
0.0672815683895273
0.0675928773647335
0.0664553173213964
0.067685215258517
0.0683011503414003
0.0677126080549143
0.0628610155092911
0.0649416755572916
0.0646949327521076
0.0656418483032263
0.0658303826200941
0.0632253254374525
0.0642975329211884
0.061374627565312
0.0642564729860836
0.0641954702034397
0.0627300160877604
0.0644466978280935
0.0618473656279021
0.0645100437244956
0.060390058316286
0.0607306548891915
0.0597828828200914
0.0620269945548914
0.0640612100177528
0.0629682547592184
0.0598800962997911
0.0616275855973395
0.0605694688319536
0.0612893306390485
0.0595120664037258
0.0598672859246022
0.0599317497458637
0.060839289017782
0.0613776485013525
0.0602956963200082
0.0586940824143257
0.06092340956209
0.061887614531866
0.0620330540523182
0.0614309526689681
0.0608592448529832
0.0602212311181788
0.0620418918346247
0.0602170228843904
0.0630427623357428
0.0624376440527574
0.0617231142209005
0.0595212372197848
0.0666389419387886
0.0623354588459909
0.0650561369642667
0.0657050721032367
0.0642177164496467
0.0615195249597872
0.0652599603000412
0.0573088863776464
0.0614520863001638
0.0508120271952263
0.0481920520809753
0.0513579021345064
0.0567891313314227
0.0555238560335899
0.0528637290017872
0.0505501465889868
0.0576924675094878
0.0463710140036184
0.0559740035339859
0.0472634093332414
0.0504058371983629
0.0535706896176808
0.0551777191441792
0.0469561636251864
0.0560529445084796
0.0470492049143057
0.0625588455238566
0.0486277302879139
0.0600427445317709
0.0554067392558982
0.060931124544236
0.0494867779667473
0.0642472216127386
0.0478396775841789
0.0546102049746901
0.0514429620445472
0.0548111070421704
0.0435024899787926
0.0544998415967858
0.0410110945214451
0.0565551965110253
0.0461830719087083
0.0629608786011691
0.0462412739034382
0.0625056869645595
0.0382422567082832
0.0530764611675842
0.0387042486444405
0.0544112684229578
0.0469014358229823
0.0673323387595085
0.0513356752181196
0.0590469840684158
0.0462614858018413
0.0540290357927874
0.0554507808257378
0.0679070544052732
0.0515206035312991
0.0488674323701734
0.0611502583242546
0.0628682195571454
0.0598410255397102
0.0420246239809404
0.0679633750934697
0.0506558153055961
0.0685389626328605
0.0415814833784947
0.0734754687476793
0.0415824433046817
0.070043715149958
0.0483125156732289
0.0649169364996484
0.0490942535020871
0.0607122162742844
0.0517233715449285
0.054966516305844
0.05887043373789
0.0510127260101805
0.0586686803750553
0.054172130513169
0.0538746861561985
0.0571695897703663
0.051084773907669
0.0570570767175528
0.0506213627854711
0.0573846578342691
0.0484837659716241
0.0537200645847079
0.0513542029483485
0.052613718444851
0.0498679504703252
0.0509236768346558
0.0514922151808802
0.053044538190447
0.0491307722886389
0.0501453942696586
0.0512472880557383
0.0520478397501719
0.0503374374878419
0.0529776737569086
0.0507307902806282
0.0505171670792019
0.0498766420212794
0.053654449155072
0.047987812283181
0.0521433109138481
0.0511384123007373
0.0513260390057558
0.0489361291120492
0.0505452740356708
0.0511432531699507
0.0523732924503362
0.0508513063183536
0.0510173354500171
0.0502130082723683
0.0507285635049361
0.0501554466089459
0.0496803338529364
0.0491036658473143
0.0549029556795186
0.049273328352977
0.0513809291837745
0.0492644673372693
0.0514201777223086
0.0499317448007731
0.0506383482922815
0.0512491797485135
0.0513002669374454
0.0502656434474959
0.0502542373510192
0.0497615015259584
0.049057707285248
0.0502750576131973
0.0504162692777346
0.0489741397208758
0.0497770294834468
0.0518448920442497
0.0508526337585332
0.0474786609702537
0.0486452538841504
0.0505543255428475
0.0498498681131192
0.048275286247241
0.0502203341436583
0.0501227763015498
0.0467897285320558
0.0483910193837011
0.0487296766486332
0.0512998552103867
0.0496055411919868
0.0491129794557268
0.0497426082898833
0.0491132218572287
0.0522429946063979
0.0492523277093819
0.0494305398013951
0.0498797899231187
0.0477967635502063
0.0502102090224577
0.0475126646895844
0.0487923717335239
0.0503998228151898
0.0466218201953795
0.0504525213079375
0.0496748346494701
0.0506394695768304
0.0497054303443369
0.0516803037041738
0.0511551733692268
0.0490817583267771
0.0497093521406015
0.050456804786838
0.0484413493998984
0.0508746597366261
0.0463538227043715
0.0496522794205832
0.0496857009802697
0.0509272074719834
0.0495612604321988
0.0501567676317168
0.0512548024056896
0.051705211455762
0.050017612726204
0.0497555974757635
0.0502858577464822
0.0519401762424665
0.0495501103672656
0.0501783396553375
0.0511977297368339
0.0497528253833215
0.0513008929448977
0.0493206414064314
0.0515145930831652
0.0521045061041199
0.050493397119738
0.0510520884852683
0.0504653601266278
0.049614549900809
0.0497761754947725
0.0497997612084878
0.0494537207997166
0.0518429681818729
0.0506097819666251
0.0495126332319881
0.0505333768298394
0.0495556127836562
0.0494856987387431
0.0502260754494918
0.0501509475608419
0.0504350030379021
0.0496459517211881
0.0484139058563353
0.0512256339481396
0.0480583394679694
0.0492321203926161
0.0506628769331275
0.0505142301817294
0.049328447702158
0.0488169912848554
0.0506297695654695
0.0487227354606259
0.0500079524718781
0.0511261522402955
0.0496274637395244
0.0505159909910588
0.0521206973506556
0.0530920453319228
0.0508258607036999
0.0514406766033894
0.0509770996635723
0.0515321854629671
0.0526310344319869
0.052747978063365
0.052171501124243
0.050838540721109
0.0505924404018094
0.0516227787875926
0.0512568725329408
0.0518442221806932
0.0516720097721077
0.0502649585582542
0.0517862874606545
0.0488352957136802
0.0522763534253687
0.0521762430104996
0.0502837600574213
0.0519188803012666
0.0518018823583775
0.0513377244913566
0.0515387748148119
0.052134857631484
0.0505432762271731
0.0522697976607209
0.0519174962522115
0.0496079141502602
0.0515825003291909
0.0532544864874567
0.048772649683648
0.0504782225279578
0.0526185187362582
0.0491327005469546
0.0512040710233298
0.0487734859371106
0.0497669825066782
0.048568854891733
0.0513761623309766
0.0494172190129847
0.0475882926605725
0.048425272698446
0.0467118174012792
0.0489830085484732
0.0498669719565565
0.0498726922191835
0.0483679243559148
0.0507718390317895
0.0480025206738326
0.0478158195950468
0.0489245125559337
0.0475360613476378
0.0485414603146609
0.0490162499604653
0.0484333412255043
0.0494774657316517
0.0485579925367678
0.0484924803552277
0.0492545870555561
0.0485195276799415
0.049281102194502
0.0491582863572676
0.0476174444143252
0.0465342057263339
0.0483912829661794
0.0471274958931853
0.0455766184480585
0.0469137502748875
0.0487535098518753
0.0468957332074948
0.0471719934113813
0.0480993037607676
0.0468175233437035
0.0491876383218494
0.0501291315291042
0.0489444570494349
0.045292329957508
0.0484162316799293
0.0478924004975424
0.0470772581123836
0.047128681185743
0.0487922705401464
0.0485856580865088
0.0464124690516701
0.0464712576241809
0.0465115971962074
0.0470911187987115
0.0462993542998804
0.0458920808454804
0.0480955949584815
0.0469747563274988
0.0449277370483804
0.0464195856398894
0.0481011608034382
0.0470074796984803
0.0455416326205343
0.0461881202336817
0.0467115026451567
0.0464958384214583
0.0476173554102182
0.0474076069958944
0.046612159707051
0.0460516030285866
0.0459007985887322
0.0457318210026765
0.0444589163945388
0.0462705978998028
0.0473130417472177
0.0500489984782751
0.0493068185548423
0.0441758148313299
0.0480344259244664
0.0470487773074134
0.0464830766974964
0.0458109065059396
0.0439929455018018
0.0465395001368908
0.0480026972148659
0.0455473584252843
0.0469223130226434
0.046874335508412
0.0447840144330985
0.0446061867155116
0.0458914450626631
0.0457469570802448
0.0460097310498539
0.0466140487748971
0.0460078544955806
0.0456475512642791
0.0457647012764127
0.0458224223644276
0.0437408617546624
0.0439037250749863
0.048152175176268
0.049009048551686
0.0459719184386282
0.0471790358534117
0.0480654430589869
0.0462061132265714
0.0450904606200409
0.0469172076122564
0.0452411037393789
0.0427238046636374
0.0442133117551405
0.0448203545621205
0.0438159003663241
0.0424765533613261
0.0434744051750274
0.0449260402414493
0.0441849555435291
0.0434538972633905
0.0433237144320937
0.0449800311323129
0.0456638970971798
0.0446464970422213
0.0402431361789815
0.043807099204444
0.0451361846323636
0.0460456714055579
0.0471199475538634
0.0494027998942819
0.047277044973656
0.04077678816138
0.0432413938260154
0.0413468718981442
0.0417296199520707
0.0428810377554036
0.0437329545446928
0.0422882808786534
0.0419145771109212
0.0404379206865428
0.0428685341663554
0.0397599385126525
0.0420211732347145
0.0403699363845824
0.0426247877234969
0.0382387525221374
0.0405224949234134
0.0427318764352213
0.0430193543957408
0.0387509501891897
0.0420330143677878
0.0410550552454506
0.0424560212427465
0.0374979027629953
0.045152708231186
0.044223537579498
0.0563785408015654
0.0423597451323961
0.0428842269396626
0.0442237149318349
0.046702576406495
0.0419402973577072
0.0401846038363084
0.0400741758037017
0.041652161541988
0.0413319268357486
0.0419179789650134
0.0384542025955652
0.0406943933377207
0.0399188765821598
0.0411320875892796
0.0403549765872286
0.0416967513533332
0.0379682065688554
0.0413419400539813
0.0397118492787439
0.0403539906103171
0.0390560549163722
0.0407435124139368
0.0379820233569353
0.0407174923375632
0.0382359239815007
0.0485293589576483
0.0460485214621352
0.0412588144193675
0.0393699753931671
0.0384300972905813
0.0415923405688992
0.0374966418722285
0.0405840869999251
0.0384332770682797
0.0376996425123488
0.0379681051891171
0.037972906093871
0.0395801341104251
0.0396648024831944
0.0419068816756629
0.0380966903649066
0.0388362570743043
0.0391766720166399
0.0376630809994509
0.0397243064686558
0.0362382655728919
0.0387898789419946
0.0398043521100167
0.0417051337888186
0.0381769955120592
0.0391478073370932
0.0463177380542088
0.0634266729438827
0.0421209557855514
0.0386462852916589
0.0377735417294209
0.0368375768366088
0.0385253280492327
0.0375069432021245
0.0385964887093309
0.0359462048618656
0.0366330844270204
0.0389367627236179
0.0368502585759736
0.036636355833117
0.0386942297915475
0.0360055090225038
0.0369747345430448
0.0375018500652988
0.040477000368903
0.0367601072890115
0.0378800346660925
0.0455226695153401
0.0557388479849718
0.0458618866421616
0.0365033002035176
0.0375444663087501
0.0409689537896002
0.0550638345815385
0.0540818018203709
0.0284113267441661
0.0452477902118115
0.0328146527943208
0.0427975394176077
0.0330020830889128
0.0404942110570969
0.0379955639707956
0.0503174160828943
0.0375069168386305
0.0450756429932623
0.0376493575590925
0.0391206489840146
0.034368394258206
0.0406996508805887
0.0384897568062534
0.0364957227540364
0.0354028258546614
0.0364828909760756
0.0353219425879665
0.0396697051312464
0.0336850924445938
0.0411229836813938
0.0395273719225837
0.0481724751967298
0.0336318244579115
0.0407810210115145
0.032346086967355
0.0411604324246281
0.0462503795479066
0.0579214193680968
0.0375302246749521
0.0360938126373777
0.0365994601966526
0.0375843916757115
0.0388220003438687
0.0374392522955906
0.0363670125776075
0.0344739405009264
0.0361630195836104
0.0394183706400952
0.0373943582513342
0.0366167044000183
0.0378269900707889
0.0361743859717785
0.0372916626532099
0.0351411597473914
0.0374741372540672
0.0381838655309779
0.0374831422496497
0.0467885335797506
0.0545972470759606
0.074040475582162
0.0498258731236613
0.0558375076506592
0.040552166484733
0.0405937362180124
0.0337387942334566
0.0393486838383731
0.0352173749747053
0.0407458899887093
0.0357830414272339
0.0392397269412852
0.039793312687322
0.0392093157825377
0.0340842592448147
0.0387768865075049
0.0323081023831038
0.0363797023800761
0.0351542350966952
0.0369929759048004
0.0364116115820388
0.0351428957533562
0.038688553106964
0.0465131973489621
0.0523269347599906
0.0348064024939402
0.0554416555004574
0.0559316152794381
0.0780994425118242
0.0414773830910355
0.047948733577799
0.0355053342195972
0.0360731523531607
0.0355755102982443
0.0393981048004623
0.0444116268667174
0.0383893799645134
0.0364602069178903
0.0397701547509033
0.0391886589677057
0.0387514194062982
0.0412778178425421
0.0544316591689501
0.074647273670817
0.0563782194129522
0.0366207353049264
0.0436582260702776
0.049952960042142
0.0684532240239637
0.0467566733962985
0.0365133782757801
0.0469408046105749
0.0328498261587798
0.0398463853590886
0.0333892562568889
0.0450209214899167
0.0433966613631999
0.0442148674730841
0.0365323257495981
0.0393656368992285
0.0342642550723339
0.0408223339072961
0.0439584706393293
0.0521065833257867
0.0505838493313624
0.0415880890391134
0.0423280303852956
0.0492138720105837
0.0350709341096212
0.0410843299470494
0.035093376180332
0.0468125269415119
0.0524328456725403
0.0602966138869803
0.0502701818670135
0.0586521491596001
0.0514515600044232
0.0423537771270911
0.0418492956157918
0.0619382437756558
0.0385616406391412
0.0513680079855047
0.043688829586684
0.0871693931927505
0.0647809578161999
0.0619863238859886
0.0496916366867218
0.0404766681939144
0.0461522376303642
0.034867322149408
0.0526181039913994
0.050835485387497
0.0588090641036692
0.0289805650284609
0.0528954038244599
0.0432230386733384
0.0625196253802029
0.0417744650847289
0.0509795185313266
0.0397038027546818
0.0515594017474687
0.0530320946457585
0.0551801982321253
0.0481648074586531
0.078086469852677
0.0913524185477691
0.0610674808815481
0.0555484106038622
0.0514538760047186
0.0754459392688997
0.0598503950966034
0.0361136386809116
0.0531752061768031
0.0399731404681598
0.049615248438265
0.0534864755624678
0.0795722242174248
0.0593904243100432
0.0420509875114618
0.0513265230731687
0.0529171101453543
0.0678319868432616
0.0683026608760537
0.0410670048273125
0.0534755877763294
0.0421909905151539
0.0686804023651968
0.0711775626554643
0.0943905064262003
0.0553012366230493
0.0955049014408476
0.0724106371294759
0.0713952316410071
0.058109697989191
0.0598083359892275
0.0715447493257663
0.0794189366074996
0.054269817857368
0.0582758168276976
0.0719217136838058
0.0825849428159973
0.0633526860177258
0.0548524402704938
0.0625486645401332
0.0603015541979281
0.110402123991103
0.137995458836013
0.094068943711863
0.0650599378948907
0.0752550668860325
0.0898658630283044
0.0752596359013916
0.0562825559798764
0.0620462092658683
0.0599501636712365
0.0605204864028032
0.068859041246992
0.0713424678358644
0.0717649571722475
0.0640065264108628
0.0712433062110938
0.0723394574587713
0.115125194982018
0.135353843770503
0.108636437069899
0.105424902180688
0.0992065469713454
0.114621706280891
0.0781844812836313
0.0785325584312067
0.0696636078148404
0.0859236170736364
0.0786136353719465
0.0755725057900673
0.0851766802184355
0.0973066521595839
0.105440828174473
0.0997461779050749
0.105733387414616
0.0900605060663491
0.0887618406956768
0.150703845922197
0.159584084914951
0.165181027520154
0.079697268890131
0.136519531219171
0.113570986200444
0.185108552440908
0.120736134300172
0.106810554879632
0.101968753881711
0.110463523053645
0.112012519633724
0.131024471803778
0.128608905085726
0.143340479937012
0.124204632479125
0.147077116652908
0.145336279830293
0.263324286005503
0.204744063262831
0.166674678292195
0.149160523765346
0.178734798409534
0.165322937067033
0.163513870433141
0.15008453318696
0.172985144282428
0.179359809143191
0.219818038375858
0.188548737771965
0.172746798500836
0.202162398254058
0.196078005297854
0.223847727536974
0.211707833958611
0.250191619767611
0.193674298911909
0.213260389817917
0.206139246383539
0.212594710032064
0.222185817381673
0.241596460678499
0.247727806031934
0.226282428478134
0.233411456411097
0.22850603700711
0.236799077623933
0.242478060154098
0.241047212174192
0.257277728206242
0.289042066821533
0.357917586937463
0.34688845110186
0.299882987232617
0.241952060378674
0.247682528815045
0.268566136023286
0.291155916035225
0.314394704933966
0.286932349340913
0.280637550088988
0.248311670082598
0.25114871258427
0.254424880425744
0.248836501542692
0.261752350925821
0.247440560738773
0.263372741676093
0.260575069345897
0.291738935353548
0.292788332220507
0.330413199831989
0.26315765144875
0.245687880836766
0.24912990711035
0.2511770871283
0.24551188922429
0.246033969288344
0.266500800723555
0.26603076654452
0.258089882135508
0.23385213242502
0.256575009022455
0.264723536851207
0.286138508285998
0.243509494283611
0.238050712166073
0.236237507722873
0.227573605215828
0.241472143027307
0.259812962835627
0.274211993765917
0.247808566128127
0.221699870310168
0.232451327667039
0.21735012117802
0.227825109134791
0.224575337698106
0.240781275547183
0.22490392982166
0.232367777087996
0.22799110709769
0.234005460985522
0.218719590405095
0.232430586697302
0.226745604716509
0.233722362378685
0.224126204317326
0.230847859173159
0.22363626858908
0.229184120011331
0.22486646531824
0.234427673543601
0.227596663594094
0.235084600598126
0.231601041090621
0.233960931536481
0.225781387561803
0.2317345296122
0.225654191184356
0.235399888658492
0.227555634631351
0.231323096120672
0.223067640731425
0.231400533259712
0.22279840653494
0.230248093135248
0.224331413587784
0.226291649293821
0.226326128690563
0.223913393155295
0.223295484803855
0.228101723989105
0.241507827900844
0.26488838736688
0.253984554952057
0.210155841536307
0.213491742904984
0.216849177351381
0.203556398722435
0.228646747472247
0.254702491125962
0.248681856989424
0.204703068458398
0.203595182958572
0.200570237068231
0.22157645137052
0.204776494562915
0.206360758478173
0.184670960974247
0.219111085443094
0.225428904114976
0.319913111362114
0.296971368608756
0.297703915033029
0.208753488553274
0.194131493206972
0.220798043741475
0.21976183593991
0.197756903863263
0.174165546024653
0.196594895711606
0.219115961569592
0.204338092379103
0.18571450457346
0.175703545096089
0.185112529026995
0.213371716830327
0.219616722286522
0.209196211199803
0.217687478089702
0.223853580772584
0.224197052478811
0.248696005721491
0.283269485943093
0.205112524370583
0.176176527393867
0.164695646433019
0.1737558630864
0.19659456947687
0.212408735281263
0.192849370478714
0.177229079181386
0.160647493775119
0.155570910118863
0.170834122171382
0.192492930641948
0.166992605846826
0.199412152662883
0.174351984581846
0.173763416021827
0.158357884958948
0.204870455348945
0.205086885386618
0.228344251729023
0.161223802203284
0.161246306222625
0.197530671735088
0.19996593326894
0.176274286297355
0.162814461661145
0.139173561862669
0.161188678380224
0.158344561933873
0.1594335286144
0.161714385926136
0.183253659214016
0.193617207274465
0.227669841240447
0.252908262837043
0.204184602753673
0.151308968657847
0.137055307912899
0.130789751527986
0.150256878061008
0.126754017427642
0.146370073856856
0.158200514199219
0.154088258452635
0.14823625411531
0.181171682328196
0.154876238620375
0.135786211408669
0.13695196903464
0.139905644433986
0.150914004098516
0.19960736552566
0.197836939404429
0.17206972300279
0.172640330448799
0.177197703324855
0.163342859783402
0.154634988364651
0.157056473071394
0.152568008854963
0.169341929591126
0.179278867219388
0.170543088649142
0.173732786118416
0.171104196289212
0.182097244511838
0.223109940956251
0.205407165312277
0.204480327084177
0.218131753085933
0.257523081600661
0.262753738873521
0.230502831946918
0.210002620494956
0.213149095187709
0.220851274920023
0.216607803471184
0.222354669690194
0.249921991136094
0.257637972810036
0.238847032411382
0.228595791126658
0.241197093228821
0.232888745763311
0.259162724291785
0.279857742390668
0.304581277675886
0.323785200869622
0.309067154793812
0.290548295286824
0.265938619073134
0.264487626100036
0.265029691130665
0.271297497956665
0.258528255026591
0.260225103937954
0.282267077557581
0.29290914935136
0.2734638120966
0.268925363155932
0.26598377847795
0.271758781356872
0.269803268197884
0.276419721282158
0.270891529211054
0.279254709570762
0.278473875184632
0.28087928506161
0.309916452161887
0.351459452740718
0.314549842346873
0.293256049199858
0.301115258949274
0.310927061655668
0.297309859583344
0.311547393714279
0.331429738420049
0.317273952293245
0.315340987866433
0.317912174813506
0.314444104282621
0.311508001557833
0.346317557641872
0.341824871758703
0.325381851240231
0.321007811858501
0.328671996401872
0.384688064264275
0.372528361896301
0.36415831006702
0.353388597680206
0.350979548500157
0.331927287470261
0.336325306230883
0.326216247367171
0.34194847951255
0.343992294607929
0.340747921923396
0.335765177016102
0.336301281957571
0.333603973905968
0.329154700893123
0.347207885324848
0.362279111576045
0.341697007978014
0.333841212615529
0.335451775452173
0.330529079098151
0.33903232364341
0.368071344605992
0.356241707031225
0.341115314611795
0.335707123719501
0.361920252112295
0.362885244947755
0.350009778803799
0.322207080030758
0.330666826182382
0.331160584598993
0.333162957772488
0.322688515914712
0.355576720458207
0.36251789540639
0.351136168773379
0.332460906758125
0.338755900205589
0.329613637380625
0.339552842228051
0.340601450258698
0.345952675543173
0.339985642042752
0.346372248891811
0.348169752801021
0.346018690661339
0.347437257028913
0.360791499471248
0.372238530862239
0.363585017824526
0.344718464918131
0.342933611839809
0.337130723301382
0.341012114837566
0.34499913378674
0.338858143904751
0.33101468544426
0.334917131806376
0.314861215464092
0.342824468331535
0.352716371289884
0.333618971599375
0.330735518244663
0.316904046833023
0.310660645408355
0.311403334801765
0.30753007812078
0.304001619426412
0.306200355655543
0.309342082465902
0.297573629602241
0.295506402741259
0.295784505126634
0.293122030334386
0.294373019256506
0.295807644017357
0.288458592037435
0.290227234811495
0.286507582035666
0.290955792378649
0.29066760246059
0.290927007492399
0.283692020225521
0.292381522856495
0.308737064111189
0.312513880738311
0.310869201441182
0.297611753848718
0.300532041489758
0.292610631309467
0.283863658356613
0.287489994713202
0.282967828806431
0.287498439714981
0.28181808857263
0.285142836092797
0.285427238205655
0.283795013530451
0.28161298384975
0.284346633890132
0.283454179220705
0.284350194753263
0.287063582109253
0.285526634314808
0.283151608803353
0.287850047501753
0.28648435839864
0.295665036065787
0.28568974190117
0.293210890527903
0.284782222528829
0.289225812887293
0.286670112840338
0.287901336472671
0.29173239939216
0.28590841686333
0.28203282557172
0.282033414831377
0.283326508936327
0.286114769481769
0.280027786018438
0.282588757783357
0.277688074662216
0.28134596345726
0.27718242591508
0.274441589699081
0.272750086485513
0.273426006685359
0.267693996540038
0.268627362820122
0.263776227763243
0.264298351113358
0.257391811887693
0.256892147998426
0.252032576232503
0.254458237491872
0.247378460771467
0.250105765148067
0.246428961959134
0.24754094698858
0.246884711860077
0.247801779837758
0.238904125709753
0.241648273883701
0.240615987666854
0.241198644664072
0.239543987605729
0.24036988115923
0.240062016429399
0.240344627796177
0.238017764823488
0.240889592443782
0.236395104442209
0.240650252011217
0.238002254571493
0.240348068162761
0.239100382837558
0.247865815227861
0.243815314046157
0.246029329093232
0.247274371970993
0.247329878408654
0.248365974022376
0.250365583027849
0.250640891579158
0.250592004641121
0.251791076202303
0.252677783623218
0.252891455367012
0.255305132132906
0.258115242692655
0.256885779872999
0.254787998915918
0.256846845968763
0.255939188620652
0.25914994708467
0.257444308158812
0.254955263787756
0.25592769520422
0.256447455527218
0.251704332880161
0.252173844256924
0.250895057041446
0.253406428368678
0.249447821790691
0.250757376316968
0.249116529928111
0.252918224405703
0.24912592351071
0.249466391222227
0.245236524957222
0.249976328459362
0.244244149874894
0.247433645427634
0.242190134545598
0.242500303573244
0.243027929242705
0.238397828986759
0.236289657397907
0.239047249200939
0.238749463549936
0.240983776269666
0.238487241071746
0.238014824376136
0.236330686565823
0.235415587126798
0.236175113133009
0.235060108095487
0.234395943975123
0.232480957615924
0.23284474329495
0.233556022954028
0.231805224209235
0.231095411115868
0.225876261350973
0.227520996022683
0.225118961843858
0.223957197269777
0.221183798388089
0.224844859108038
0.217854637049978
0.219328239405899
0.216274434997028
0.213032827821873
0.211068425637057
0.212261219604262
0.210066908693749
0.21168984212402
0.206699939862497
0.208655269467062
0.208507769146943
0.208258026143883
0.206166430386846
0.208096766274455
0.203985110687542
0.206353937318196
0.208189115166106
0.203423205310298
0.202371527141239
0.203244608610838
0.200590740730888
0.197708928736151
0.196654397280721
0.195873169959206
0.192403865810516
0.190828125869008
0.188159234206933
0.188004097697609
0.18503043660924
0.185216523017313
0.184762687452866
0.187888165509413
0.186912600850735
0.190525274170459
0.195403496406645
0.199749869148388
0.20437386212268
0.21306143433191
0.218200957972974
0.228143648661029
0.2360540396876
0.244814639736639
0.257360796512247
0.268765380289777
0.279135335424448
0.287897803208745
0.298931518730136
0.310420036110829
0.318589947881866
0.330965261014038
0.335467538183823
0.348885383000027
0.359036434181458
0.365479077761081
0.374322075632122
0.385823827988176
0.391509198927194
0.399391457313392
0.407753493199394
0.416373853337379
0.417057864520982
0.426510117745059
0.432359111221113
0.435246062157472
0.438318975708506
0.445953660084475
0.448204680018155
0.449564780598894
0.452977005431113
0.456744760003299
0.456806556374923
0.458923288020223
0.458387502828218
0.458518491133903
0.462643918204222
0.459778288352702
0.46044772386803
0.463042180437646
0.465122323907406
0.467063998985146
0.466498510703461
0.468968252495695
0.473581129000717
0.476824283607329
0.479627057333616
0.483822294087803
0.483125584930729
0.4920337341528
0.497607250351819
0.497121510915838
0.504898491078778
0.508378048195255
0.514622024726408
0.523230770722155
0.528419534965516
0.538573282383663
0.544460768017336
0.550141177039947
0.559703689883453
0.571614790744576
0.575099834466676
0.584293131309182
0.583017185112644
0.593940661372711
0.598874930377135
0.600258387265763
0.599819852470201
0.599070686349634
0.59812598622473
0.601265975583341
0.597536987354763
0.598251245074856
0.592147734213783
0.590922368430498
0.587474330782348
0.590334996126415
0.591583492336615
0.602163627589939
0.599798151116653
0.609010475368337
0.617442476011819
0.628058733657422
0.642559423563401
0.648910910894696
0.654367258779203
0.665637023541921
0.67415700981913
0.689881464486364
0.701533003948795
0.719378811613402
0.726354558516433
0.732501359560622
0.744702880366151
0.762474937574022
0.767920453360179
0.776656787673888
0.790632220071817
0.807398939145034
0.820301509513256
0.831561178758248
0.850078967222904
0.865016797146239
0.884365951968799
0.889747292919237
0.900619699051699
0.917375753291379
0.934858249977601
0.929519522857561
0.946549944878886
0.966287435083333
0.97013089678678
0.977488813793028
0.977842322272622
0.983615129339047
0.994013971223558
0.99361282957462
1.0052231309722
0.989859403798097
0.992530208032721
0.982790914825989
0.993085300816925
0.977246829521385
0.973397751265897
0.97496108955411
0.984650709789136
0.961322800300837
0.958475371546338
0.962038332305509
0.964849987587183
0.9717462676947
0.964778112631721
0.969869078408133
0.977150189234338
0.981659997717363
0.99513103900336
1.00313089456004
1.01078488888091
0.999290641919826
1.00748168691001
1.01722576311334
1.03152608351968
1.02438019265801
1.05219572197395
1.04292850707522
1.05145450146861
1.05046598870758
1.05699271983514
1.06206487753361
1.06517519613902
1.04519949276559
1.05827016226833
1.06091519227469
1.05077914042701
1.06170240435655
1.06218666575265
1.05520363532747
1.05015278330886
1.04148899706469
1.05217800480646
1.03038219607559
1.03748871578273
1.01921908564871
1.01167847327877
1.00465471990569
0.997657780702225
1.01405756226574
0.983722180397463
0.968667910294733
0.965616986144052
0.95811955473291
0.947761920708531
0.923732882084596
0.916360971147967
0.884672683216431
0.874836160465093
0.846205128012604
0.827163717446663
0.789971353632613
0.762065952075765
0.734080068447273
0.71878064451499
0.680671760500163
0.652695930612122
0.633944640335535
0.612788964667232
0.591048988415502
0.578233084912588
0.564277726142328
0.553496531116711
0.5541857662209
0.544501301250741
0.529083245236272
0.531829212758109
0.526946469868673
0.522216266099347
0.516895305571231
0.513121278185347
0.508921604771143
0.502441042018372
0.48932853451379
0.489763950337098
0.483321367678942
0.470674315090612
0.462348162884125
0.452372661467516
0.43657782764518
0.428281192649117
0.418942472080982
0.403558413182951
0.388889006378431
0.377125279969748
0.365484967612752
0.347382115447373
0.331811408108785
0.316977829126915
0.306837203544646
0.288510184847827
0.273478391568666
0.262851358031218
0.253408879103515
0.243146126804796
0.230233453418467
0.219859840807092
0.209771618393869
0.200670165031476
0.19542931905694
0.18829692592554
0.185557101379443
0.178971434507231
0.176406953105333
0.173115610192751
0.164189931190879
0.163117760222977
0.161514936734964
0.15976533339488
0.160718136694579
0.160026513988987
0.158971571166782
0.159659536613286
0.159280757035899
0.160330758261951
0.160768379388014
0.162470064503219
0.164422625230763
0.164306282467354
0.162767728012097
0.163962991177588
0.163655285246427
0.164920680052558
0.164389385798762
0.161975130626714
0.162073949295452
0.162335783805717
0.162810223202345
0.15976834206399
0.156777056164714
0.158715963498247
0.158928081921243
0.154846035269716
0.154361262050333
0.156042383633377
0.153207530153829
0.155338518870967
0.155933851904152
0.155836633544024
0.159649572049309
0.15932662180187
0.157639939938176
0.163279564285189
0.162822734445449
0.162007011812278
0.163326368472589
0.169407909528757
0.169718829271462
0.171349906025135
0.171661416736101
0.171976573264961
0.17174920454133
0.17529954933449
0.178038201111118
0.181735210229072
0.179002007627755
0.180962553958741
0.17788041314563
0.178870978190985
0.179613990732997
0.177208808792132
0.178712569306917
0.183541601121036
0.182179828755488
0.188000069713224
0.186438203312494
0.193627495895992
0.19235668674295
0.195578597599152
0.202664686743018
0.211076846327745
0.216123162686966
0.221456703814548
0.228780158617414
0.236871028260564
0.236769096584251
0.241986340513243
0.248795152807563
0.248505790211986
0.250885274786042
0.246083832364008
0.241743726520151
0.243492410949289
0.236293390651998
0.230751084332466
0.225498898532573
0.226812451948494
0.217780252074724
0.21435115807759
0.210698781556939
0.213207410093756
0.210590545114972
0.217957368998487
0.209844066322207
0.214756859192206
0.210574822506417
0.211665727924336
0.207212177892438
0.214110184550066
0.211321587628878
0.210582722023208
0.208693296462464
0.209661218395558
0.203904920066471
0.196169751612216
0.198555662546928
0.199072848258102
0.196232791311238
0.194793395577136
0.19053179328881
0.189495387351
0.188412919458952
0.186343122858249
0.177115452535817
0.182775292266381
0.178075910538181
0.182538138179018
0.176479386004527
0.181034688767484
0.178672871067223
0.17822669128702
0.175008984238017
0.17165465425518
0.169063634692854
0.164899869186034
0.168302783991321
0.168564740816417
0.157332395076993
0.164844156172263
0.164522253285554
0.166544325150706
0.164448241478106
0.160660035181057
0.159988891459694
0.159902957671637
0.160092051066423
0.158535119267563
0.146279362859393
0.151788354880179
0.150204997774963
0.146998654640335
0.14691931932824
0.158025849837501
0.147518422563284
0.149489451655034
0.140567798516537
0.147272288029163
0.143532508927899
0.149064186736841
0.146553557462049
0.152285584271987
0.149030710884837
0.151063925636403
0.148549158808282
0.154716945611938
0.142703525121455
0.147646468631496
0.147916436084712
0.148518075104759
0.155150613642116
0.165263640711868
0.152963215925697
0.164055036240535
0.160477038635504
0.156637980401322
0.154972240424141
0.164553283202944
0.162094739465573
0.1670592645172
0.163698255795185
0.170466021253819
0.166835530144982
0.16701513852038
0.174107243532334
0.187186855508775
0.177533326591439
0.189172844194931
0.185903950492322
0.19314301009654
0.199294113340418
0.208511287740367
0.200875753610264
0.23095485250561
0.232446857430442
0.231758443760562
0.225480045968768
0.249066166409263
0.252653784530646
0.262548406741119
0.263202692489986
0.272984548333518
0.286582689667774
0.296193928271387
0.271234545890437
0.295338409141659
0.293720033838352
0.294111269611417
0.302258420070513
0.296759119643314
0.294857997008152
0.291069451169312
0.28269600023687
0.297209883325644
0.295494779582339
0.296370975192165
0.28011403884453
0.278283010642879
0.281032131308949
0.294493787377243
0.266708016169882
0.278507760940656
0.267571753710432
0.263244868540649
0.253476881538417
0.279232327698675
0.256922009923345
0.263848905880534
0.256694806715238
0.267389920266531
0.250373877922186
0.258071952083369
0.245322685652672
0.264958542305294
0.238863309831393
0.256347010992856
0.23961778459391
0.236262271368109
0.222556290319052
0.241409371430499
0.210151042845592
0.244328803670218
0.226971237606017
0.23450739607422
0.240307255149016
0.235274723782748
0.227018973876886
0.253869000249683
0.230564944092237
0.225875587399999
0.235211382752133
0.254461312562123
0.241519889433603
0.266175010633034
0.249954512472701
0.24242183719628
0.254691059060085
0.260917612898784
0.25343316476326
0.255391215877372
0.240578796637943
0.25436319923997
0.259304024168286
0.252371911620844
0.234537835839751
0.26037110254896
0.258292312366898
0.285970932865361
0.257067843900465
0.275682376998368
0.278150456241669
0.281824867904389
0.255558677540406
0.273776979145423
0.266684237213976
0.299486528271762
0.282765983930579
0.28329751951113
0.273110084650681
0.315949880689781
0.320949805138801
0.310609443151108
0.310469744123344
0.333777879439977
0.329294423802915
0.357886873839908
0.312588975762073
0.352938923836049
0.352302102138686
0.355220185519473
0.347013945941274
0.388390580529802
0.334394852661922
0.393822709398303
0.383622642994131
0.369725544315756
0.344597617966914
0.377762002361312
0.329352978739527
0.38828156374868
0.340001734478986
0.363650723388151
0.345415678465294
0.31801077871092
0.30841107507995
0.314264503315128
0.340646646219634
0.349604917020905
0.300866976721242
0.32642349659132
0.319651151548997
0.341342279669407
0.32343093749271
0.370346500341682
0.347859180105491
0.443600905042696
0.335727619706557
0.285108523144166
0.356194793484258
0.378237556433606
0.259590841827359
0.285056687792397
0.310788951328074
0.349727171106359
0.289234194940256
0.354851845450987
0.406676700800174
0.46963315575428
0.383966339604896
0.285303341745527
0.278966408710633
0.394674020077966
0.361959147210884
0.393349997541835
0.384288115055567
0.451443272229888
0.243096861725834
0.409141907972957
0.378035515509565
0.280863959262098
0.266261537409777
0.352732677206981
0.278807589137923
0.428350090910923
0.386532566230374
0.3943044966874
0.244350064794233
0.439598127854141
0.450105848091466
0.300204375483396
0.194433781960552
