3596
4000.36533379555
650.420452594757
1
2
2
0.082604538065834
0.0874314826583025
0.0780740192712743
0.0923681861958308
0.0861826100026312
0.0903761867226349
0.0778190352493647
0.0865406097226409
0.078575184199163
0.0976690144911051
0.0837205231906236
0.088741564316004
0.0828709755260151
0.0948117818350405
0.084337513593499
0.0868662701407021
0.0790827552135841
0.0879919119004186
0.077494483343782
0.0863252418233655
0.0876530151447441
0.0883665413885655
0.0798241659228921
0.0863744318835424
0.084751985563962
0.0995325591210962
0.0852889413238305
0.0956558384116331
0.0770857235593496
0.095886145989377
0.0798353454915304
0.0904049628482864
0.0822475560936077
0.0899668315291039
0.0817304882036279
0.0978020212208307
0.0781404108531456
0.0870490875688668
0.0739483395101925
0.0954467634008846
0.0983299775939545
0.0917647688803771
0.0889356680667564
0.0946086159133281
0.0809292690131533
0.0947365768519062
0.0859260768186134
0.0949130951819842
0.0833660911106051
0.0905904576076857
0.0826204394007271
0.0907075246131828
0.094516106860512
0.106329779307754
0.0911314816025549
0.111598411787876
0.0849271887021022
0.0914749656324739
0.0795582508438362
0.0964735076386855
0.103403318708504
0.106867970748631
0.0855294615577356
0.0877475715601826
0.0776818384220021
0.0897367145023231
0.0853322487442836
0.0884923486234502
0.0792320884745217
0.0804583290129563
0.0837476548710287
0.1123965998937
0.103140579072293
0.0970322436246066
0.0943809977463662
0.094209723856891
0.0833033228408598
0.0880852737578569
0.0826775577877249
0.109541689059394
0.0950074971024512
0.0972898238712812
0.0796007511530318
0.074653192265771
0.0928171176154735
0.107906516016346
0.0864259144348984
0.106921219801543
0.106802364271882
0.0973048553662926
0.0808350630425525
0.088789537607427
0.0822542758973835
0.0808955275163707
0.0831776725186728
0.0819475522811599
0.0722379979350322
0.084658668499953
0.0856673654194246
0.0950816582423213
0.101180069351174
0.124646086197912
0.114989381893256
0.11042527671564
0.119254669374044
0.122856433207897
0.0893891547099222
0.14171849493382
0.096375515173138
0.087526462928871
0.0812981672876332
0.0763653883648952
0.0743606639518838
0.0912154219961822
0.0844094626513809
0.114827005338001
0.110767033080817
0.0928298048782458
0.0861025056139569
0.0860271624482834
0.0796023844380599
0.120586793022929
0.118320004784247
0.0929338616944164
0.0860775175172843
0.088321569538897
0.0861830396987882
0.127796969016773
0.10969646574381
0.0854424965320366
0.0738367811468075
0.0830538891916332
0.0732888091229669
0.100099836128039
0.11714276919654
0.102763020901102
0.0856377134569352
0.107357427349952
0.123346892838417
0.143534898003439
0.0950395771902312
0.0842114172883469
0.0784129372287859
0.112110890331996
0.11476577601865
0.0946682877241273
0.0965778800493065
0.119375745136554
0.0832044016934851
0.0827206814301536
0.078616050996189
0.0834492064526196
0.102073235112361
0.0953654356982898
0.0737464973453136
0.152784810587205
0.154575731427512
0.146559313892508
0.128761330376303
0.0962630397928882
0.0758849344979466
0.0887902255479932
0.0749889166492718
0.0906928398921492
0.0744688008258445
0.0922230365193503
0.0978078589585451
0.121007898259212
0.0826962144587052
0.108432205438471
0.119340009717686
0.113402795034131
0.0902123568558817
0.151114306347034
0.0947628730029355
0.0899089807275406
0.112923137215872
0.0946928274365667
0.0687517950888086
0.106115236534612
0.0987429783115933
0.0876289244513454
0.0733438480510949
0.0837759663576179
0.0851550252964749
0.103653684526445
0.0830090260716483
0.0839121092512675
0.0822623991672968
0.0890492429103409
0.106235922051694
0.154738202242416
0.11539164407314
0.09921996333755
0.0768981134979279
0.0833063000985556
0.109706549307839
0.120126805854034
0.0718607068412164
0.082257563117413
0.0739694586687904
0.0779022378337624
0.0754423441772939
0.0872145481793092
0.0727335401283659
0.0941084479136754
0.108827406255293
0.104154118394488
0.067698645223776
0.0850670413957064
0.0784385090759127
0.105250033707021
0.127349998548692
0.120128328226378
0.0750602364670045
0.08971048872917
0.0812969512446343
0.103946312198714
0.0841094837506657
0.0845474383214899
0.0703886236986378
0.0845947241881514
0.0716233396491959
0.0860027629037974
0.0734027518161255
0.0825874042956665
0.065792154528438
0.0818219457080488
0.0743852756140006
0.0921242068312232
0.0854074769409022
0.0851389477857574
0.0716921962659196
0.0804657678100478
0.0665815435980961
0.100221594260105
0.0911709279226654
0.0897099310891655
0.0715307248088615
0.0746365280186568
0.0687135031881636
0.0841501186800235
0.069082118505401
0.077146101668659
0.069113657386101
0.0986442592186467
0.107206278826042
0.0965744976373712
0.0662759376837053
0.0882524261719858
0.0940504982626408
0.104759210304444
0.0737974336101559
0.0841269975378495
0.0718986487957009
0.0777980413231588
0.0802336949803964
0.127831723029405
0.0858020157355046
0.0897700363809854
0.0939812878562968
0.105597871704736
0.0740020958103483
0.089336023275495
0.104764296624924
0.160306289129012
0.105086525045244
0.11579284485744
0.116587051996351
0.114661441912111
0.0884849980434748
0.0906153586883601
0.0803999614583749
0.222304214529528
0.134279308258513
0.0905223519420188
0.0812137468898166
0.104891039296821
0.0861816315134747
0.104422649797545
0.0978286614145067
0.118085465974698
0.118011354671009
0.163016206765307
0.122886230005124
0.103608593013987
0.107581641216827
0.121285118389789
0.0816109307333478
0.0887118206354965
0.0760532623472628
0.091221509489534
0.0897037990059156
0.119643395481491
0.0985757444948956
0.0943760295354791
0.094896949370988
0.117012140777037
0.0841068197860051
0.0894059349795413
0.0962833586590962
0.101435430214329
0.0732807696967829
0.0782380218562072
0.0816146552028518
0.0941940054199978
0.0792213160820979
0.117105677828909
0.126413518344319
0.117937082964866
0.0917503603286523
0.114539960400188
0.0860334314009315
0.0930809514738653
0.076508748269084
0.0822083452451064
0.0673352733006186
0.0766874844818959
0.0814829414468923
0.115504101711208
0.0863881698369863
0.0872426507494173
0.0729140873441421
0.0810392105595713
0.0763113443740924
0.0883636364441103
0.0762298204675045
0.0901340600841145
0.0796453156612953
0.0913087625252698
0.110881535173794
0.11935274413353
0.0887554117420193
0.144449413732538
0.115243158123747
0.099144338857718
0.0875963913086395
0.093134768599619
0.0846062233854128
0.0931705913390905
0.0795120929418653
0.0866380082169416
0.0961922964430559
0.113387887772378
0.0889592204978667
0.110183837538003
0.0994961084705646
0.187898933667484
0.143192616135764
0.12661579318985
0.0875048505417229
0.109441124977277
0.135185315711852
0.127082141575857
0.121879520513238
0.131828144758772
0.0931935959834545
0.10432714633489
0.0845452642316113
0.0966180844360336
0.0899693604697052
0.106009152745379
0.087762997040702
0.106998448120466
0.0926284344736629
0.106196028544441
0.0923052867519271
0.125595154248854
0.139047813471883
0.123164800748751
0.10309308954544
0.112059068142314
0.105819303584705
0.16189817346261
0.135967134706
0.192463485356752
0.147069333416091
0.189613324263022
0.165595719758687
0.141849379740325
0.104853117809582
0.123240688947744
0.112265949337114
0.129312710831259
0.120896029866642
0.131973379671827
0.118298915158407
0.14410864872916
0.120793269101102
0.138464061889979
0.116052237117775
0.146542034557691
0.140503576213905
0.144556652985354
0.13561140870257
0.157265033220941
0.175285491068238
0.235926283766533
0.169605065348496
0.160257058156996
0.144566120672473
0.154254497636251
0.144394385362326
0.153268191399552
0.146335102366536
0.160511307967918
0.165327549568233
0.214700219804367
0.172416724434504
0.211531024395829
0.168021108999965
0.182817136855141
0.193471443280005
0.182590892065291
0.203053621952451
0.21881771680583
0.176138621381488
0.197235890936107
0.204485471931072
0.203728474137233
0.209119603564763
0.22677657603036
0.185431858175488
0.195047813572629
0.185158560493794
0.207527044903315
0.193537312024933
0.218226976925608
0.19345803012288
0.22119122661708
0.207015891700668
0.222248471079463
0.205954107371555
0.253924829981326
0.217383188642479
0.243660071923052
0.215249918624244
0.224324125249595
0.218470654938767
0.247940763367882
0.265621776047426
0.269067161692153
0.281780610081937
0.267331062859087
0.233403309631635
0.261312004938883
0.237699204520294
0.271899576393909
0.23304214136513
0.278206270475854
0.259923386518329
0.274403549017279
0.245382367285857
0.279508256269957
0.252425133503356
0.299632394949361
0.265353891351519
0.279355307812276
0.272716559776055
0.29910229730596
0.28590858897996
0.304882889904964
0.326882654525067
0.351774756030383
0.370806540200993
0.365121452884249
0.313430210229657
0.347879994008653
0.302943125183626
0.318608667402209
0.311512441401974
0.364005305273668
0.327712899474636
0.373794091205145
0.331464020091307
0.351938041459275
0.331476902022516
0.372013105553462
0.340725484667232
0.376318677738211
0.353615657480159
0.387211802751253
0.366210159518665
0.384289872656112
0.38656665267694
0.409959144356691
0.40448002105742
0.444721938173966
0.392503282683748
0.417359407528514
0.376385263675072
0.426497393015379
0.387072237769289
0.424483873409475
0.387413283517314
0.440211408114654
0.424992133012057
0.471214323844246
0.428891988340444
0.44923414618699
0.417320970467672
0.450886275031531
0.435865081489153
0.458571874101234
0.458468238216882
0.508072030552247
0.470878720518349
0.496705327539044
0.475441931704602
0.503587968363693
0.482948006069068
0.520430382242872
0.46471200030752
0.514281451361686
0.484277443050454
0.545116505829252
0.488592790942798
0.543823958881405
0.495281571111752
0.552999352347034
0.4967560215112
0.559179777818147
0.541394178609128
0.593221691899368
0.533611368519938
0.620177198165584
0.543352269882959
0.593729435612968
0.534873410216235
0.589371640873804
0.566701858338183
0.608573569391161
0.552435713513837
0.654121302743235
0.589041514507015
0.629774569879924
0.592507922880441
0.62825028180019
0.591211665667761
0.648666189699358
0.5983514757214
0.642976013792628
0.631529525782807
0.675016711978351
0.618052804693594
0.668498844378689
0.630084754139556
0.693181983689921
0.644284268972007
0.730144832034974
0.659258113712211
0.685179162881745
0.663586618398819
0.718839860109379
0.657253600764338
0.705288911747649
0.680654237185066
0.72962557165268
0.691283792474625
0.755835065165413
0.691800039079497
0.745134166225851
0.718525925541227
0.796888195480376
0.7103308979046
0.805347643387075
0.693740027444395
0.753806413388705
0.714584394109139
0.820886819665637
0.742849418482667
0.792529160335779
0.765979284303496
0.811100010016357
0.765466823282019
0.833219732887127
0.781777829137193
0.823047333771151
0.802472184130473
0.847974860907491
0.78061512940367
0.862950813840771
0.795804977659459
0.886512405058949
0.818493626849256
0.859780950277865
0.802887399537805
0.907975529245781
0.819627228408967
0.960787731301612
0.815985680045576
0.88674895223654
0.807271235417302
0.927499664982607
0.838590495631968
0.89901006010109
0.930770404486089
0.887426288934485
0.835691932441538
0.923516187349356
0.831100079958527
0.913766008414323
0.872657081135217
0.947678931227218
0.898122061694602
0.926545323014416
0.878177543032568
0.95852044238845
0.917993149128333
0.988546920729045
0.889015301795113
1.00711859041077
0.95021821485873
1.03851447029517
0.954141070689858
1.05015901292542
0.893529174196645
1.01043915736871
0.966953303187627
1.01423536795125
0.941067674705221
1.10339266545394
0.977665708270357
1.030466421035
0.96326466306525
1.07594391845848
0.943436768209581
1.023540101069
0.925780900888699
1.08236060372435
1.01821854524711
1.05158007585813
0.972138418828285
1.07003649523194
0.972818740021059
1.10745622868796
1.00213535326066
1.07360699426756
0.998227086075926
1.08957725017049
0.998547203259645
1.07486133066088
0.957005629141918
1.06632633311558
1.02016672150629
1.1206651739017
1.04839981172015
1.18533775777177
1.00962774030941
1.18097384849399
0.991716083001068
1.08293921461153
1.01489438888154
1.17073373865877
1.08515807615872
1.17944268207219
1.07731057667722
1.20146902750936
1.09183405976787
1.19588217196268
1.09627249411462
1.15998407255441
1.10640971846486
1.10638902801865
1.03137759865127
1.21301883892841
1.1097169276345
1.22191286298397
1.10257245328213
1.15342670644121
1.01822012557535
1.12630588465259
1.00321771609909
1.16069121506023
1.04441454689979
1.17003682221592
1.10761184844671
1.22309595437035
1.14740989218501
1.2190461600798
1.19445754769759
1.23479604100554
1.05673881117011
1.28018160227824
1.11370133133383
1.21607408251838
1.11485154240312
1.26153137190066
1.13731635677224
1.22186503156854
1.11422579951071
1.21626644187863
1.12827408226123
1.19269999644008
1.11848182071894
1.15798285503361
1.11546107182144
1.20689213122483
1.22560444073917
1.2372943293386
1.10193985181794
1.24351792822473
1.10211245474108
1.21549822523586
1.12826785680124
1.23438996328985
1.19551599461413
1.23768923345125
1.15218499674784
1.2283733486194
1.0902975071627
1.28668489064526
1.19452765871332
1.28591861122157
1.1432956651716
1.2324927688836
1.17901642263454
1.29857103105065
1.14956211051203
1.30703713614863
1.20329809580267
1.24601651927587
1.1052152642269
1.24008502424369
1.12362086589922
1.27966175581851
1.15969596688853
1.28196652365723
1.19765210364705
1.27272259085288
1.15564667730768
1.25564529617763
1.10424780078813
1.25922024839136
1.13354031332174
1.27666517760383
1.1311760456453
1.25805317235052
1.17872424188872
1.21146685982031
1.1396102859155
1.2325174418748
1.1724823303549
1.17793489292635
1.11398193146284
1.26866171720894
1.12185097670529
1.22452218286032
1.10066206966553
1.21175129653301
1.12289034504337
1.14568957548754
1.11799305633789
1.21363817018873
1.15401772577755
1.22220059899227
1.12453433206488
1.16580880401363
1.11958970098103
1.22134286677971
1.21310267503026
1.24677372823975
1.10966166474973
1.22110222885538
1.15482736214807
1.18463459910718
1.09210566440393
1.20612555410131
1.12211391617137
1.26242389696375
1.10256115733163
1.19667337420232
1.09751793853715
1.21552697413106
1.13139922043038
1.17228628129903
1.08473675621332
1.23068688848996
1.12291666091443
1.164511476511
1.07919280547329
1.165238479186
1.10285644670609
1.14965450155844
1.08785376440744
1.19443297087294
1.16144529808279
1.16593901842003
1.12082745170899
1.12022580339102
1.07748061849441
1.17923332766016
1.10496043213304
1.17052655669931
1.04588937925663
1.12760781469844
1.04692587852849
1.1446228743135
1.0614989882454
1.12978817302112
1.04385636433955
1.14005704095301
1.07905317229764
1.09844808421392
1.0909015113937
1.10566035600222
1.06290792562824
1.122585287643
1.05722257431747
1.10568529244116
1.069424032919
1.07452991206617
1.04973788258521
1.08521810595426
1.03982247387529
1.05953509711231
1.01741376764462
1.05507503250406
1.0466283303198
1.05054715135873
0.986873035848601
1.05575321866387
1.01669942994183
1.06215250646155
0.985292384961051
1.09456111092842
1.01588225308019
1.01063962890694
1.00659402939441
1.02621314737523
0.973326502359786
0.990071549969131
0.982976143183403
1.04575834990341
0.968225167484327
1.03584426323159
0.93979244849804
1.0182290917166
0.957567082792985
0.971395128813452
0.941927018105877
0.975306458155592
0.955877122390517
0.985595954434156
0.96155351917298
0.969195022833996
0.938295849074967
0.947977812015718
0.918293767945558
1.00386849022169
0.95346913925694
0.92780000399286
0.907940008015235
0.968212570791693
0.928830319176476
0.921347243702198
0.903553154807229
0.958953304078394
0.902700858885131
0.940846693543852
0.891548184865186
0.9047407348109
0.878186409916259
0.914041375132922
0.867540655349623
0.899523757593722
0.8670107982042
0.898763964905199
0.841813575625212
0.88534598458962
0.836688867354108
0.877256236980671
0.848872147729087
0.846733117321255
0.825370415356101
0.856873366695197
0.840610130859083
0.844315140790357
0.82473578696348
0.841353609342082
0.793553017098077
0.802208487799395
0.808440717934588
0.859594564019938
0.785325753248309
0.833642964446539
0.806500645425635
0.811319528132301
0.771401441357697
0.805260599781777
0.784418419573216
0.798628790147276
0.749928245084331
0.785481503163972
0.748256844531361
0.773976690006518
0.74504038206704
0.767578124358518
0.757746188031861
0.761133490458232
0.733436813148688
0.756539816926502
0.748563959836443
0.739807090352761
0.714741811061488
0.743288211421518
0.729788993579551
0.751291603692546
0.718258192684153
0.718724821547999
0.705739372621859
0.709865717993453
0.707775765984406
0.706448379331801
0.700755432916573
0.694388527136356
0.675047863296948
0.703847806833863
0.682032169966359
0.69840181920079
0.65270857108633
0.675677121405821
0.674637259736556
0.678046461344209
0.653964684873862
0.666671890221688
0.646481637504967
0.657759238143379
0.645263373627494
0.641639561396282
0.641551612985199
0.652285206930847
0.624574565946935
0.65172988259359
0.616224320334874
0.618926604423969
0.60621263504769
0.619358222444181
0.600069044349609
0.608282499155169
0.595927881356183
0.606281316003154
0.589117621038714
0.598659134787219
0.58866125457989
0.604810244399292
0.594239861755072
0.595532123668738
0.573202681564478
0.581547172933073
0.570148046987115
0.589599327682169
0.556965044388304
0.572525871928563
0.555195009123974
0.567495263141073
0.546186405071301
0.567969189867429
0.549639954428691
0.554552032153714
0.531373904879363
0.553613010614973
0.546427306503057
0.549481340386973
0.533329270600329
0.544277539927192
0.526182475093817
0.540179230735725
0.527989347719331
0.537287531047658
0.512776781340644
0.526902956689773
0.511928515495982
0.51723216627139
0.502579968817547
0.501213016563875
0.502135551185545
0.512576381637068
0.491422167589324
0.50138444526371
0.489402896049985
0.497960143606244
0.485042970542006
0.497088401851419
0.47496025738658
0.488216452278565
0.475248182774281
0.477952666213034
0.468508923119846
0.472928848322979
0.470154955845368
0.470993035639975
0.458195314535858
0.463269364793039
0.458981472672264
0.452738334092965
0.451395403347905
0.464328842371096
0.455634712160944
0.462309345572929
0.444104929936985
0.452963503578437
0.432410955062716
0.448884253951651
0.433747855012566
0.431623166200972
0.427096596113266
0.44278142464748
0.4207977328164
0.426237454444781
0.413923680026027
0.426737992031672
0.423443745962566
0.41331318290344
0.405065102534642
0.420587304783128
0.402768359356422
0.406572178579742
0.397688290001052
0.402924036780632
0.402055385155598
0.405863391617334
0.399934567634956
0.397759408382307
0.382331267997548
0.395281686346005
0.386748227446375
0.395385239836208
0.380839081365582
0.384451287177134
0.371735218251098
0.383272907429769
0.364721444718006
0.376616744443184
0.369956946729518
0.374431147851416
0.362429394548329
0.370335944282385
0.359164358342127
0.367035712430552
0.3531673985225
0.365212874550657
0.352798752362448
0.358684321205244
0.345197892893281
0.35345174778573
0.348308048012637
0.356033178555407
0.34245110805258
0.344654622303215
0.335247044311972
0.340439640240997
0.336771346325105
0.340588738872059
0.325461213080469
0.340783797552306
0.326437439292836
0.333457044895423
0.325089606756645
0.336385827903311
0.329631130810448
0.334711129845746
0.325958727075689
0.327598852801118
0.324564762143613
0.328881424475193
0.314857961622462
0.324400782878674
0.318462235450282
0.318884678748611
0.313252932679577
0.322428945823272
0.316372572727268
0.318880074252046
0.309874661429104
0.323209421383689
0.317078217573377
0.320205956125258
0.311743813139914
0.316617156540554
0.320823995641446
0.322577212331301
0.309483656417848
0.319988890239422
0.314070093923135
0.317460657871164
0.319237922983677
0.32542151465608
0.319989060590964
0.323428977343939
0.324965988605042
0.333286700809616
0.320375796527337
0.332068522409663
0.328160629096192
0.334827286349646
0.330492207899622
0.335295609619997
0.332230320182612
0.347617147925379
0.338562398623013
0.346274021569662
0.345083736468371
0.350429333472558
0.347866800128953
0.350615680534645
0.345082682541505
0.354668676137289
0.351097943344784
0.358014083708051
0.354115739914998
0.367502966063252
0.358165318577031
0.361363132537181
0.365830223575323
0.378113775154359
0.370268720374928
0.374622566018862
0.367959575832961
0.377651882734931
0.374030857798758
0.377742368518051
0.384846979455967
0.393667239034257
0.389617661922255
0.395584530584412
0.386955055344186
0.399818544129859
0.391168131765215
0.402290566655188
0.399438473883565
0.406752176435048
0.409745239053233
0.419627433994699
0.41517954745302
0.425698054542863
0.421282919572698
0.431090153930801
0.436754263015546
0.441453391151295
0.434748249648327
0.445675445243152
0.443215464325738
0.439093502587208
0.445760823925321
0.450226434664924
0.447164430300265
0.45443612513333
0.453659027668745
0.458585596204208
0.446493240365996
0.454032566822567
0.453461547242187
0.452736333275581
0.447922497911447
0.454235899286786
0.443688040375732
0.452430174671264
0.446254264602482
0.444066551574062
0.438879426203397
0.451901119920824
0.441385845107324
0.448558120994951
0.450632608805497
0.448732886578697
0.436857209690983
0.45019774838419
0.450035844357612
0.448492151991817
0.445617275822515
0.454211670061815
0.448443490867191
0.446056461096577
0.439274202028545
0.445802856402396
0.44019345320319
0.449738108943081
0.450443530003899
0.453966447349932
0.44883004094333
0.44717002368321
0.436611074327565
0.451782490959812
0.443364922359531
0.446952908999195
0.455694899415489
0.461221888962114
0.44923889154208
0.455965409857878
0.448731207666934
0.447217296810332
0.450007559990861
0.451642636965628
0.442713911157646
0.450623301757451
0.442664350270401
0.450010431860292
0.441632061307201
0.451349373462717
0.450786325197947
0.447230147050839
0.437289296592774
0.450828644473917
0.446200472269947
0.440117029964572
0.433496475738411
0.432191811320455
0.426618582292212
0.4376119106268
0.429246067815219
0.428982408654122
0.420986990550947
0.417455295737777
0.413713626765439
0.414710460000578
0.400388113858787
0.404562390972205
0.406583412119492
0.403891411606025
0.395725719315832
0.398350963432092
0.385852576222483
0.387512524343277
0.380482204537651
0.381328177805177
0.377881478132924
0.37773231513799
0.369085509407348
0.368854514115319
0.36322892876786
0.360049694704216
0.349637195564771
0.35582399039108
0.348677626401285
0.35140137200648
0.343529525135596
0.339142115087111
0.339451509566618
0.340259495058228
0.331129260158706
0.330923422275904
0.330554728960061
0.331534957170519
0.330530897492904
0.328495021699288
0.316267216679563
0.32137007686573
0.316556480203576
0.317197615332988
0.309379292095852
0.307373916189381
0.307331493628305
0.307703775587367
0.306663399039026
0.304677206031662
0.301417093091934
0.305564463297182
0.295486503277672
0.293530917873236
0.292830551112346
0.296495396910276
0.295265188148914
0.293617206492089
0.287286515848771
0.288633618727639
0.286343618839934
0.285961920330378
0.283565033067159
0.283138313168002
0.272390699948738
0.279928794443161
0.277973324666912
0.274087242909917
0.269024841580069
0.272689523085494
0.273009855381715
0.271440106446396
0.266367199136381
0.267706503850622
0.259756767989793
0.264184418556694
0.2642668828482
0.265998049905232
0.258320260034115
0.260118153631493
0.256204973267526
0.260990307374681
0.255371402309261
0.258239781565069
0.250422990816591
0.253710612045721
0.252357390387404
0.252054334882703
0.249740240345834
0.249270990981548
0.249418634978857
0.250704477020432
0.246361520245585
0.247210563340008
0.244281218310691
0.245006280792576
0.240523905851094
0.245137736319371
0.238386995542916
0.236585337043172
0.239274604657345
0.244188563901526
0.23961112452268
0.239694415269767
0.235827246389621
0.235492154476769
0.235595925331319
0.240327380079863
0.232740629363908
0.233249588652154
0.235212332865893
0.230921634319608
0.229165465974232
0.226635601250958
0.232142954877414
0.23435633899579
0.222246533247451
0.22758684105542
0.224274886641384
0.225905211674908
0.224540937818536
0.224917451465602
0.22433880394446
0.226269735928623
0.222759838507733
0.222292432797769
0.221899810155627
0.223460392058834
0.221406567990966
0.221611500427036
0.215831098566117
0.217917647262633
0.218291774360467
0.218563719572968
0.214231558754088
0.218033329284781
0.21677605079136
0.217000564699278
0.212956190649078
0.218441873286631
0.212013612203931
0.213796375274762
0.215411924873141
0.218658954794695
0.214154249606678
0.211909444599757
0.212099858693799
0.21686291437036
0.213467902502921
0.210891759550159
0.2090795867893
0.211405691519649
0.210294770201967
0.214083845026888
0.208269166154657
0.208018184733963
0.209143354602093
0.214331136193292
0.211549141077272
0.21170989000484
0.205620031623779
0.209064395428968
0.207206291930072
0.207371660124716
0.205926144465131
0.204766582181447
0.207325874141095
0.20648658888439
0.205698713224825
0.203508843708717
0.199344767147525
0.201282164174955
0.201018736839411
0.204686813666632
0.205030557393602
0.200793904496914
0.193480380269091
0.201584001570896
0.201081786886218
0.200113712215609
0.197591119464568
0.200745095212003
0.197488597398017
0.19731559349366
0.195730289362116
0.193547682697784
0.194178651995799
0.196019713085604
0.195231389698151
0.192958769742336
0.195905552756969
0.19105133204713
0.192807667456709
0.19584302578561
0.190632923675367
0.188329144147721
0.188806363721611
0.187649716346124
0.187153217613012
0.188482835100035
0.18734877971576
0.188540678969423
0.185708511744707
0.183314311640075
0.18351668425329
0.187932516854394
0.184757287317373
0.178904579266112
0.18101980080154
0.184099751083664
0.182940337930144
0.18428534209321
0.179035480027548
0.182426889040859
0.180904662319073
0.177087224927844
0.17811531635672
0.178745495102451
0.174209927045696
0.175991490402558
0.177849335833322
0.17456888151016
0.173131286816558
0.175512983277025
0.178211718197332
0.176367572301111
0.17156377355075
0.174841437945261
0.172683513009829
0.173302635344901
0.16833208679003
0.173645809386164
0.171533775648673
0.17121024342457
0.166973883930874
0.168741182934773
0.167548036703028
0.168676563796915
0.162526985922331
0.162186435847837
0.167721774501831
0.167377283781482
0.156989354642838
0.162996237099345
0.161568735242464
0.161127420348294
0.158547103162584
0.159178394289274
0.15848519830884
0.161548568999584
0.154180657577093
0.155615786530182
0.153222576678649
0.156485880388141
0.151180056806842
0.155949950623897
0.153287220349185
0.153258412352572
0.15275192806964
0.152383703953495
0.149439911115541
0.149019257435211
0.150211481229109
0.148867171483272
0.145018269402164
0.149180633284955
0.147018325682932
0.147838986564701
0.144581268546961
0.144665984902539
0.139524657323577
0.143833095681713
0.146597006760491
0.142667489249982
0.141423704517154
0.140974692668532
0.143791397667951
0.14562264952103
0.139557484239043
0.141078129394691
0.14122606416805
0.14065311720515
0.139026743493573
0.139548752397304
0.133588544213071
0.137531155196844
0.13977528845801
0.137452865093911
0.138802281862507
0.134491343364566
0.130950787018414
0.135343034221264
0.135963498476495
0.1361206286571
0.136155983200172
0.13262212022931
0.133200254904549
0.132343560373898
0.130489321107036
0.132543201599629
0.130323309397048
0.131917416699048
0.128017793884337
0.129405067891228
0.127713646507658
0.125453000558058
0.127500111978574
0.129123773486023
0.123766975966316
0.126313700237198
0.125023392730725
0.125571305907824
0.122443745754211
0.126809220326555
0.125502443052889
0.124668582017042
0.125574022145556
0.124667311244522
0.12380755842016
0.124428852878303
0.121971876063332
0.123754081881182
0.120916890662075
0.121370975153624
0.122738667184799
0.12388572586186
0.12281880910762
0.12189137721712
0.120053290507927
0.122879748888177
0.117543898400039
0.121767839656487
0.118875540184692
0.120951819403876
0.115344364444976
0.118934929978586
0.120204155852814
0.120294543187172
0.115875405074874
0.11960145915371
0.115299148540536
0.115998965428998
0.117591072536788
0.118864091443706
0.116746518030453
0.116160255802783
0.117626868095983
0.118769459809194
0.117115923727674
0.115361809359901
0.114189727328695
0.119424075088291
0.117976330946746
0.116487082704628
0.117831980968021
0.114245939235168
0.114474554472638
0.115052898901541
0.113877644046072
0.114542712458518
0.112339881153192
0.111421095171088
0.113697226151411
0.114065043594506
0.109329617479004
0.109088742936528
0.113675687874797
0.113666115955443
0.109757542971896
0.11116388580386
0.111021788620819
0.111014044292071
0.109852344829753
0.111930054024934
0.110927781275202
0.111193035101884
0.10686398839361
0.109189611610733
0.108005094682437
0.105932610545285
0.108317687821984
0.109651430127011
0.109383938807567
0.108791437909592
0.105492699829365
0.105174030110977
0.104902937103388
0.107533149046648
0.108406904758375
0.10579056583201
0.10372113507649
0.104055856716404
0.105948489460816
0.107621085129596
0.104790991045918
0.101575272195349
0.104832063728704
0.104048248958331
0.0999175044581158
0.103618275194987
0.102697701503597
0.104761424196599
0.104551883846735
0.102820011387843
0.102051603208543
0.103687497866118
0.102553430840058
0.103636864530986
0.100338798533729
0.101641841819632
0.102183845970598
0.100743061216407
0.100492350906347
0.103172669914711
0.0995099554832676
0.104017121792505
0.102047150639641
0.0993823073013269
0.0982977851453993
0.098666330291412
0.098448100630261
0.100099585328015
0.0979510758162641
0.0979681542424164
0.0970356937392983
0.0973905695872469
0.0966609712522634
0.0962233817515026
0.095936835442886
0.0958728859579184
0.0930479651900373
0.0944712741717836
0.0923192034665293
0.0953090205788694
0.0929185233337543
0.0959229104054872
0.0927440866908378
0.092933368256638
0.0919392629081453
0.0920938198347486
0.0920556949555403
0.0918363899137735
0.092165142054545
0.0912751974326022
0.089517619477196
0.0922527859769037
0.0893346328887061
0.0866530139896836
0.0870216640946194
0.0871184435596409
0.08692456773603
0.0900644239757002
0.0867402839862236
0.0893925549618901
0.0862805923560674
0.0890577605414621
0.0825507837301824
0.0866233818569711
0.0876986389677105
0.0855398664139382
0.0861793048346201
0.0857376854139603
0.0838277199655199
0.085596504640215
0.0839993303812162
0.0845683383532286
0.0845892760520693
0.082614733903655
0.0826149176539582
0.0835417608538603
0.0833945782354788
0.0855761809766426
0.0819629145162611
0.0834449482686952
0.0810849511701754
0.0808149205102032
0.0827983620919246
0.081149681751563
0.0793912200875213
0.0825157721465638
0.0823124957828252
0.0813618492553538
0.0796725796706507
0.0798393894076116
0.0799061419721484
0.0801414558073687
0.0787919775195041
0.0797255439076966
0.0791510895726117
0.0794394780021829
0.0789080148943044
0.0793866073323555
0.0761751066201982
0.0772833482636667
0.0753039768246966
0.0754064278716156
0.0778641118294387
0.0781874956188303
0.0769191730110822
0.073774944863038
0.0744539493006058
0.0746107096271997
0.0745833700220643
0.0741592165677258
0.0736569816977561
0.0768877388065833
0.0716201516599701
0.073399619758836
0.0721627594923646
0.0738353581247751
0.0721088722435346
0.0741737612912913
0.0702107154436315
0.0720859886283585
0.071423853876825
0.0718931814179167
0.0691172665878248
0.0716369548527323
0.0709383499438575
0.0731589055127257
0.0720468398851716
0.0693540243027011
0.0681496241031956
0.0685588449790996
0.0722633409910527
0.072884493682668
0.0713985066295311
0.0722482035751834
0.0715671285555773
0.0731930285550037
0.0714583045033202
0.0756253171020187
0.0736715397964025
0.0759964758837278
0.0738458556918831
0.0757920837798493
0.0753731421329994
0.0761291581776609
0.0747007605785501
0.0767706242346074
0.072501478873578
0.0759439197839594
0.0757108736694535
0.0682457213190134
0.0547736019898827
0.0569237700266234
0.0655116070863595
0.0696592602616137
0.0645422147356306
0.0586788660157798
0.0616123574666147
0.0663236490449472
0.0609002314102117
0.0667781910885553
0.0583058487726154
0.0587983084453932
0.0676227829494065
0.0612224460129211
0.0596785638738277
0.066186621738228
0.0607129639968333
0.0710139778185162
0.0597819840652568
0.0668302414510814
0.0628547161936921
0.0708369597553069
0.0599001002010356
0.0727202018121162
0.0583440270385495
0.0621639033378509
0.0613974636028112
0.0599930441767045
0.0556963864979084
0.0628021434976836
0.0496606710135998
0.0636882937035066
0.0561422310257823
0.0686146646666773
0.0567440509750749
0.0715680029014181
0.0504632590980686
0.0625222922795172
0.048018023429791
0.0624574703326148
0.0565076632840274
0.0737611083817495
0.0623876415183422
0.0667150416778357
0.0512721182447548
0.0629689134306403
0.0660525059927444
0.0774146100943704
0.0584704975379299
0.0611698094680545
0.0665414814733231
0.0754972262549365
0.0625682209972375
0.0581312221192601
0.0728722794309214
0.0638178258416019
0.072186878621007
0.0579189127439948
0.0777150278123752
0.0560673184706848
0.0739780416396136
0.0608674570219569
0.0741098870607393
0.0620833814462418
0.072186812906213
0.0623510806829945
0.0659603421643454
0.0650531496619901
0.0617996178516294
0.0667109398061626
0.0619599058476733
0.0640736649727926
0.0649465746571643
0.064232181384096
0.0639850891855613
0.0589480795958185
0.0656793812097385
0.060836477038339
0.0646068584067434
0.0590580119693744
0.0624559702320227
0.0608674239518949
0.0602375441582649
0.0624145769578182
0.0595742706159649
0.0572572555617964
0.0595966512919648
0.0596002033312344
0.0615104342555083
0.0617294361392809
0.0625933529348604
0.0591454940536599
0.0604371190889297
0.0605657145166576
0.0621209647905563
0.0601898563002134
0.0619750468585019
0.0587667372465536
0.0609111762922395
0.0583132048397679
0.0600801234649454
0.0600917749222539
0.0587499740135892
0.0572781376955724
0.05974054516566
0.0567957668326553
0.0584997394370129
0.0613617496203307
0.060422224181213
0.0582417119594198
0.0596788927349791
0.0590940751457527
0.0603541167911395
0.0586363575367474
0.0596286756298838
0.0574917056048063
0.0601426424464171
0.060243480531513
0.0610682170119584
0.0582612284922745
0.0592216928593354
0.058557756073364
0.0578926429727045
0.0597299675525988
0.0594624882079946
0.0589544793091881
0.0600719520659203
0.0632996435946101
0.057515371944796
0.0574339297821298
0.0583682031154295
0.058801753930584
0.0564367969045107
0.0578550836024425
0.0585600305163189
0.0592781935439356
0.056090331697609
0.0594539118709336
0.0586769102664744
0.0604324510129248
0.0578434984836809
0.0575779631695532
0.0587544843339368
0.058827021289778
0.0599255525886944
0.0570679359483978
0.0591182869501989
0.0617236458509635
0.0569265195572274
0.0586146311912048
0.0571182367297808
0.058572016745901
0.0589511168671606
0.0583055007949999
0.0600617637086463
0.0608384951642477
0.0587773545950131
0.0576832586041783
0.0608076030026486
0.0613638760150784
0.0577867709598642
0.0595226239678036
0.059765757566796
0.0584950190611178
0.0588802011634718
0.0566313214288822
0.0582115887037072
0.0597856632515374
0.0598883057278312
0.0596622861358879
0.0586786169833948
0.0592084050810323
0.0598529187557067
0.0618829458915517
0.0583984694436657
0.0584885676313315
0.060747320344956
0.0585902020687185
0.0607145183237021
0.0617923653127824
0.0607577883667907
0.0613143818978176
0.0592579933310866
0.0613826366749746
0.0601563866200363
0.0594994728857505
0.0608529125821114
0.0608171523258344
0.0607529004554576
0.0600844430729695
0.0599091009694985
0.0614790996274307
0.0613420828927481
0.060568606526092
0.0582490480386937
0.0587979509787844
0.0590205712877632
0.0609144232218022
0.0582443486450824
0.05900575610534
0.0595741612257795
0.0590036756482005
0.057285780376507
0.0584072079458
0.0600409761592332
0.0593007626911835
0.0593777001886071
0.0589783359180717
0.0594552456101709
0.0594367182776002
0.0587079409475866
0.0579328359087977
0.0598191911165634
0.0620230687344601
0.0625016384313297
0.0603156064045585
0.0612618219843281
0.0616396840427288
0.0622190213236378
0.0601190440616337
0.0608638558559964
0.0608087864796896
0.0622194166083648
0.0608753447078918
0.0614168818756709
0.0605592235874881
0.0583187493326553
0.063692094812996
0.0639417903946467
0.0616661236230478
0.0639258540465358
0.0614370160647366
0.0624219093538608
0.059752210658517
0.0587497473696422
0.0623086872390295
0.0606960393057836
0.0625683853870163
0.0596917716478723
0.0620506270371494
0.0624280883358911
0.0619869233900519
0.0607722777948008
0.0616562220868599
0.061716154376723
0.0588326799583666
0.0618734465018944
0.0618994104050157
0.0583501369151783
0.0592531313037861
0.0617467639795697
0.0598873621648703
0.0617879421051575
0.0590330024577463
0.0600126479355293
0.0551704827523383
0.0598179648268877
0.0586126464424956
0.0581400181026024
0.0579416957038571
0.0575231925530631
0.0587295603072082
0.0592174554466121
0.0578953900535002
0.0571881603112459
0.0604773950169607
0.0593373979443635
0.0574214071807245
0.0582360995274907
0.0578722788352764
0.0574573305758964
0.0584658408244113
0.0578374765469885
0.0568575022686883
0.0571490960809676
0.0591308036202511
0.0569084419241287
0.056522740883742
0.0588406759966402
0.0576593089366715
0.0553217351854872
0.0568799818675655
0.0592008917437448
0.05606730031066
0.056638150900407
0.0559820185744673
0.056403603367375
0.0563103379583741
0.0557603530371608
0.0573576355554101
0.0575791140324116
0.0580541558261715
0.0561432255672358
0.0570105645170995
0.0563270087851471
0.05793279883179
0.0551235486357163
0.0549284163248815
0.0566107248821706
0.058729385788248
0.057059422776464
0.0558134299146208
0.0576553787532801
0.0555208001684101
0.0554826688912701
0.0553961614481876
0.0549290943045408
0.0566839334561899
0.0559169685816648
0.0541296494776792
0.0554445644029662
0.0585086917476816
0.0574851650005254
0.055393112194246
0.0544559742836663
0.0554593579594147
0.055428215526796
0.0565353156820708
0.0569248766482973
0.0570271566129153
0.0527897514812226
0.0551849338731253
0.056281294028675
0.0532748729033107
0.0548154401058845
0.0577346547833129
0.0600887039069276
0.057750097320694
0.0541717366374484
0.0539155790723027
0.055602502649567
0.0582676581180368
0.056142601168082
0.0541910376177225
0.0537939355632015
0.0564084723940532
0.0558474681580331
0.0548165740240907
0.0541822560477019
0.0537216108947889
0.0532524002507692
0.0553675652053791
0.0530739133395741
0.0556042766483745
0.0545023047912458
0.0532580193458113
0.0546259751426865
0.0539593279846975
0.0551701705438248
0.0535207477566813
0.0526349823276668
0.0586894971062256
0.0577806627462645
0.0541757563637403
0.0537807171012184
0.0552066552229702
0.0539682811454284
0.0544098392856515
0.0554836968986478
0.0538250230765544
0.0543999981457654
0.0540438054827916
0.0534724707722336
0.0528624092907045
0.0524708556526091
0.0541873873445418
0.0520512423240787
0.0528740676988303
0.0536192649963102
0.0528521423440756
0.0539631813027745
0.0510166744299422
0.0526843738382762
0.049498961610725
0.0525684982985734
0.0527329481632539
0.0544851669594543
0.0547018423511596
0.0562296903745965
0.0539104965930691
0.0507443125344014
0.0512043409332616
0.0489609765423306
0.0507965406044134
0.0496344432613684
0.052379800189828
0.0521184301513753
0.050165553933754
0.0491439781056634
0.0513388307858266
0.0481485404212543
0.0486665703178732
0.0466011744946846
0.0519071920082427
0.0478160447217606
0.0499251909610713
0.0490842409280675
0.0506899307983733
0.0477916922590206
0.0494555194107054
0.0472945716538785
0.0513960983721413
0.0463666179187624
0.0520184531776009
0.0542164105175049
0.065906297051458
0.04848689293113
0.050109941273476
0.054308350641785
0.0537233542337467
0.0490528023486494
0.0470342594405512
0.0477974081245207
0.046353199003566
0.0469542117599127
0.0478500564994524
0.046844485252066
0.0490696859819657
0.0462446000771043
0.047640198244958
0.0454604121198455
0.0484379535308634
0.0466234508681016
0.0474152729023918
0.0475113564530424
0.0486476941424159
0.047150290450242
0.0492845835663526
0.0443299340449428
0.0465113357741205
0.0477312338454602
0.0574899097557148
0.0552840995147606
0.04796241631581
0.0464685967824581
0.0461817560433348
0.0485209649110051
0.0457475245352901
0.0472196241287376
0.0445585560962497
0.0459175628625933
0.0455238841993388
0.0466441584656508
0.046052573785797
0.0467261541112641
0.0478199243979175
0.044141788885492
0.0466140687705138
0.0463539866715824
0.0446805433816467
0.0477429168645763
0.0440019477377963
0.0434632881736068
0.0461301043436002
0.0482950488598304
0.0457743611306724
0.0450150726263514
0.0529110412747597
0.0694484670199987
0.0506195362207505
0.0474195243000446
0.0454799743762923
0.0447811981878049
0.044847376047602
0.0450787941867602
0.0452113180961755
0.042289124660587
0.0443920634975059
0.0460440080767674
0.0432074347242913
0.0455172940965356
0.0449376229332372
0.0414569588091526
0.0444032646838171
0.0452864131450858
0.0456578900665904
0.0422830080569008
0.0441733942682012
0.0520415591069408
0.0622869628857273
0.0524348961814243
0.0446651042670307
0.0454091244226053
0.047054720890143
0.0635776419761612
0.0601640694508997
0.0372104308337054
0.0517930731945855
0.0399086921679341
0.0491260806684263
0.0381908195314216
0.0479974997321099
0.0454697450341724
0.0568912349567636
0.0447438566336387
0.0525811104673293
0.0424795767835689
0.045141676814112
0.0424064197268093
0.0448693314837772
0.04147048693711
0.0440326764178218
0.044207136136484
0.0426748847525146
0.0416628745982278
0.0461968786638011
0.0399308065022482
0.0474647894110664
0.0480719510763405
0.0576798197981605
0.0404484818206973
0.0469672871851705
0.0380944381625902
0.0480569703035225
0.0540062699464443
0.0665647816698402
0.0447401736909499
0.0442852248000771
0.0434075872097367
0.0459542482827895
0.0451644131564493
0.0437420874892341
0.042152616793238
0.041722528517362
0.0437194265321704
0.047118746668056
0.0434377100700021
0.0437938443903208
0.0457099235680004
0.0432522968898656
0.0431855991016602
0.0427285302339057
0.0444032802951683
0.0427767142171131
0.0453947214693257
0.0539821464715989
0.062668094242024
0.0811731115418134
0.0573904682758616
0.0654696503258791
0.0460449134412144
0.0465946592265221
0.0415192557465344
0.0465842839503277
0.0431472939150223
0.0495318175410455
0.041553898815222
0.0459847596510522
0.0429956481081023
0.0446069022980173
0.0410356768556818
0.0453047830241037
0.0402993442184948
0.0454684885211784
0.0432628705554276
0.0448012073705057
0.0423712929930248
0.0434468464624813
0.0453104001649026
0.0535444868078658
0.0581894359277445
0.041677482518239
0.0623000539249064
0.0661403956984075
0.0843019287073647
0.0467499775487666
0.0562487732358155
0.0416801036496958
0.0441819333962948
0.0424389653560256
0.0467749603445109
0.0525187930624431
0.0477035559181699
0.0423365612279059
0.0476855691755604
0.048132609429805
0.0461849934703608
0.0488850765201637
0.0625678128556067
0.083279312273827
0.0625118653885974
0.0445327268999919
0.050987540645259
0.0561495075176679
0.0748912629336384
0.0512802951154479
0.0439946110132537
0.0546076166245978
0.0408578630475418
0.0457547275870336
0.0400733496654346
0.0518670469871134
0.0508400633446802
0.0508692252180385
0.0415410062095702
0.0470191990193789
0.0427610545212732
0.0487521206388392
0.0527213828954805
0.061034433750657
0.056051257396454
0.049671762106323
0.0514175714756266
0.0556106067026365
0.0420571483038442
0.0518500298703344
0.0431634695430788
0.0516690717610079
0.0595920676818738
0.0690943843901517
0.0564745068025862
0.0678370281046791
0.0609578992414716
0.0507944407475788
0.0519379178832862
0.0680233275050302
0.0440507230608934
0.0605121842633451
0.0511852633418874
0.0950810044556148
0.0727230957044432
0.0711077723907363
0.0554817254260896
0.0470588813248004
0.0526895120103372
0.0438726659845531
0.058509638581782
0.0595709490680822
0.0654705124364512
0.0380018507526677
0.0616636858463982
0.0522858425360131
0.0735944699872594
0.0502663584433544
0.060239962118673
0.0481736557515998
0.0608400902872577
0.0616488946669274
0.0648523160632072
0.0572609773617886
0.0893990120716638
0.0996027321139219
0.0697314215614971
0.0660096365136911
0.061403086000527
0.0880874981847967
0.0685592530902764
0.0458995903354771
0.0605740272762056
0.0459036563109844
0.0589306408440518
0.062322201225895
0.0895518558263244
0.0676884710153327
0.0498079904803697
0.0618559385066013
0.0648670030955633
0.0804508739103113
0.076612028772238
0.0517998969306781
0.0636196685885973
0.053091920709313
0.0811613523342835
0.0804725919896268
0.107245818795684
0.067517466703796
0.107703030718395
0.081339794844403
0.086513138560956
0.0710135136643985
0.0741239355291257
0.0861381256331888
0.0935851968248307
0.0643440105246381
0.0733051538384186
0.0877012812487036
0.0971731203648046
0.0754404986988797
0.0677521346001507
0.0760440667481505
0.0776231794252685
0.125958812262341
0.151027723336803
0.103730375921425
0.0807443134791286
0.0911182060102873
0.105038966975331
0.0864982576303915
0.071839680837397
0.0780511485671219
0.0731797443922527
0.0732450028537189
0.0829394403424085
0.0868025608023188
0.0888229716377614
0.0803935288263543
0.0871072833356034
0.0871247895119414
0.138319485841682
0.156068675791387
0.127896087162669
0.123624801761585
0.117907454048121
0.1302515040239
0.098470881315955
0.100347127367609
0.0861155715847272
0.105162138145886
0.0982084325377509
0.094233693339326
0.108854648524659
0.12222508703062
0.129615801277399
0.121035706035315
0.130954626380472
0.113568272022126
0.114577321372905
0.175454495491335
0.192466967658312
0.186815886872937
0.106931357110314
0.170228481614167
0.142763288835387
0.217663054803852
0.151862469760579
0.140543685451809
0.140630686555647
0.150697038256426
0.153989781145888
0.174812021077167
0.170982446886172
0.188559896033721
0.169809118125173
0.193528292717591
0.198805132871586
0.325370145359929
0.255757542534041
0.223100776031106
0.205493989057704
0.236006787199115
0.22415760757056
0.225890159881216
0.211151544990634
0.239049222635249
0.248833472523389
0.29396641322512
0.254595979383018
0.245797783390134
0.278943757999808
0.272668762632542
0.300388690790946
0.293964016669817
0.336571005464774
0.273240727836478
0.299678330076101
0.291919859308437
0.300286241475855
0.314207675344188
0.342418850583358
0.347674659825279
0.321965529035832
0.328793658137571
0.326742151973708
0.336818324829546
0.348394535694009
0.349727715820098
0.363204955243425
0.402336380082484
0.493035078756243
0.476572491806074
0.411893096093815
0.348367692048943
0.361617266452332
0.374912666602595
0.39599393762109
0.425334835084687
0.413076109203936
0.400513049868015
0.358124697396872
0.362362459837981
0.364308658727326
0.36267286877096
0.366033166934165
0.359280229733894
0.37932014108322
0.370790143405153
0.407900361890509
0.400544939192431
0.441380107687175
0.376422463397356
0.359544593570271
0.364123634636366
0.363917180936387
0.358598053345432
0.364526388492911
0.380598135925732
0.368127118119024
0.361777413801442
0.338567673933208
0.361744652731453
0.369859418000369
0.379040960693116
0.339819966817026
0.335120832051971
0.331840859588307
0.312845778580997
0.327962514278027
0.354390481888279
0.363500673309695
0.327036553622338
0.303154016417619
0.310127898929849
0.296874588149585
0.308070345718967
0.301932794798877
0.315807524817712
0.298967088736821
0.303515873911137
0.298580854129822
0.303413063062383
0.287614262743517
0.303668231235682
0.293908878940537
0.304150618595481
0.292148823486533
0.299047797954789
0.28621222957032
0.29366348368254
0.291047209703398
0.298268143324766
0.294039545308331
0.303116429678481
0.298354325468592
0.301376189310684
0.291072267309967
0.296357320836004
0.29095966726924
0.299524276650016
0.293999478685052
0.297893304752926
0.28869085239221
0.297858255631976
0.28775071113031
0.295637475379164
0.29480209081042
0.294771530784942
0.292673974124044
0.293301788803069
0.292072596667563
0.291451104616164
0.315902408549272
0.356242403783366
0.328732481315773
0.281618212942748
0.285447814072948
0.284752983019133
0.268983533150197
0.299567794026329
0.324929430335353
0.319786717630005
0.272737798760029
0.276505163828014
0.27529816122975
0.293383729087473
0.276860585453411
0.273120994477804
0.254924139440357
0.292247788576296
0.301682239931498
0.406368061298394
0.363349112985347
0.36859899632338
0.279347398259228
0.269404417802678
0.29789749035706
0.298914880624832
0.272689380814698
0.24500883139459
0.275253052719686
0.303707441306203
0.285860914551116
0.261460205414737
0.251977809584778
0.262825829313529
0.295086558629047
0.297121835491494
0.285188795857783
0.304545674973208
0.304291925500015
0.311651442872129
0.323795703779821
0.350160311348446
0.273818786881084
0.24598163861007
0.236815339413351
0.248299397593802
0.27437915838611
0.288582122594281
0.262979243189607
0.244811595132808
0.235285021530534
0.226816976245925
0.238654173205368
0.259650210706302
0.233917541479891
0.266424736390799
0.244486826429074
0.240917434964937
0.226194450831396
0.28138806915455
0.2805334665398
0.296140083255703
0.220113742570794
0.227357988984308
0.262400339152616
0.262852077125636
0.238367084743212
0.219548735597312
0.197271360256775
0.221042217966178
0.213527208483893
0.211687899720095
0.215094486416167
0.243578076585696
0.255952982529217
0.289871248335171
0.307191996048139
0.252191191540248
0.197334205472789
0.182711626334065
0.180914421326803
0.19925585910519
0.17175357644379
0.196743635136609
0.205944600442888
0.201437414090197
0.198841924439235
0.22754644393824
0.200060268785614
0.179918010486198
0.182465018872271
0.182405430415342
0.195137638670938
0.245445850219327
0.240272023774674
0.218288166564143
0.219109143632952
0.226900980811346
0.210003937606123
0.201901706774062
0.201896960034724
0.204145671824622
0.217242915651702
0.229843109346427
0.222089280968268
0.225303198457442
0.224332739708091
0.239419169622668
0.280592450532886
0.262003349216414
0.262964714293799
0.273538397768288
0.322506519590803
0.316676186328115
0.290860494155092
0.270661616169724
0.273708693384944
0.285802946838206
0.287788467072966
0.292507769351979
0.31960992295414
0.32833057845864
0.308127805863019
0.300682751821537
0.312930586560495
0.306049694334126
0.340868531978676
0.357525795791997
0.387220816684409
0.392135791696402
0.38165429935213
0.365078059048268
0.335186219296364
0.339797227915146
0.342308114449051
0.34857447628307
0.338436503086519
0.336981354903545
0.361859992240051
0.3766187062052
0.353661377869423
0.347047747275207
0.352438829597894
0.353687357038592
0.350161663930581
0.360872931408878
0.354431574930199
0.366993378310331
0.362701519009782
0.363257241448603
0.401226986214425
0.445550287068726
0.406263698529586
0.376698387313867
0.389617136350482
0.394774073769017
0.384902590809091
0.403352059206045
0.419400804893674
0.410983442134062
0.397402562644398
0.406426520676741
0.407171564769092
0.400196640590522
0.436984905115867
0.432186455433242
0.421242715162722
0.415569601939543
0.431126145428235
0.491948187690576
0.463733404592179
0.45806593615538
0.44345687188631
0.441847460170574
0.427754945272037
0.437588278310684
0.425681058821471
0.441836002040669
0.438728254450403
0.438027862016
0.434177179995957
0.436198338611389
0.430625954995482
0.427062341445617
0.448880749629965
0.465531068688986
0.438231575529659
0.432153444444371
0.434411703408156
0.426308897138698
0.439004112615682
0.464805870654835
0.452628207690358
0.442106170320305
0.432021819953974
0.457709076645606
0.460298466933727
0.452208297941368
0.426926532694505
0.426230808013018
0.430429708286301
0.432199452567575
0.423136556219205
0.457837302332268
0.460389597801807
0.449983022386434
0.428693630004119
0.438086656938066
0.432498644366195
0.442391352871642
0.435974722617544
0.448467609487187
0.44641489008198
0.452274150193738
0.451103555243373
0.448643961093849
0.446864915190383
0.469285688736466
0.474524413222011
0.465980594332589
0.446366180215085
0.444553957330087
0.43573036928266
0.444495194750768
0.445541255019314
0.437080711952467
0.419534121195644
0.4310376938277
0.410595304440336
0.442320604278622
0.452519800986347
0.430714504910241
0.420690709628719
0.412843856437786
0.399734508776536
0.404621495902382
0.39843189323171
0.395190155049026
0.396931112756683
0.396703610102666
0.383802426008195
0.38565403988644
0.38176824582641
0.38495271083937
0.382319873949282
0.387225024680312
0.375354012138818
0.382091569303592
0.375349143722985
0.377105869123585
0.37366517512602
0.380817462213912
0.368516877473431
0.380882387264693
0.397597355410801
0.402408014117812
0.4020371995747
0.387155879087161
0.381476523405805
0.378554604585953
0.371193198864203
0.373749907276714
0.373569972905012
0.377389966676714
0.371613847387358
0.374862563320584
0.373163407230406
0.374446696015554
0.370096036550171
0.371152394042702
0.364718857900205
0.370962798687946
0.37193730605489
0.371771493640032
0.366161409569961
0.374502833722785
0.369828174437536
0.383677682701796
0.373849721345732
0.37862984019478
0.37171337228057
0.372997328988086
0.374259768429522
0.379460169832659
0.378930218855538
0.370737556731296
0.369493998978231
0.366914702404869
0.364438538946613
0.374618334606139
0.36282407083103
0.368721733426751
0.365517017385871
0.36308794810394
0.360142347681874
0.361827329719234
0.353251586444224
0.35477862875387
0.349472635748921
0.349766291843984
0.343190152884251
0.345531880535708
0.337041978734533
0.339605335943544
0.332354856236256
0.328193032840535
0.322262276319229
0.322343226295183
0.322675360076758
0.324810993268739
0.324304451138423
0.322471614988134
0.314092034754497
0.315373528335929
0.315119988450596
0.31508446232546
0.313522929233764
0.312103897390098
0.315087343291517
0.314107393154409
0.313530316988526
0.311870047070052
0.312635628779814
0.315730869800947
0.311561756739186
0.320793426416032
0.317668066505889
0.320971854429342
0.317323478594512
0.322300565470837
0.321613427001231
0.323036432276908
0.32476006173125
0.326625987593374
0.330414701399611
0.331981604246133
0.328195946541897
0.333181379543295
0.331617422172157
0.333196057111206
0.332610603426323
0.334969497964436
0.334734130818101
0.334402081774363
0.336157705132259
0.339468328498075
0.329616906202018
0.335549651377315
0.33403657782729
0.335240819757874
0.328951220360409
0.331667306158831
0.329132386402137
0.331384445109235
0.329134248007222
0.328780952863443
0.325887913087376
0.327514959270791
0.32816381759989
0.325314239341291
0.320997665911554
0.323990414813872
0.321925699169189
0.319856746786411
0.317090116200847
0.317502359122654
0.318156668413304
0.316467703898566
0.312297910883032
0.313848139647828
0.311522867414868
0.315558735533184
0.310720690696703
0.308927453179692
0.308426674078169
0.310377770573574
0.306799246725299
0.309070423385932
0.305786632931033
0.304149102789478
0.303785657053666
0.303805446875929
0.299985543670871
0.301981026610315
0.296939093987317
0.298342903189154
0.294236043430416
0.29199304473536
0.288510469509851
0.289840615590922
0.282609384514143
0.284932120537782
0.28055888211115
0.28130350539409
0.275381659482368
0.276138275960759
0.274066849083677
0.274453812637618
0.272279992981555
0.269346489050605
0.271418530745997
0.268189490032954
0.266994652971458
0.269896383831057
0.263555294883533
0.265709343948678
0.265258363410752
0.266210774545877
0.26293833648172
0.261010606394088
0.25796266276218
0.255857748297546
0.252213756599047
0.253501618782763
0.249265688228239
0.246656306872318
0.243221710717867
0.24117263019789
0.239706916740375
0.240548432504066
0.239499320397097
0.242448421366085
0.243311235616803
0.247905092964496
0.251173166309051
0.259074901603956
0.265164622095176
0.274640331997509
0.283544323490675
0.293658148241862
0.305338730206887
0.317706652857963
0.33126568448229
0.347111272903276
0.357793965823352
0.371685400257254
0.382868208640633
0.398774331024641
0.410504048824649
0.424059443942926
0.434628161900557
0.450713366244536
0.458909488495394
0.469992263598456
0.482887269669056
0.493626472522678
0.502758272463782
0.517619723784768
0.524261097992655
0.532895216819392
0.53793068500433
0.545281457103204
0.552908634176999
0.566097964219028
0.565940992257777
0.570663164139155
0.574641628939057
0.578641605459967
0.579466136319981
0.587595939372399
0.5875835685595
0.584826242199238
0.584463721021495
0.588427143189039
0.589480344649506
0.591537305101196
0.588101308930772
0.589972062533676
0.591868678540869
0.595245092382247
0.597074458487475
0.597532979589338
0.606263705485072
0.609107285878859
0.613367155748611
0.621785394608933
0.623469784127059
0.631328968682323
0.633848599430894
0.641593114200141
0.645958401075297
0.655069615291344
0.656947597199192
0.66950468354469
0.675937251428075
0.686475055361761
0.697309527681638
0.706646506503182
0.717952108123846
0.727494600454981
0.740631628727214
0.74795666960215
0.744649723447249
0.757539053586727
0.763285116766186
0.763766816579239
0.760468301007354
0.764604730692649
0.761907851836421
0.763356857654418
0.760865959901931
0.757614041222802
0.755878277017019
0.754823407553886
0.753118298761739
0.752985287685711
0.757995569120558
0.761731998807085
0.765806271893917
0.78662079483002
0.789626034180255
0.800843268339389
0.815971842100545
0.8228294137309
0.835302328454511
0.849621680194848
0.86814927700679
0.88432931214913
0.897568134487032
0.911504691141906
0.92751219377099
0.940596086878395
0.951957797188684
0.965074997717494
0.963607060419407
0.991460055801733
1.0009470677533
1.0269094469008
1.02645600803372
1.05039669771905
1.082428084462
1.09343824935293
1.11805465084502
1.12561387680684
1.14254447652863
1.16843929601984
1.1779311778723
1.18473954334898
1.19567063671485
1.21827612094699
1.22946545580374
1.23870863922515
1.27892601974263
1.26443650867879
1.27847928619712
1.26796930071086
1.30666901755317
1.28272155480655
1.29001502329627
1.28757001986926
1.26698501019016
1.248989830212
1.24429605236979
1.26029640128648
1.25521905137763
1.2503879208514
1.25227906265579
1.24115447696739
1.24154044928491
1.23371800681324
1.24818105618894
1.24896234501433
1.27986306912949
1.28583765754793
1.26070917128386
1.25820685454878
1.27842139619614
1.30065163671956
1.32444083316284
1.33245786106344
1.33180464274783
1.31456213043961
1.34940506459332
1.33461072502131
1.37132834900898
1.37050693920196
1.38730061133488
1.3723771318518
1.40166505031041
1.3778026984126
1.41395938045193
1.37912447026624
1.38043735983126
1.37599800130925
1.37333476151623
1.37520767957837
1.35712773503061
1.36790153301925
1.37165258542131
1.36042523896261
1.37481701918443
1.35116449616414
1.33537805695286
1.34234447023832
1.33084681165313
1.31037589921487
1.31783188938666
1.28688848648914
1.26280232332999
1.25782345893445
1.265166651617
1.24140810061411
1.23734633607409
1.186541097876
1.17254906050362
1.16208498567889
1.08239691177651
1.06621133030044
1.03968734849687
0.996763974895375
0.958652317590301
0.930323929537858
0.870904315591923
0.855755045620258
0.827070727582938
0.805107894452591
0.780681861477591
0.768051051785116
0.75376985240853
0.75194651028068
0.735539636990777
0.715097126020304
0.726194548274595
0.711624488230837
0.709883096716767
0.704399667342154
0.693365751055505
0.682862527636663
0.675044853835625
0.663276719701789
0.654174918378233
0.645237300456045
0.641668507958901
0.629172881641353
0.615176766571805
0.593534731025379
0.582994657209534
0.562036512468242
0.543774702401942
0.53201838201562
0.50598053521777
0.486009265763366
0.472264878328908
0.454647727761008
0.428398044207945
0.413854975340552
0.395141686967516
0.372828597388786
0.356097535892163
0.346541272752249
0.323224370256071
0.311610390736655
0.299588974085254
0.286376656640616
0.277084638210922
0.265611057963859
0.258066364423773
0.249864131263235
0.242261258264063
0.233975519267173
0.23136577336977
0.225530079151384
0.220494793917072
0.219649529588526
0.219819242293299
0.2163541617636
0.219238891764268
0.215611795266032
0.218083812674821
0.219446690109846
0.220441018705257
0.217939552857995
0.218929351585863
0.218278212153738
0.2210783087287
0.21827352142383
0.222949915613458
0.223155174279136
0.224430205521596
0.220411206430958
0.219348974172871
0.220031592603942
0.217735046482464
0.219380505156777
0.216603919919453
0.213001529008522
0.211563620720963
0.209309941039764
0.210354072490772
0.207186883276127
0.212529186929519
0.206366652422111
0.205259961161272
0.207807357163626
0.208135360319417
0.212703596935631
0.216868416651191
0.215659581305246
0.215596203526843
0.219517262265097
0.222331949592469
0.223787676209385
0.227674796589514
0.226715456754278
0.231924711688331
0.229054186482146
0.227585038477789
0.231421737652173
0.235619265040028
0.238612172111969
0.235063051363475
0.242581996576145
0.237183194763068
0.235847599738201
0.237774086248482
0.239211497976083
0.239623268359891
0.244163696875664
0.244689530000844
0.244502591870565
0.252695759772135
0.251782718255922
0.257336440712112
0.25966113068642
0.268598875989344
0.271699654824173
0.280710307190949
0.284249070962003
0.296740257151522
0.304233209303506
0.319519338943423
0.321081919311447
0.328111275566228
0.331187106351236
0.34127536850014
0.329807331912321
0.330796524475067
0.321860558475214
0.324653631713848
0.320582846208685
0.31163795244541
0.307428351967118
0.301481177333975
0.286137103018482
0.290663738425379
0.283327438346751
0.286763500094897
0.288521401000316
0.293698135846804
0.285402127840853
0.288703956932794
0.280806122582677
0.289667847670329
0.279581119990368
0.285251960465982
0.282193642664225
0.284486338992402
0.281621155801444
0.279397121094991
0.272915849756488
0.26434399927387
0.270208724564249
0.259637230638259
0.261756206629526
0.257197958610834
0.248986655675324
0.258805668169924
0.255459557633727
0.248927471992589
0.242432679554889
0.24788491526932
0.24167143363743
0.248236510723206
0.245867590544889
0.241629266189896
0.243288796502913
0.24646014889561
0.231636523133605
0.238482216026661
0.23382856217667
0.222888763993939
0.229097977118503
0.230218896368393
0.216032602498333
0.219133945777446
0.220338726306982
0.228166129109793
0.222917515210285
0.22168614080789
0.217198218638
0.217586765578417
0.215202523416488
0.203316195664819
0.206296672962751
0.206378643761021
0.204897906041066
0.208473348198862
0.206611884288858
0.200113048021676
0.199801529893374
0.209080297153899
0.201874018519392
0.205672705684065
0.195476639241196
0.202079319239092
0.201301355890494
0.210402082312923
0.207039055569321
0.210846287302075
0.200411926762398
0.207212772881098
0.207896469948856
0.208695428343486
0.195477392214259
0.207471182312952
0.209416822084068
0.217359500341929
0.204752898308467
0.217567063874251
0.213663855774175
0.214965189071503
0.218167532963537
0.226252456898236
0.220922813616559
0.233774091515956
0.229610035909511
0.239902583674053
0.233881924893119
0.23055066383754
0.238179145044884
0.24991454005899
0.245124689970954
0.256880080039269
0.250375746637772
0.257198943635816
0.266863339883154
0.282425825578878
0.285383869280447
0.314176042281819
0.305189917533934
0.307713627295287
0.332490007376329
0.328008804923553
0.343236085120543
0.364231049903605
0.356150997400112
0.373709384485898
0.379816191332464
0.382263670903438
0.387709436375684
0.399832649354898
0.39039654718419
0.40722793511506
0.416451565812401
0.410738513653529
0.390246817582196
0.403975759160716
0.387683437072848
0.39441198217432
0.3739328799545
0.397989360367537
0.39242988022113
0.387770906329831
0.364399486257656
0.411481258054377
0.374072216126754
0.373580626893172
0.378180533625896
0.38649182916613
0.351006504104642
0.35930812054121
0.349019269559962
0.376326648365863
0.357354330476031
0.347334354143129
0.347922558421303
0.36411407889391
0.339266016437346
0.344403783284405
0.320914183200305
0.342543399811512
0.325443050159623
0.319547331459046
0.317574915805874
0.339915141594565
0.325838423419388
0.343777678737901
0.33758076365972
0.344755881854359
0.324884453084654
0.334751896803077
0.324362346756526
0.347345825137196
0.341055917329297
0.332524339540675
0.318150315257717
0.34190023431878
0.329485854927445
0.335138818458526
0.318919665279268
0.320905505234255
0.338099620546764
0.367491828622855
0.354469952119552
0.327104010301645
0.316457260665753
0.34957602852336
0.375093652055426
0.372774426980284
0.323481767415973
0.349505813568442
0.346438981695353
0.359505327147278
0.355693745146718
0.34451391135515
0.330062696108711
0.374679827319325
0.341381295445171
0.360972823782132
0.336376766181457
0.392706543758362
0.397730699413412
0.425957991555247
0.412489114405191
0.436621332857195
0.398052812544689
0.43560969720538
0.455298074777356
0.466288780560048
0.40911984096338
0.476382362464462
0.41492427383394
0.450425419742177
0.496707108327801
0.504275865370401
0.443175841763292
0.51342444737371
0.482851112678194
0.541110243124706
0.521384995419999
0.461481495558931
0.404391923558028
0.480450189782018
0.439911675450593
0.445143560649639
0.448955771323378
0.485236621169951
0.459419512805377
0.449135684347769
0.455838947149576
0.490081604515766
0.455074495925551
0.411132019954101
0.420163442235852
0.453843142584296
0.451944238296956
0.456546962521232
0.388923136170049
0.437981399038551
0.404735621751287
0.474664273009169
0.438965564994566
0.490512283924168
0.464268705374083
0.464568434355908
0.477694327674195
0.420438953900884
0.421556185095067
0.477306006973733
0.403633943804979
0.646192343055094
0.547422597489997
0.47565405407087
0.484582877110094
0.536206251020234
0.488430703505284
0.743667318611457
0.552546640610787
0.526372317487851
0.462198776336353
0.591837457598506
0.474557422219322
0.454917880819633
0.401969298313144
0.547822885175966
0.581121366026969
0.471191464029688
0.211379135935661
0.448555541073176
0.505743897154755
0.51764809963328
0.741744977823971
0.618415674347802
0.520027955730359
0.610528270822777
0.343822054740284
