3596
4000.36533379555
650.420452594757
1
2
2
0.0957569322860759
0.102228027210867
0.0983323476263029
0.106255718233954
0.100183554051203
0.104344990782969
0.097994826530089
0.101554742168264
0.0895942436712277
0.114659869851798
0.096986810682097
0.105962042536057
0.094079477070111
0.102025777845801
0.102062343330128
0.098459718802211
0.0943350366809203
0.100214366657772
0.0973502650339556
0.104638289350488
0.106547531394104
0.100416215962174
0.0895134203735738
0.0995814446992074
0.10169510612732
0.106272004771164
0.095034801998083
0.110185100888479
0.090190836799383
0.106518148475527
0.0917340724573975
0.101605178947752
0.0992222743030517
0.108836149215207
0.0970201969918768
0.106648551917954
0.101657740942956
0.108511373619357
0.0929052892936853
0.109857468273393
0.107878324063413
0.101830448324294
0.102510766932853
0.103979341797872
0.0928239444341349
0.103754185015772
0.092227563444809
0.10728118827638
0.098605335069193
0.106103577108744
0.0994354723175781
0.10363690942862
0.108156058290963
0.114829595932402
0.0967015685675687
0.122543387192895
0.101243422853594
0.100872081375778
0.0982860824589173
0.116676778543646
0.11521558100931
0.114189231922933
0.102304392038557
0.10794199569439
0.0986518458735704
0.0999676539886927
0.0923675839345905
0.0998086576369634
0.0882545584540717
0.0994015677712978
0.105965512579481
0.121184849883162
0.114842526684679
0.108366750648954
0.108121976095702
0.104838828476907
0.0978574573534885
0.0990112682091238
0.0902561282471993
0.118504611496445
0.112051348383841
0.10172003981363
0.0949933991844118
0.0982822849425093
0.107226997182031
0.113945511607562
0.0962757685331518
0.117871189368162
0.125891281326413
0.111437911627954
0.0951020360076439
0.105563449061728
0.0969018730920657
0.0931982981129201
0.0934227348154965
0.0887567541476609
0.0946090209487873
0.099493055991173
0.0958737018355342
0.109130115728633
0.115030826222436
0.131997516445928
0.125922133256146
0.113860060765298
0.136557842379959
0.132247257719263
0.0948353419149553
0.157736407088116
0.108432115767363
0.101702936385761
0.095097974028852
0.100002413606191
0.0913077239878149
0.100188621872461
0.0961937246046382
0.119580004531724
0.128932346916929
0.104065051564199
0.0942304637960441
0.0946071778030796
0.0937024034445898
0.129476428532296
0.141078614527747
0.104989058839699
0.101467684620946
0.101294960378074
0.102257211370451
0.148572075278049
0.124262834138123
0.0911663090382091
0.0916778370266718
0.0924756450901647
0.0815489051562786
0.103392402009351
0.141149387751559
0.113908466795865
0.0913477525037183
0.118935246093686
0.134109031604133
0.162978801755169
0.108926797888372
0.096974672610681
0.0913736577345739
0.116184619858262
0.124608467742653
0.105792641215604
0.100815847758271
0.124259656583753
0.105000101839274
0.0924397325464598
0.0933016563079799
0.103227127888322
0.114970488390467
0.10787735796495
0.0912524088550234
0.144660028166357
0.172276860668458
0.150451501944547
0.143741814023136
0.102332869929987
0.0889784517701606
0.106981764553989
0.0892468287919511
0.0947774570210214
0.0867480492560169
0.0975970243179898
0.105287310958421
0.132457877660002
0.0927438537733428
0.122309805711834
0.12761971086875
0.112449515089109
0.104085664104029
0.15975637877282
0.112002974783689
0.104403177885522
0.130517910525103
0.108376959716534
0.0825729815555996
0.115710390022089
0.117584512988754
0.0964590170030152
0.0835751683391396
0.0953111507358997
0.0975873386868713
0.108365851657959
0.0969849770638686
0.0989786783285743
0.0943337849955492
0.0934933252878806
0.124810095121213
0.164469192918392
0.125394391525457
0.107961170655312
0.0925773999195365
0.0900818413437552
0.118832739244508
0.134870734723956
0.0853415639214595
0.0927002988468093
0.088119286933671
0.0934745996711467
0.0874638406412852
0.093319392253354
0.0833867710644942
0.103379945033767
0.113300764425608
0.109427872655373
0.0819944885260775
0.099710957928732
0.0936484295790497
0.120104821105918
0.136908366840144
0.139516922595897
0.0878987748112863
0.10071815609869
0.09277895094102
0.121478000129993
0.101856664979409
0.098178625074454
0.0835765443117223
0.0956887520009975
0.0825532216515613
0.0908957880076928
0.0780626197248124
0.0904566767185001
0.0790760516048141
0.0984401669136256
0.0847903010945941
0.110929995697636
0.0980933029943726
0.0936288381727334
0.0834476143126705
0.0893846980858796
0.0817861737312919
0.112655738039541
0.112514483251075
0.103649366377587
0.0825096602816982
0.0890415646221956
0.0855630805378156
0.0939510299336781
0.0797906272529439
0.0883390792667324
0.0817118400708278
0.111680667374668
0.120849525209576
0.111734200630562
0.0831008553655019
0.104131233147512
0.104695590605956
0.123692331367923
0.0831553625008743
0.0974983470355425
0.0829391083994759
0.0959879369010639
0.0928351739796937
0.140110484017602
0.0973617509568882
0.105811409895863
0.101942482944553
0.116808295025453
0.0896575768931035
0.105445061270382
0.112577734946509
0.178866557096032
0.122165555763942
0.124166094837693
0.133730284624287
0.130563241556142
0.105728880392327
0.110410715319903
0.095074390474029
0.225101174069758
0.139845651979822
0.10785614154867
0.102240422213328
0.111637874939787
0.0955169171837711
0.113906734516571
0.116373158071929
0.139208464502651
0.142299180389417
0.186904070550321
0.139345676873753
0.123967023898702
0.115553585464084
0.134596709642019
0.0890850575163977
0.104788986343037
0.0902763560399931
0.109100444908524
0.104857905966374
0.135140542916479
0.109168599344752
0.114279394373459
0.10770977719883
0.127528563673741
0.098201053698368
0.102423795292783
0.101894953734837
0.115050963334662
0.0880664544389791
0.0940267508910129
0.0914829962266304
0.105161923816397
0.0953417816094579
0.130823237329051
0.147727280135633
0.129108457735088
0.111122814946775
0.130932928352985
0.0937315525910411
0.107314778175229
0.09137977917993
0.0965647717617011
0.0905688257209322
0.0903894968900219
0.102887454009251
0.127782797769841
0.100029361445154
0.107719930314696
0.0912236357503921
0.0976785873495221
0.0983946711636388
0.105182241933388
0.0926489822956432
0.1008979350128
0.0994751264142023
0.10393352332756
0.123924767249236
0.138856134200307
0.112407537229548
0.164006496215562
0.133086478601863
0.111685630159407
0.102755859274989
0.104164664573905
0.10037176606735
0.108524963948251
0.0990040258695728
0.111236760820481
0.115723062733532
0.133510798321742
0.111887972427634
0.126899819328817
0.126809467257947
0.204772041891459
0.154929927199088
0.141157764512889
0.104332749230375
0.119765707332627
0.146234406409347
0.162277141236801
0.140200896405635
0.145805341868184
0.111235757260443
0.117757157073168
0.113780385548259
0.120423413400039
0.106972502694342
0.129178620648339
0.112448847392512
0.132448697945874
0.123347965681353
0.130607014394809
0.121679161002246
0.153995192478129
0.171677322424764
0.153768508166388
0.132375193567446
0.136892417573655
0.134811952805682
0.186110203032276
0.17264232865122
0.20687795301713
0.178773882065788
0.206734331483767
0.18662686749632
0.162262645756594
0.137669573732829
0.145596375981793
0.146950870851897
0.159584211763644
0.149255801261943
0.157303009298657
0.152361938781666
0.175310513728799
0.151722703188884
0.166437237112427
0.148646547750701
0.17910238197785
0.182880735361713
0.173390742020438
0.160395990000874
0.194578057703076
0.206310743660098
0.272225458937713
0.212217825820363
0.198501987023946
0.183679742083315
0.191157910414965
0.175011910650446
0.196555879287313
0.185825663599338
0.204339157506659
0.208966570866978
0.252289490525295
0.215416204721429
0.252169333037549
0.215892217040611
0.220005368477102
0.227071560811157
0.235005919881121
0.248571387432637
0.261690586638747
0.217033235738116
0.239556190746104
0.246330444343865
0.252839525693167
0.251884059725728
0.269364120320346
0.23402363375725
0.238185687566615
0.239046890475354
0.25347525175102
0.244424738455685
0.274410264750609
0.249609944206248
0.272693343045574
0.26783639082402
0.266347924856657
0.262449803179953
0.30171804946896
0.265057165775013
0.296919723791699
0.280051943169551
0.282572182603794
0.269482657342918
0.303559711144767
0.322172982562035
0.325901046346861
0.335392112931252
0.332479715586055
0.284686405098413
0.303688191155921
0.303494040375984
0.317825282175614
0.297265092641289
0.316179685368337
0.314074409119391
0.336237639461208
0.31806639310544
0.349790719857377
0.326323108298124
0.357346540919584
0.328381747611991
0.3553075315718
0.336649276917055
0.368600122547948
0.357740532354421
0.377273484143248
0.383186706112014
0.436050190947682
0.424576195563427
0.425099051666989
0.383809705960588
0.400560846259382
0.371824052909007
0.395598676702949
0.398608049028027
0.428802088775435
0.386592969276363
0.434029210228574
0.393702036942054
0.429893576071854
0.40121128930782
0.432779705473921
0.419305728124771
0.450186242532244
0.441663711227223
0.457170305941235
0.444632175932158
0.480499748288463
0.458669824628659
0.507231374406537
0.456057100572539
0.511042988204258
0.456299369496895
0.506937193771929
0.491709603864324
0.498041835672412
0.469761235685488
0.514204358567121
0.472118294439402
0.50992839835611
0.506714313805282
0.549711914550151
0.502675016735211
0.554319055455513
0.539707381498339
0.568108807770692
0.503927712351224
0.564325231426997
0.551739290409735
0.588393458245469
0.595753503091508
0.58834050851352
0.552319510098261
0.580044276879614
0.56791102505976
0.640375709318303
0.568841531940345
0.607165672049624
0.554571836557554
0.649453628557849
0.578905017436984
0.629603076297846
0.602465257052413
0.642331178360524
0.588331646092593
0.638670017238504
0.635546456503646
0.683133618299037
0.641608629095611
0.689179366150565
0.657286672182273
0.71524336416498
0.668500452275298
0.69450651500213
0.65328141447644
0.679917787651527
0.682949796527193
0.702833214719557
0.657399633733
0.737818438007005
0.673725259515088
0.72130812439632
0.680733271532128
0.770792424841419
0.71405730089822
0.764173242241915
0.703285477066573
0.782106357072527
0.740714939023614
0.766486173638217
0.762235257998696
0.776510010756269
0.750176214370543
0.827255244214191
0.770103928185388
0.84470290256707
0.770811748186693
0.832324166963196
0.797262737493281
0.873999873098161
0.791678012138194
0.860203592860419
0.795949742164707
0.913054028884014
0.769482307065161
0.89977130057564
0.866246187917034
0.822793807999552
0.862217441924002
0.926431343610362
0.821858095252245
0.896308979068642
0.810503909959013
0.85096352934028
0.831559920545716
0.926918640714811
0.956581721164444
0.987261762120415
0.883358584046653
0.973922799316234
0.836815887343635
0.999767484546908
0.888260408732793
0.996576838108302
0.940968160717628
1.04541057951156
0.984481380470696
1.02672147149693
0.933440832719685
0.987780293811333
0.93386078795549
1.05934168312439
0.922006819779792
1.03313839043608
1.00808352844599
1.02737233461127
0.968263386675822
1.09574619479759
0.982253251103118
1.05060767967403
0.982429930863213
1.05474743301921
0.946428848486534
1.07759024628778
1.04135855474292
1.06373913771244
0.961179272224722
1.17903376812994
1.02172088254914
1.09897920476756
0.980414684930887
1.1702300338564
1.08889868206188
1.11907352145555
1.0325759885083
1.20175412026207
1.09804359874446
1.1368005717234
1.03386536954912
1.24306038839578
1.12422916069199
1.23486981946391
1.06539931392339
1.25762429561062
1.10209809720367
1.15004162836248
1.09868860505495
1.17743459538146
1.05377528151874
1.13587158509485
1.05785984290423
1.16138944306953
1.08546932623178
1.24040512380845
1.12346649169059
1.21790390947077
1.149030554361
1.21729625299791
1.11581608760841
1.29203941656372
1.15742464696472
1.27032916673245
1.13819816982071
1.25456020849328
1.09553661394424
1.24206710067539
1.17896701375319
1.24917205664239
1.23411358869058
1.39140594046193
1.26789212667081
1.2453430766616
1.21826276579615
1.40850664393009
1.16088153997665
1.28229190601047
1.19869852522861
1.24059280420745
1.13314013301216
1.34642342838841
1.21121957859995
1.34249580877232
1.16773765229485
1.31733382600766
1.18170269673964
1.32972334166026
1.23253322538532
1.28688618879952
1.17190913007402
1.45866888853521
1.29205756788046
1.35994283519774
1.21004685237779
1.25787500891437
1.29138499073951
1.26852563335817
1.22581960928165
1.36319909751427
1.22358534021336
1.42630199753414
1.32611578313563
1.39899214206603
1.27464457212566
1.42964483859497
1.27023392068996
1.47342386089472
1.31100346944865
1.45336938914661
1.25794975360304
1.31126290051994
1.31032947593731
1.4215370397465
1.30155055443604
1.4894068512616
1.25252852948499
1.37391522131931
1.4064130077266
1.33447817336484
1.26220548452552
1.2925973130261
1.33004399659058
1.39003744870745
1.30675750896248
1.38440905564544
1.23332478667166
1.51463914295881
1.29576898434166
1.48533835652876
1.20530235889787
1.61597779905814
1.3760835953725
1.48747032921411
1.31679704699628
1.3921613808253
1.31213831681125
1.50067872615419
1.40735904714277
1.48409566000907
1.34972851616471
1.44809641282865
1.3632290783483
1.4969840430308
1.4254955348306
1.34542243796073
1.35727155246202
1.46612711301603
1.37921110283236
1.44878416007204
1.33256816064121
1.4351844003413
1.4173096840316
1.54275753698585
1.34270487114177
1.61018858075288
1.32453118717222
1.46959625589972
1.30776087781111
1.5294089388435
1.35800610139768
1.35794762404491
1.35742762115101
1.42956748791035
1.30341529657221
1.39692928927713
1.42830489907692
1.35739166507556
1.35512662884093
1.42114460055224
1.35126648507989
1.38256124965142
1.28024773252394
1.38194366177995
1.41620577762218
1.42168673006864
1.36810082514809
1.51373144267405
1.27145514521683
1.54687823738514
1.3269862358589
1.49406299997707
1.3708830478576
1.4497042847235
1.39411445644879
1.34026228941392
1.30859135772798
1.38198199757464
1.3682130113787
1.52359845289784
1.36233296552872
1.38912609863495
1.2994310681938
1.40546173054772
1.32016610693199
1.41984371251728
1.31624641674772
1.44367623958792
1.390358810966
1.36819607062056
1.32390075012344
1.47242120003406
1.33249510601947
1.31846070181187
1.34201888551723
1.39961789475863
1.30178278620495
1.38076821341681
1.3089039202409
1.40768390110341
1.29808120677037
1.455878475237
1.31181821289877
1.45846199733005
1.35299575218987
1.35653122972433
1.3440243059244
1.33253560751615
1.33326368817081
1.49562430544326
1.38520784210962
1.43825546108949
1.29217989278696
1.32115127504235
1.33514798122686
1.35378281773333
1.25599256238239
1.32895739726416
1.21719313463629
1.27628315721806
1.20066429064902
1.33876263324653
1.31394881989644
1.2515310839465
1.21753848304688
1.30665821030363
1.2089284770365
1.34689055380511
1.21543962515778
1.2875257380389
1.30620073066441
1.41004859468848
1.25626602777981
1.27577403806324
1.2275438538983
1.26826619770159
1.24264106674514
1.25951349941965
1.21315116382779
1.2799743402241
1.25340027905823
1.25941704567301
1.24515836439484
1.26046664718896
1.20384190511398
1.28520877048708
1.21853219983805
1.2915230178756
1.19369780789286
1.19273540200763
1.22085484767515
1.22812225942443
1.19402279640246
1.23548216372432
1.16126534993082
1.22202944734981
1.1299605720866
1.21753465078162
1.22125251945535
1.23890857257813
1.14212974127599
1.16998248097577
1.18288244436856
1.22274653278872
1.1249336172712
1.20933129581488
1.07299539949844
1.19102043905615
1.16069927058688
1.18552904151255
1.17636690491252
1.13610944560843
1.07395772437261
1.18233488210312
1.12670697888159
1.17319294820656
1.09541193906752
1.20995467294123
1.08953733966375
1.14896982289097
1.07968839307159
1.11049511942458
1.08672801312813
1.10634106332527
1.08461214400498
1.09574499664957
1.07725942912364
1.11113219415554
1.06177717389991
1.13003232225748
1.04854854116321
1.08314912360658
1.02814653555777
1.01585849791437
1.03965539583477
1.07157875415461
1.01376291081874
1.07197015239888
1.03383818890368
1.01713305424549
1.02513250031423
1.03864474063829
0.990416459850193
1.05151628681271
0.972991718151129
1.06262505880395
0.978181694637652
1.00863811245079
0.987210548299418
1.01119786034007
0.950506733720197
0.988625878141994
0.961236331580308
0.980514938848213
0.958977436868837
0.940707894156269
0.91208275978449
0.957452918381765
0.946535612760597
0.959628099373696
0.943777775074527
0.942008729347008
0.927070730962852
0.93948693254141
0.915283842337571
0.899166358667317
0.895675015814964
0.917601861384845
0.879202680364416
0.899685392951143
0.877094524765581
0.926247727044534
0.847012597253223
0.881050169753682
0.850676163196433
0.90153596380723
0.843914195842525
0.892210096089789
0.844470341958373
0.848489796639214
0.855483112186287
0.845954726088886
0.819471414736849
0.849046085151591
0.811464125997252
0.853707672337514
0.834996746860235
0.833810049903519
0.821387314441692
0.841498097648934
0.791544834199024
0.818502551977662
0.802508314209648
0.810527541485295
0.807387891289086
0.795305873802943
0.78606940007255
0.794068397933384
0.765436659309604
0.77127071758968
0.754564492267325
0.788781902230267
0.754142110622645
0.765286736859563
0.751686172337579
0.759933331589971
0.745181172455828
0.75207493811761
0.729752109438823
0.737715218513923
0.742109999782401
0.74083715855703
0.724646816430489
0.746866980929604
0.72494568701564
0.737670977705597
0.705209782543904
0.724653858382885
0.697712823221561
0.720257366391825
0.697619439439792
0.711136521632316
0.700356604533471
0.719404150293125
0.703855488747195
0.706694100176717
0.692563640225966
0.693250173695592
0.686586250805507
0.684927992270763
0.670662700928938
0.676913047548793
0.66253092086052
0.683380228153195
0.660502698971822
0.665687658416849
0.647814508191956
0.668559502924754
0.641076516869654
0.661274023429318
0.649078237752301
0.648218436840783
0.6311260807449
0.638888759440391
0.633152209023654
0.643972128749797
0.616053326924472
0.634989182582257
0.614379067446672
0.627071605328772
0.61131131105596
0.614532780522931
0.599674560931288
0.612915781971656
0.603270036293508
0.609094262215886
0.595698418854846
0.614685860931561
0.594645689196486
0.604329302091678
0.591160625106042
0.586679435990957
0.570812025444072
0.58282674167013
0.569408388405455
0.583285763224739
0.568483180140946
0.579412266193466
0.566276188981605
0.569218435633524
0.55594063862863
0.571057278008448
0.554956943381097
0.561411992113544
0.546921423294589
0.546882202235621
0.551213476365147
0.54508041929864
0.539360299158262
0.534738243101521
0.524379614904988
0.541191359921592
0.526848959170324
0.53648886094138
0.518468179212287
0.529231113986181
0.519750705931807
0.528657918686244
0.507828870973437
0.512702751406175
0.50558074939563
0.510203411945074
0.499664158899522
0.514200735820952
0.497826553829961
0.510663021985912
0.502046512274919
0.497895174752629
0.491454577256305
0.48964168552607
0.475873358531952
0.493615281804137
0.480055257589015
0.486613195142341
0.471542125194307
0.478689890690859
0.46562369341426
0.480018470216661
0.468579069501676
0.469748004762819
0.46122916257932
0.463385855541094
0.453865430375428
0.466704461643603
0.456276913347285
0.460903857702764
0.457199825173841
0.461920000139174
0.450354017082783
0.457772567640717
0.450322354492016
0.452029002345398
0.439721140276047
0.450324147918355
0.439539011948086
0.44868372623569
0.435187234184298
0.441572594156633
0.436161302244734
0.442398868792802
0.432117072514388
0.443899725825271
0.439743208494837
0.44544946145041
0.432843763012087
0.44167706796187
0.440589667318759
0.440538091807974
0.435539157116568
0.442795913952981
0.433489367091625
0.439792412048004
0.440742449279672
0.444857305055362
0.433333315167591
0.444458615685147
0.441119979998232
0.454804113484569
0.443127465523691
0.461289638588026
0.457195355859406
0.459931162574385
0.457136554026786
0.464509313113063
0.463667506885181
0.467187635296693
0.459977336375103
0.471416799638187
0.463360399367406
0.476846697941126
0.467464737869645
0.472760233686838
0.473664295211476
0.491899691162371
0.484539176661283
0.4841020384805
0.47167660861245
0.486505106641734
0.487854344951902
0.500306843373254
0.488217489848913
0.492722394999471
0.493515043282698
0.50262130806176
0.49912108805678
0.512964604551181
0.513476738103547
0.513292863276773
0.513325316583513
0.524161462555117
0.513009807502117
0.526506585917623
0.521127192005397
0.538256641072051
0.521252735232854
0.533239224703632
0.534179681586651
0.544026186825468
0.543075387993474
0.552067093132874
0.542199420551655
0.559621061163879
0.557343735707406
0.563183519078894
0.560282894905347
0.580801094249476
0.584285530608498
0.578427356663558
0.57490088520418
0.585646446611828
0.579948911244507
0.579222831600372
0.590406899173849
0.601082435724364
0.590283807312144
0.60082856965634
0.599895839452695
0.59930200556186
0.587237398545756
0.601284862321302
0.591177759040914
0.598482432103697
0.594751420833014
0.593231844123052
0.575222059627094
0.590711689601733
0.589014806054688
0.595987487369716
0.58262214862316
0.592808122444289
0.58723806494819
0.591060442688762
0.585433719520483
0.594646367890234
0.583032960622195
0.58199837525921
0.576210395928305
0.589052757065871
0.586256525067362
0.590936297769329
0.585929016418584
0.59502511503231
0.584819773757516
0.592835382070921
0.58795416709932
0.596668381522684
0.587778911688339
0.584532468741235
0.583811709875023
0.601056832194265
0.593719800862381
0.591106934845562
0.591032191791587
0.596544482764907
0.591415831232398
0.600310338987459
0.588017544823057
0.589425261789561
0.581097166161277
0.595755848984804
0.592358400013435
0.590761968464844
0.582149446100765
0.590032064593369
0.584435303226437
0.594845481896656
0.580007755481922
0.588574872690977
0.580950371188374
0.585291681526162
0.578190269053916
0.577693958682724
0.586861925075106
0.577582216110933
0.569067536114345
0.584656074289113
0.57118255774931
0.576723089554953
0.568190991246598
0.566653517046781
0.552515798050438
0.551338752823005
0.542128499180262
0.553530976072406
0.535083762074541
0.533160243987064
0.532150358967726
0.540347305819055
0.525632041239737
0.52438137612844
0.515939241838391
0.522186478176139
0.509849290543048
0.503729048073383
0.501744271585188
0.503284401531311
0.489867564318921
0.484676286817324
0.487132419554499
0.488579586170055
0.476159463823897
0.481441753894364
0.471116013671028
0.472037887111017
0.474347747968166
0.467631799289046
0.458638054478625
0.460884776259793
0.454043346013321
0.452818162532865
0.446561163029429
0.457675627649157
0.444296857391723
0.444918705269955
0.439892207198963
0.443791260128439
0.434106304387801
0.431793466967342
0.432715161354863
0.428754235141614
0.420480915641711
0.42444827542877
0.421239077408039
0.421458411197177
0.41473859060807
0.41265543150434
0.408054279622702
0.411954986168518
0.407814710448902
0.412315307201375
0.409101256600686
0.407726335755213
0.400959147666581
0.401947118657952
0.392064908079253
0.391890289666519
0.385935604744272
0.391838114382824
0.391679895015694
0.391794121983815
0.383583083572572
0.3866286380384
0.383979992801768
0.383710558850336
0.376567610505466
0.378819344574126
0.370599925207705
0.378415520567022
0.371620806418601
0.370892558466301
0.368749096966331
0.370519517743173
0.366445239631404
0.377889502908029
0.365900571878172
0.362178557200589
0.362924340394441
0.362778631235741
0.3597651666538
0.359173575099293
0.354085680343581
0.356234823923142
0.35578315179408
0.354738704999957
0.352612094365489
0.357796415960829
0.35025822736422
0.351704735970166
0.346752123130993
0.348064896233577
0.345553588799035
0.346811066943069
0.344802015165297
0.346175312053481
0.340161508864314
0.3441301151282
0.339654052008782
0.340432068708133
0.336371880760619
0.337359398664469
0.332027551489097
0.334966437660528
0.335848069003339
0.334392069418298
0.330447721020247
0.334617378056906
0.324679159258538
0.33098697004323
0.329869540196845
0.323750043372478
0.325403887613397
0.328880591802759
0.326204780542271
0.326675540931111
0.325746941604614
0.325938921802613
0.317651477700998
0.323135190911868
0.324311085188673
0.322430563968037
0.320186968514695
0.32020213287294
0.316957576253022
0.320502016346196
0.312405714776571
0.311926502595181
0.317791313920581
0.322473800602653
0.315460012139543
0.317280237891989
0.30561065124387
0.309604786303835
0.311766643283981
0.308688312297821
0.306059250677971
0.30955663989108
0.306187106215164
0.307651734540214
0.304792594904137
0.312563479615813
0.309853080436927
0.308174834915525
0.306370383061938
0.307158544722879
0.308800925438435
0.305972041598686
0.299985498965922
0.304700269965246
0.301788144745642
0.30249106185751
0.301235150824962
0.299879797859597
0.300384964593864
0.302268750494898
0.301272479536296
0.30285770631518
0.293663361736852
0.299831161660796
0.302871497076949
0.296085095501874
0.295720072738311
0.30027378888361
0.296008702923992
0.294475301832938
0.295941957552232
0.296654464798269
0.292403166108317
0.294563164792668
0.289600112670199
0.292876961011336
0.290677521165877
0.290114709285101
0.292229809242749
0.293041241515771
0.29051908340064
0.28865862265198
0.287893948912496
0.285544318253878
0.287352936651747
0.284643852254554
0.281832939886727
0.28700300318621
0.283866480616499
0.278367222991757
0.277980556952175
0.28338438781747
0.279586929899419
0.277184670190372
0.276519501832996
0.276592120771375
0.274516875512867
0.276839967023631
0.275168970321946
0.279998048945556
0.274117774385446
0.272451189563489
0.268431880691681
0.269345581417563
0.269663272032486
0.273160206382695
0.268687717186364
0.271977003883174
0.269905556128367
0.269910029456091
0.267288679695756
0.263788796913407
0.262688915787139
0.261164024071323
0.259811928456677
0.257968719401939
0.257177903272537
0.261415935088746
0.259833407820759
0.263408966381743
0.259826789633503
0.257384445984135
0.254907795389371
0.260258324937918
0.258188364490288
0.25667729131798
0.252719395242254
0.255896876190386
0.252281323815115
0.253750038182243
0.251379834391377
0.251781605749321
0.253416651746018
0.248973759092141
0.245197293111684
0.246642467958455
0.240563097888735
0.238452168076534
0.244555342986093
0.247341913127134
0.234472346118984
0.238298253548802
0.236764761651621
0.237979973989219
0.238564878859693
0.240122092880414
0.234719803852704
0.236863658559495
0.232533362396236
0.230244656084194
0.232007068833155
0.232933707211935
0.231203370351699
0.234162045544158
0.228083052711114
0.22619653818162
0.226042836418119
0.227132456236542
0.223816075976112
0.222738113451123
0.223382953834833
0.221047348534548
0.220897804512913
0.221892722511842
0.218732271809347
0.22005328623718
0.218336086354446
0.219107637173947
0.216535087516117
0.216086496705967
0.213532468887562
0.216243733617816
0.212121373637923
0.211925863036535
0.212288165892209
0.213380255978004
0.213118981954396
0.209550137367624
0.208880592147236
0.214623806928132
0.20858414834324
0.206075314855326
0.204946717364703
0.206708419028535
0.208062495850144
0.204900723727141
0.204551912752586
0.2035106372431
0.198850734855979
0.20346959555183
0.202876810725741
0.203845683059776
0.201425288649435
0.201233562082986
0.200267258571918
0.19899834979371
0.198313596951343
0.195384264330773
0.199449446726874
0.195270658332223
0.195524851006364
0.194581448015127
0.195490064216778
0.193693782802529
0.193702643986317
0.192394699268713
0.191145477041513
0.192678094531831
0.18914530515014
0.19081378931044
0.18874110068287
0.189345940076554
0.188980788130441
0.187638932672236
0.188804128040639
0.188555666418507
0.18387429414471
0.188256933269499
0.186312717473574
0.187794020389247
0.184001615346546
0.181675586048401
0.179828640443422
0.184701076099931
0.183076580573695
0.182244475439623
0.18071112292367
0.182319120630703
0.183321486668502
0.186246000973865
0.179635862469671
0.180404143704445
0.177977344228622
0.17769683953432
0.183431250577266
0.178596945656278
0.178731865478747
0.177044018801992
0.176575184985647
0.178273983391963
0.178626003507192
0.174365373588338
0.172047828404499
0.173831402665158
0.17844457600367
0.179364294352415
0.176607247115663
0.173473575810992
0.174346980058625
0.173854769398215
0.173283822328023
0.173245562744761
0.174020191351135
0.174241986600476
0.172928096926158
0.166994157955315
0.172518773010762
0.173218803863925
0.170622061304199
0.171384069280005
0.171358084813963
0.171601587045301
0.172272587760289
0.1646861075864
0.168088944860715
0.169899918526236
0.165058899202821
0.164860869123906
0.165054417870063
0.166045038165553
0.167500901565465
0.168790106759768
0.164593421903561
0.165789236896658
0.163954104535198
0.162012433897293
0.161398241260311
0.163228401341222
0.162821607451097
0.160598721285829
0.160595184791398
0.1638780034422
0.161088136149879
0.161409601020846
0.159985175767644
0.15967995336305
0.16023350627027
0.160502472840621
0.159401243101869
0.158753487397782
0.159140736364787
0.159893047769624
0.153109627812373
0.157480425497682
0.1589896942822
0.157095795118007
0.154498577958427
0.158702896271606
0.155539648396342
0.158098511885033
0.158846905463236
0.155609700074933
0.153508997957685
0.154524967961225
0.154900855370699
0.152273958247595
0.155807594336994
0.153202513523167
0.150133470927969
0.150015901559361
0.152038148547899
0.154445345183813
0.150585592658699
0.152151382339089
0.151954532905388
0.149611458223394
0.148665034472256
0.149105514034969
0.149185666467192
0.147963274590162
0.146434985582744
0.144025863980741
0.147340531764205
0.143827101472285
0.144820625804651
0.144447183514483
0.1452912682182
0.142837630419192
0.140798547997827
0.142990341443225
0.140898896171112
0.144651436565351
0.14198792151683
0.142420520640843
0.139601046754114
0.137016623346954
0.139512045756555
0.13679711722938
0.136558750485353
0.138239795108393
0.134842802491741
0.137599009844713
0.135213398030236
0.136033082674778
0.13299870807466
0.134007527820003
0.133881817602971
0.134820721774726
0.130831741532722
0.132431575076481
0.1283920941327
0.132363892575669
0.132688889928879
0.133372260834163
0.129832357352888
0.128318686736955
0.131423430940797
0.129020452289733
0.128519897174715
0.126418378175574
0.125795315560838
0.129899182674859
0.127199055660056
0.125978958766724
0.126008537572167
0.124206706966361
0.125618126463102
0.125300061314505
0.124262006002728
0.125932693649238
0.12393633529447
0.123971610023379
0.12009324683323
0.124155374186897
0.122852561495488
0.121922692081516
0.118351851666603
0.120195102361069
0.121827313646979
0.121402084234427
0.12027659258822
0.118413636967661
0.118691195274002
0.116641808755513
0.117764678058057
0.119488861081088
0.116961802038069
0.116850852428639
0.115842557541443
0.117132914191204
0.116396054196425
0.116116010446978
0.112814906049012
0.114341758512306
0.114011027873404
0.112183801522876
0.11294538437663
0.111962362178702
0.114063937117983
0.110235790047566
0.110015627255816
0.112454394962389
0.11017236585388
0.110139628474139
0.109115172794531
0.108028707689708
0.107529565588535
0.11014739192169
0.107436574994434
0.108877774994612
0.109003186578342
0.107154511695779
0.110095469720074
0.109400198320997
0.104227919129953
0.105408274242514
0.10726983441711
0.107691434581409
0.107140842228225
0.10321037018816
0.102528156459257
0.105310855332859
0.105645462467091
0.108005650528554
0.10772245740906
0.105846655358934
0.108356358349427
0.106524105103971
0.106002220553441
0.106490429997127
0.108653640189185
0.1063957458805
0.108020809799229
0.109624021890231
0.107696536494562
0.110199617065546
0.109944207444411
0.109595041903821
0.106794966814741
0.111151701770374
0.103467657721038
0.104375676641319
0.0964242456114192
0.0909852999645165
0.097184021753755
0.0983754102204458
0.0994521667068341
0.092208188366744
0.0929072954133223
0.0957596018212817
0.0934386635114893
0.0992859269356998
0.0913159086478802
0.0915644862843734
0.102441468677986
0.0901442663340588
0.0861251315166897
0.095754522558915
0.0900073957019492
0.101509902047719
0.0910938337631172
0.0973243546597273
0.0964241764054395
0.10140212971292
0.0923215882798197
0.098800452133311
0.0913158069932251
0.0933815312692745
0.0895236090339364
0.0852246541926225
0.0860946517640472
0.0910817371258298
0.087412530420392
0.0974571918810822
0.0896775330358287
0.0930335859287705
0.0883084235071975
0.0994720617801139
0.087178861179707
0.0905520204292126
0.0803972692054213
0.0879865457368907
0.0920270487058801
0.101063100876176
0.0952390481078605
0.0980066193915483
0.0829525434030142
0.0925756547202877
0.0959113925431629
0.107526592224075
0.0870613815869852
0.0898056057878882
0.0953156918944963
0.108997260165781
0.0956341538389491
0.0897126603632168
0.102852321646199
0.0981746139685982
0.100212268863882
0.0897716710308401
0.102582878717825
0.0866747398978067
0.100830240339329
0.0905633670643854
0.0996307881114964
0.0899866426696744
0.0974266072097643
0.0927354698268179
0.0955844829637851
0.0942306549158244
0.0906126103248441
0.0965183123371093
0.0913440632072022
0.0936105302510717
0.0930061325756868
0.0929867639667926
0.0926327630774621
0.0912312897725825
0.0921283287734118
0.0872962297643016
0.091351060170609
0.0906008635845193
0.0914580410344692
0.088657796682117
0.0889342867626768
0.0897356477760829
0.0893731202067714
0.0887740825447963
0.0894042421668573
0.0893178748321282
0.0889603598869549
0.0899465352699229
0.0887361161502749
0.0892838393855876
0.0898479687960973
0.0889427654734066
0.0896572698533931
0.0918083263670038
0.0892643160700791
0.0887060214581898
0.0875096593857246
0.0874409710344659
0.088890691651571
0.0891933226091235
0.0866201540777828
0.0884301643528599
0.0873867337631075
0.0878055583096466
0.0901928656472246
0.0885814007622204
0.0904751675679692
0.0867979370385513
0.0895531996678438
0.0862757380549673
0.088637608043546
0.0865495849582769
0.0890069251333977
0.0901841239723998
0.0884909021249275
0.0873519367985208
0.0880273874825408
0.0882326671498711
0.089485355978811
0.0877492976200749
0.086473506773574
0.0883272436534887
0.0880142191330604
0.0889653118340041
0.0886882198864272
0.0885879632264802
0.0857035169452998
0.0852030477147705
0.087504692821665
0.0862411977040773
0.0844693843642728
0.0853555554878546
0.0880783193389606
0.0883449855084784
0.084802469309938
0.0861879256262936
0.0871703074636208
0.0868815852051948
0.086339328849682
0.0859567260329697
0.0874832170720088
0.0846024396243096
0.0877543843474048
0.0864084444404762
0.087050155539359
0.0886270701505621
0.0865501757085085
0.0863680704084655
0.0847289055629254
0.088966364275141
0.09090434698771
0.0855539888388822
0.0890273941177672
0.0863652528690231
0.0867906699820737
0.0890929678673542
0.0888875484873563
0.0889136677269113
0.0867360508750135
0.0874361325767893
0.0906947600960716
0.0872900990568638
0.0865759549814343
0.0862161986971902
0.0911738200056348
0.0886048922734683
0.0888264612630161
0.0880604042882287
0.0877858323180102
0.0882462003179633
0.0866552945069676
0.0883239734514996
0.0896886149590581
0.0900714249593668
0.0928221890749943
0.0883622649323024
0.0889068006594796
0.0887833791984392
0.088325968559498
0.0877467637636015
0.0908024487303905
0.0907925010082142
0.0909905996301416
0.0904786251679226
0.0904604924138539
0.0893534135997998
0.0897451923951733
0.0861671659639779
0.0879166324740298
0.0899112517598235
0.0901694167192133
0.0909361355311717
0.0871047471847732
0.0876868530933938
0.0890749402012765
0.0908971176527128
0.0883524171866436
0.08929438066136
0.0892233686864815
0.0888874033983586
0.0905080192318418
0.0899190724891565
0.0901010026109631
0.0901563151643169
0.0900446246860449
0.0899767994473986
0.0920149085108666
0.0876568478305087
0.0907312883259037
0.0876434667475188
0.0897170136121443
0.091660988530279
0.0929491254827771
0.0889401051279498
0.0925343298741859
0.091453063573983
0.0940248812919307
0.0916435282534675
0.091018983270743
0.0921053244290532
0.0927673854039549
0.091850462367208
0.0919082315986071
0.0935418357263481
0.0895016990851449
0.092179963219307
0.093697448647495
0.0917434412213815
0.0925767181454148
0.0914877152836226
0.0922761121895661
0.0920480739359331
0.0913057169530389
0.092509785295442
0.0905822841685476
0.0924409871012345
0.0908257597469121
0.0935662073629151
0.0920519584420492
0.0924084353816601
0.0917653848677168
0.0921656243803045
0.0942251247880732
0.0868147198502801
0.0906831174499996
0.0915399261638743
0.0872700439574309
0.0896649158812237
0.0938611564507466
0.0908982471329334
0.0888631040576578
0.0895505256321886
0.0894298147180922
0.0892274688687048
0.0899601138110022
0.0879181350849606
0.0886425489993854
0.0873364189890234
0.0851928069566336
0.0877477762940734
0.0907534438818546
0.0888740365835714
0.0880309375162925
0.0900182359442554
0.0875702221670826
0.0866194038355139
0.09013501292752
0.0859833256987978
0.0859378716200756
0.0882602599990659
0.0880614124464605
0.0873583843943608
0.0879484391788319
0.0865224585483926
0.0859853193787446
0.0875469431412672
0.0878552398946457
0.0860265867273759
0.0853152049639192
0.0868820588708791
0.0870281423875308
0.0877344667839652
0.0825668490317691
0.0842572470625347
0.0871976569864575
0.0850579448388716
0.0851497115611537
0.0855888831058459
0.0859407897897419
0.0871736515132212
0.084996321630978
0.0857061795150838
0.0830464218791731
0.0873896110492882
0.0845817007999526
0.085002128350632
0.0833417616012825
0.0855718335776812
0.0838277142266652
0.0849794988077656
0.0834786776225089
0.083809923388519
0.0857042884627517
0.0863560012966383
0.0855933733217938
0.0847874280641062
0.0864952939037308
0.0815410631329217
0.0822807833000789
0.0866803184131093
0.0844047921573203
0.0831378842347513
0.0823447126835843
0.0826762873635982
0.0841282874542348
0.0844480857436676
0.0835491710085404
0.0843049289757111
0.0830147539143161
0.0840744006654923
0.0852832706499485
0.0802367927738404
0.0838324992002592
0.0850287487793026
0.0863137563230129
0.0863132097350718
0.0823223150693043
0.0832325984422881
0.082461080144053
0.084132203624633
0.0824163262389416
0.0826804462742487
0.0803648283454072
0.0823912269707572
0.0832915063108562
0.0834198442938226
0.0826276883925061
0.0804644186130765
0.0825181965031731
0.0824371332549974
0.0814462582271919
0.0832572010472814
0.0825242605604781
0.0821996558034307
0.0813841846218828
0.0802176510630896
0.082015741068799
0.0809207785270095
0.0799528664942893
0.0850712744432906
0.0845959673494759
0.080504716252578
0.0805459443840375
0.0814674750540056
0.0832270251487474
0.0787399377832896
0.078953273344231
0.080290839051822
0.0807494071698733
0.0788740994099082
0.0793734822839602
0.0804002459159195
0.0799573931554124
0.0790755609111242
0.0801151926678929
0.0788086198311035
0.0778254879874137
0.0786601611530015
0.0776019894939373
0.0785412761864233
0.0777482364341012
0.0763794942961216
0.0757813911926779
0.0775877692695567
0.0777432855946161
0.0784793579943855
0.0824265088325012
0.0790801170515531
0.0758717453819475
0.0764888616478474
0.0743809785437602
0.0750334701043108
0.0738846650140202
0.0743901782910373
0.0750602027371313
0.0739387817269886
0.0745650382173915
0.0737974060791305
0.0713632465691277
0.0724362839471231
0.0715688266429278
0.076065367430956
0.0713534906527134
0.0743399094683557
0.074243890896934
0.0751897551286454
0.0719081596602446
0.0725326013653259
0.0716513434639222
0.073968052984522
0.0696836475696061
0.0765434179324656
0.0775720710683227
0.0897905419942815
0.0726396144963822
0.0743280985199397
0.0769329246737079
0.0761332236402128
0.0709920607939737
0.0718182793979271
0.0714982098706123
0.0717480429877792
0.0702193608428859
0.0719946473330158
0.0712060569402778
0.0710711171834115
0.0685325828414099
0.0697858365571371
0.0690988035304724
0.0725679813877701
0.0706299483413876
0.0695367141806675
0.0686934147156234
0.0688652659032262
0.0691115611949651
0.0702621140057777
0.0681991704751723
0.0712956109646334
0.0691979389581186
0.0783428239259496
0.0749140932335453
0.0709679621968475
0.0706069181400367
0.0697846642632902
0.0696676761619649
0.0688782442698399
0.0699620144444688
0.0665837068407302
0.0686161278702253
0.0684617791791707
0.0676906009082017
0.0681381994161184
0.0690019013361975
0.0700382318036159
0.0669197088353539
0.0695580003841279
0.0674472561814168
0.0666035606327617
0.0681231530891507
0.06574348373159
0.0661640482463602
0.0687014610883377
0.0707773714684565
0.0676963414423704
0.0665356148772559
0.0749662658918352
0.0937195745442987
0.0688306745172045
0.0691380102461998
0.065131822631671
0.0660024220542266
0.064988408142336
0.0656580181122183
0.0648594310898487
0.0623164386322127
0.066062431210552
0.0681775336083913
0.064794318357465
0.0673832013453549
0.0676403376385923
0.0640495099603111
0.0647814973477414
0.0650330052395029
0.0666269468376024
0.0649187508011671
0.0648859484350716
0.0726731913870182
0.0834255052303943
0.0756952472178454
0.0663706132423225
0.0673988736557106
0.0653862801011764
0.0852855654428325
0.0789768637754157
0.0582208820603727
0.0730843720638154
0.0610600795845869
0.0687061789194752
0.0617545241211256
0.0686394115889005
0.0645401137190031
0.0778298379358664
0.0651716481583551
0.0714752547371647
0.0630697079687796
0.065177663113747
0.0628998929311266
0.0680468830881787
0.0646266715325342
0.0652727296327066
0.0633678181606075
0.0645290327035714
0.0637823273895992
0.065120808564032
0.061226290466331
0.0674523315020783
0.0689466829926305
0.0778236493858097
0.0616578890671655
0.067589645387469
0.0595254680796813
0.0677408997076664
0.0728752391218704
0.0885839012221946
0.0635493069954557
0.0670011456910429
0.0662393886122628
0.0669497270115474
0.0652577222050897
0.0632785148593358
0.0644639930892259
0.0640396849856013
0.0641960678602621
0.067466388814435
0.0655604846231232
0.0641878487461702
0.0650638084622785
0.0637189698686801
0.0641364097371175
0.0643779487487931
0.065100877106332
0.0648990733108393
0.0675587201064641
0.0738234548054586
0.0825775905397824
0.102228212450321
0.0779956116116526
0.0858458983292593
0.0669974076878475
0.06718039646049
0.0612998497229077
0.0652623243196648
0.0608118971422067
0.0684412786626659
0.0626342736766033
0.0667940402261159
0.0654549250721059
0.064999898714533
0.0606370420600045
0.0676546042651752
0.059539075804401
0.0654471499058485
0.0632375998111646
0.0667032563925036
0.0629966249262445
0.0635924621495315
0.0648070866379965
0.0737948422810354
0.079315192170515
0.0664395273560668
0.0812479474674433
0.0891049917344317
0.108289946482122
0.0684569829982347
0.0773492659814772
0.063314065003145
0.0646202602521789
0.0618790762709349
0.0676545128058566
0.0724407959486331
0.0679632351043583
0.0627201569232155
0.068213084415575
0.068789085185777
0.0673231635206316
0.0698165260525395
0.085986773892219
0.104600774589734
0.0839790067534637
0.0652430617338407
0.0698176204036868
0.0764072716140536
0.101705493314056
0.0742218457281511
0.0659958297128689
0.0756000614645708
0.0633058959976489
0.0702372962486928
0.0620294183840004
0.0738908931512699
0.0749762295043935
0.0724637492816904
0.0641782476407393
0.0676107276315155
0.0645284758311788
0.0722155284410792
0.0748615061331722
0.0821091804715219
0.0801857717117452
0.0724863305376731
0.0722615776646538
0.0788748869591812
0.0656853539743416
0.0742906448960337
0.0665193905269777
0.076758669977483
0.084008656344381
0.0938624057883615
0.0794170326134625
0.0893495724847635
0.084560677719113
0.074204587948688
0.0740864722195018
0.0947348591149223
0.0711583002753291
0.0855504785599221
0.0755951653344864
0.120957874733887
0.095049141199075
0.0980494918270767
0.0777649084109161
0.0721765857051645
0.0757553001952161
0.0688750557923038
0.0809265037068202
0.0828920426970595
0.0895231029253915
0.0630200139913303
0.0864958963701306
0.0786559547440812
0.0994390971645099
0.0749489881811042
0.0847127227239362
0.0720381848218116
0.084284278360378
0.0850164409964104
0.09172804158658
0.08362047479032
0.116748879198814
0.123631085245304
0.0947604292848647
0.0927748799648121
0.0875774196996722
0.116441579256994
0.0936634522636115
0.0740291249659283
0.0887022160996511
0.0752685441317052
0.0876830199711004
0.0870642052258167
0.119065090532109
0.0974263829674588
0.0773282521187446
0.0879301797590434
0.0892398300223804
0.108639686663716
0.106261973130959
0.0789604291129062
0.0911199645573392
0.0824579318022131
0.110642210349186
0.114800467602538
0.141185441309686
0.0942703208556088
0.140927604387478
0.112799184154521
0.12040374591654
0.101825857499208
0.106781224846829
0.116764252960207
0.124799200321537
0.0979265007287133
0.107298785559994
0.116307003665409
0.134117831927174
0.108783303377638
0.103349081669851
0.112236051259548
0.113883546617087
0.163168158298229
0.193418025660923
0.142880753847613
0.118282769679065
0.126459208153859
0.145654390431332
0.127552722156482
0.112586221105411
0.117103098171114
0.11300698745356
0.113289363578504
0.122758887933391
0.126133031356703
0.126809334018026
0.11906813972913
0.127781523507307
0.127640522252913
0.179539056222454
0.190094351916466
0.174261137830188
0.167264986090835
0.162777780802437
0.173238645653848
0.140245234941105
0.143041514318905
0.132248978010775
0.152342938397732
0.144581413035859
0.141870900267357
0.153391604915614
0.167412127961658
0.180750217749354
0.168394713061429
0.185048370179118
0.164560336823397
0.169644810763319
0.226060268082531
0.251771347666404
0.24942600257198
0.166701062515997
0.230773218247392
0.209102310810188
0.289248389498566
0.21984643281005
0.21688168454419
0.217191112705913
0.227212237649442
0.233166395451027
0.259977691703887
0.260526032644574
0.278940514290143
0.262786887152755
0.287047248777918
0.286579475695751
0.420265780538188
0.356221791075935
0.329996579750829
0.313887582842389
0.349175478635738
0.340269224943731
0.338562344341145
0.327166701183892
0.35841662784192
0.356072875002808
0.418213848940678
0.379948982348137
0.375950658821737
0.407935506693331
0.411168619394742
0.438914640125247
0.43173689730625
0.487749110764317
0.428274915032283
0.450565421260454
0.439594149067933
0.465140043334598
0.482329684224892
0.508377687437968
0.50885393363935
0.489892334703967
0.504371918121874
0.506057364253075
0.514111390927775
0.522822583064474
0.529980571200349
0.546181441374624
0.587000434036753
0.688605691589742
0.667937589931318
0.597459519171364
0.541659748865556
0.556018015000314
0.559869971380272
0.581853730437119
0.61156298395095
0.59478218230421
0.605124841761331
0.557988405073216
0.563316311078887
0.55733163856748
0.560232151738958
0.571478861642807
0.555033046369513
0.572610760747804
0.568698038285327
0.600912064696099
0.574859882893286
0.647883530092318
0.566918908697018
0.56324552624362
0.560642423413334
0.548918170402892
0.545941647898107
0.557082707052407
0.569195233206507
0.566463398148045
0.555303473729331
0.525094867429948
0.542697139803294
0.544320547174482
0.556485406099861
0.506951397466932
0.503789591641377
0.49374157223848
0.479447502552148
0.492233630415433
0.492658876258435
0.528582699234429
0.485643810366122
0.453434505333449
0.459424594834476
0.435815660771146
0.448665180530218
0.441292767283183
0.453317673779115
0.438584701725041
0.441632396280156
0.434444167824329
0.434396074325381
0.424192119246309
0.435629938187686
0.422455971074559
0.43575257772323
0.418217192699306
0.427152497260009
0.42304827118304
0.422886486037493
0.415428676222909
0.423750394648413
0.422645849906749
0.431950157905754
0.4268637354612
0.42709355377712
0.41937814735907
0.428112426526358
0.416826770020495
0.425849689560508
0.419148689127989
0.426832178153632
0.413801697285377
0.417308804847488
0.413718103005501
0.431383836608033
0.425165584975195
0.42625784886876
0.423847688261612
0.425755282752994
0.423657759739975
0.428066878215998
0.44729147036223
0.468295580216307
0.467186163334737
0.421835654141916
0.428301622855781
0.421206255714114
0.410270275561517
0.431974602238812
0.454499008597486
0.462290109564997
0.41001630109297
0.41126334644967
0.413665653253275
0.432521980251597
0.419849772834367
0.41793000624217
0.400465741482932
0.433288115181281
0.428247681680318
0.542314994483844
0.512077105068165
0.526727359748035
0.432479329147055
0.421686146764692
0.44401480444814
0.450010022020352
0.419189519970075
0.402254758595728
0.425022739185679
0.450874616972342
0.444107750039061
0.415529959774394
0.404863354757917
0.414784849540336
0.447758767951943
0.449665780421398
0.437869322448687
0.451211692993969
0.461185150989445
0.455601666601773
0.470369596141698
0.506448186313114
0.426498869313661
0.403985535580867
0.389067490004855
0.393412988335764
0.412974663325251
0.429782348492123
0.4067479037387
0.390785067910752
0.374099177823356
0.362756601016807
0.379710262553227
0.396659316755524
0.372284877742472
0.390138697971705
0.378515323260233
0.380826318321036
0.358489007560126
0.401352787668101
0.404280701947306
0.43301160810801
0.351379156082795
0.354755454424394
0.387119932728991
0.391628846030019
0.360806422196541
0.345903636418531
0.321498658092115
0.341582350646356
0.329472295163354
0.330060759137546
0.331524819343437
0.358552101479428
0.371054645195522
0.386304984181987
0.419274246721956
0.366611250434208
0.305311575553287
0.288491416839142
0.279763478480476
0.299372230171786
0.269179232584634
0.29737193126713
0.303010229472037
0.302523585261605
0.292294020230999
0.324995472089976
0.301281413097056
0.275652685112286
0.275291231305403
0.278210105128901
0.289260592465224
0.33648228558261
0.33454414058339
0.314016906380922
0.305348991357656
0.317900844905054
0.300917496662112
0.294835184587251
0.296289822702978
0.295334821724904
0.309927033367515
0.328747441583822
0.318633585436618
0.32293247071948
0.319727862188774
0.336541495948342
0.378865240540704
0.366483104980633
0.366651489908156
0.381438789100386
0.426948673365523
0.428790696223611
0.40359937660421
0.38884093152019
0.396254597950875
0.402385825951782
0.402212381834171
0.414285477063172
0.437294819522626
0.447776292238303
0.435132027330251
0.422214840622069
0.437044509193158
0.433174216286845
0.460633960698451
0.484369381475862
0.511338501736651
0.519231364886565
0.527781746801094
0.50190245901371
0.474229860686903
0.479566036763287
0.476274762294147
0.489653289080328
0.474897486382849
0.482343073388812
0.496766127310708
0.51683652790207
0.493000934983888
0.485544693566554
0.487059763509708
0.492259275830156
0.492435128205193
0.503469770498596
0.497323627570705
0.505932245584577
0.506568267414495
0.505748677101264
0.535952167429282
0.587045886591317
0.548329405176992
0.519388143321749
0.536902752508068
0.537450684727765
0.528490334911247
0.54623256724449
0.559367794836703
0.55631439939678
0.545298564802455
0.548375159734744
0.551837510108114
0.551928100217412
0.592085806117402
0.583918853744992
0.573336505540138
0.565710695642034
0.586508525580551
0.622720508740959
0.632701990989511
0.615868761408552
0.605923573637798
0.603708517838188
0.587491742966889
0.602239910932941
0.587525231086351
0.604260261360781
0.594042651257165
0.602917272773125
0.601292539081393
0.603172023707876
0.595529059562445
0.598232372289601
0.609316996061106
0.6253555916169
0.611710938345133
0.595052413119449
0.60403884160419
0.601598690731492
0.609105152981719
0.62224666191894
0.61956298694137
0.618361013908777
0.600784708499451
0.623123066200625
0.623945072173752
0.619580017744529
0.598078012316443
0.59180022615911
0.59689793900627
0.596682707187384
0.587971344106152
0.623775032631471
0.634318930669394
0.627701733629351
0.609057789240988
0.608885974168062
0.600173494474791
0.606696539501216
0.601590722640813
0.614548378811792
0.615649977920495
0.630242342099648
0.623061939440044
0.624988561788716
0.626463138758394
0.634123515223196
0.644460367385916
0.646177011818771
0.619587650182787
0.618220355535586
0.613385986499016
0.619258038883004
0.610574641646817
0.612915765055562
0.586787678100749
0.603681453471346
0.582998828153231
0.608828205254485
0.622620882340077
0.596800107894356
0.586400329743549
0.583192004606729
0.563414178486174
0.563210374029731
0.564178478749247
0.561761044876383
0.558694631019
0.558413213774383
0.545255702015483
0.546842460392522
0.538312223683155
0.54062385540757
0.541255865813012
0.539023267360278
0.53544807735128
0.54111793825459
0.534151876574162
0.534659706322946
0.532188360673933
0.538659689665167
0.527965621719537
0.531169704625743
0.542745638370595
0.562026218075826
0.561667588547913
0.543152278513303
0.546099407807502
0.531689244236845
0.523694784820397
0.53201257107266
0.526881018143821
0.529301128440353
0.525603273631818
0.524425977423329
0.526699834432981
0.531031911719736
0.524196684618613
0.527897262971354
0.531531689262157
0.528214192165164
0.525871461210026
0.530220856240573
0.525019331766037
0.529380087673289
0.522837430284466
0.538223574226124
0.532091383762748
0.535928740783984
0.523735165844596
0.529824490490766
0.527820514900566
0.538140421070343
0.530732227472095
0.530192796618772
0.529472398648938
0.532982105752879
0.525667073749989
0.531474495507104
0.522815362661577
0.52499438625247
0.51765561450305
0.522666059502524
0.515494277210176
0.518232497104224
0.51101968924775
0.511203462171826
0.502218665777124
0.49930838343287
0.4957290823325
0.50167446933648
0.489417029566393
0.484465496803617
0.478208600737972
0.478553628122339
0.469708522274703
0.468974874282109
0.468260025350283
0.468946039303262
0.463086870654226
0.460522850376568
0.455470927342403
0.459816654735024
0.454098631503295
0.45697658963217
0.449916976570487
0.448801825996325
0.453192776040986
0.453315574758401
0.448763801246347
0.453724490846084
0.45103605539474
0.456613368563401
0.448528342372112
0.454705340741271
0.455221267975363
0.461766271794542
0.458420702869443
0.463643547980562
0.465790816054937
0.468174608948887
0.460906176554907
0.467575863443583
0.467993572696528
0.471504279358452
0.475322316299283
0.479572368694774
0.472888957833887
0.482823968258691
0.478889056748223
0.483822151602506
0.480963721558897
0.483345326879304
0.481290837079368
0.48589400490745
0.480181474720164
0.483803105104949
0.483367163599512
0.476639474551181
0.47582783224712
0.478390082689598
0.474261844366459
0.475946859038045
0.474133269752583
0.470697087578016
0.469588529679392
0.471937560438945
0.469364263410307
0.471662912332551
0.467674965335441
0.466270680615982
0.462445146191494
0.465399828917778
0.458443819791552
0.462050947866052
0.457898514634233
0.456684225073013
0.453400001292599
0.455652662156965
0.451328704319414
0.453416064206608
0.447122589919772
0.447254959753168
0.446733484073593
0.444456187264581
0.445379042845286
0.44535313237506
0.438875287592793
0.442936116534907
0.437613978579218
0.435510961319452
0.433884223486655
0.432071999078509
0.427811274416219
0.428222210634894
0.424590782028157
0.420342051705691
0.421789635273755
0.419133948922274
0.41082871758176
0.40992172128807
0.406107765433503
0.401147419833321
0.39594620197439
0.395665986814657
0.392992902947615
0.392824472768351
0.385793136764878
0.387537820526967
0.38930855721696
0.384882627704413
0.383667734444765
0.385810906745746
0.378945801032345
0.382362063459829
0.378861558258571
0.379968208394336
0.373154262047244
0.374945506488208
0.36968535063202
0.367194431984504
0.362185835839703
0.361433986322378
0.353566773646963
0.350707867470822
0.344907304930042
0.341761013659634
0.341006736010654
0.341229899744621
0.338493594194702
0.342454424594487
0.340635931933725
0.346633267218425
0.350687806369904
0.358756376372772
0.368566675564894
0.377190009487093
0.387895746699442
0.403823690953404
0.414129572146994
0.430801576386491
0.447753735589243
0.465203885063145
0.483783083285061
0.49810045882616
0.513665816884903
0.537081700634785
0.551844581459952
0.5670995774471
0.57428531478201
0.595568326801786
0.613361774958969
0.627787275780338
0.635983110402375
0.651400041250489
0.668687650763499
0.677951594722104
0.686426969987878
0.697098313884913
0.708668887558093
0.725846487892277
0.730518356299373
0.737503432177146
0.746580024531441
0.748624932038904
0.758954055672986
0.762783017376136
0.768350756791025
0.769737913255443
0.771659602854673
0.774505546807539
0.77635384973862
0.776450792628716
0.777477167550844
0.77867882218484
0.781848409439136
0.782870788955355
0.772316004310278
0.788615086690361
0.77978947863793
0.785806276819054
0.792155965287041
0.800630625626065
0.799398252997367
0.811437892638024
0.816254012151199
0.825000110499178
0.825625840745729
0.831654982297414
0.836576529594985
0.852555159873259
0.859079513722428
0.865446060277847
0.879078814416337
0.896997983909376
0.902985893228247
0.91596386100021
0.925817522075777
0.935495797776169
0.948711763897299
0.96302434034035
0.959575866404389
0.980113052625355
0.976143193506955
0.995905209611794
0.98456006458023
0.986268066932667
1.00160210750124
1.00387227417333
0.992771432646705
0.982714096369569
0.976894301689251
0.983973851057469
0.961295575793909
0.971035446764167
0.977881592369501
0.977460868632775
0.996703181961109
0.999640389067435
1.01181322509787
1.01878047834219
1.04209604228853
1.05311270052228
1.06114949702596
1.08780195653143
1.10533656365086
1.10285199754889
1.12036446406656
1.13118307867528
1.15246155258562
1.18916145437044
1.20462388864408
1.20594549150804
1.21370523102608
1.23739599210443
1.25506466100773
1.26127101687066
1.30815700686769
1.32971661420634
1.32440325787348
1.36555464220209
1.38645331497875
1.39696027888941
1.41671571242957
1.43267013815495
1.49203869664049
1.49920374415902
1.47557262683634
1.51980019669834
1.56131106468235
1.53854389918161
1.54753859083297
1.62314942350586
1.59976862904702
1.59016637861572
1.62561896446131
1.62078170744694
1.59240814806078
1.58662881774447
1.56460657029794
1.62883675736547
1.57609155822244
1.56754905413614
1.66414415978604
1.59662880541978
1.5945695356264
1.56516683803903
1.58235751759672
1.57723363034969
1.51765932975456
1.61557919476257
1.60967236593393
1.60533588275938
1.66396432900345
1.58818484338198
1.68530697659718
1.66106214825406
1.68964107988024
1.71260814210895
1.73551260509398
1.71292172894118
1.66642497902715
1.66353813492671
1.74071223360585
1.70186361103237
1.79038086979451
1.79420923049562
1.76155979611916
1.79478012745255
1.80660945857506
1.73403305378705
1.73954522767535
1.85115713958332
1.8063158321672
1.81251040543376
1.84124882036422
1.81536477885379
1.8566690396667
1.72108793449676
1.79641165545121
1.76980199658267
1.7495196119224
1.78024325951341
1.84718412112393
1.76286682558687
1.78498150421346
1.76703704706332
1.83056215305992
1.74003972678486
1.75233211302857
1.74241350192868
1.74246090534609
1.74112545233256
1.72969320388532
1.63571787634682
1.65675755973413
1.54394597174308
1.5465474243756
1.47207221318797
1.43825682116326
1.40520355742743
1.38359330940612
1.31151643769154
1.28229412115311
1.23276922279972
1.20679242320443
1.1887194741188
1.17286703217629
1.14656633644848
1.1371156211755
1.12719847058758
1.12129792149023
1.1141377767619
1.09921760143184
1.07913297154963
1.09410598460079
1.04452617357052
1.06217413323583
1.04031924146711
1.02065658034517
1.02994994829381
1.01602483376877
1.01233348687041
0.967540687876438
0.948472219642832
0.925656314578513
0.907960364921209
0.877728319698178
0.864001650745
0.84138092382059
0.799206060780182
0.779902832264824
0.757522860982977
0.728197575225117
0.697921002267975
0.663265070065227
0.633653972921575
0.608238591119128
0.588525520054081
0.565121784036623
0.53617019194899
0.520852821601784
0.496815619868349
0.479130633949541
0.459337673946595
0.451980830168535
0.435396233721231
0.423625833492659
0.416999781139346
0.40517069440832
0.391693005444305
0.391570477481417
0.386871705154337
0.386843116988472
0.381325261497208
0.382181401375296
0.371130303495273
0.377447141729664
0.375825968142527
0.373293155582648
0.375129762805933
0.374983209714977
0.379818433908712
0.379671336103016
0.379089465038829
0.381129221533911
0.383305519133837
0.384245348504154
0.381685394523366
0.378040054036204
0.373542354881828
0.376510557819298
0.376178736255794
0.372636239079249
0.360515141999948
0.367659980748541
0.36076441611576
0.359658084262685
0.354558325741535
0.359390770006992
0.357528738760233
0.355322428226872
0.354188555196649
0.350736046770752
0.360552446010064
0.365571541454068
0.361233932558368
0.368789715981084
0.361946348375582
0.369409718378548
0.375037680740095
0.374169188400564
0.374950215168849
0.387209836584971
0.382319508104307
0.380354327694677
0.389576741309067
0.391756976095393
0.385371072401532
0.397951881632721
0.399372059976608
0.393068252427135
0.394442706138866
0.390329492836347
0.390365721588828
0.400309892956648
0.398717488835983
0.40196908827717
0.401495591386437
0.408277561207507
0.41234612685835
0.424317478534511
0.423377192962316
0.427586925380841
0.442177121785794
0.449399955112052
0.462754847748137
0.479303450744841
0.485239835235598
0.504632406351861
0.509363693662019
0.524984724285869
0.522546884626303
0.530880652141925
0.531135923709151
0.540648591637838
0.521557039747895
0.517146805431984
0.515583923525449
0.502099404322278
0.490373259871888
0.497841542500417
0.475358372809541
0.475236869501971
0.461048343372452
0.465265811079749
0.46040647913061
0.468715683122665
0.458919350040381
0.482097817724489
0.468141623684864
0.476768350685526
0.461165415826979
0.469887633160271
0.470256167892364
0.459327951072657
0.452544114874297
0.461220950747791
0.46377450880826
0.44539969768349
0.438733912844695
0.436102372164498
0.434467733180505
0.430583666761706
0.420183012243906
0.428640365566668
0.418976768841433
0.414246327546281
0.405006149017708
0.419898447735852
0.406971016328821
0.409645680840518
0.413110004951205
0.406989138062845
0.410035061623622
0.40420673644748
0.393916747541486
0.39476716501206
0.392939147170891
0.381994134083396
0.38209440718052
0.391358278236177
0.384343235788365
0.385549205509503
0.376003196234486
0.384245321800441
0.372872661189741
0.371985325108238
0.363796990344634
0.358784078889544
0.356097707682116
0.362069964662154
0.356517418575465
0.357468348219382
0.351331389658532
0.35283001162859
0.350251309816452
0.354258431208221
0.346885321809096
0.346910635845254
0.341152599233102
0.355930057611399
0.335592149677563
0.35192400011312
0.343526880636208
0.36416814114157
0.350709673115605
0.353061904602652
0.34820797709811
0.354153099095226
0.3495797727389
0.363909010010414
0.356662464904448
0.348092583921199
0.347220554186105
0.370165138190243
0.361970684726139
0.371292266584218
0.366442938986235
0.370743744084575
0.360892658408997
0.370378254749455
0.352579037038698
0.393788139052435
0.376440979465685
0.381670301959445
0.384734971864428
0.412127417968769
0.402766761142524
0.408100630851988
0.421875860277353
0.42975746666392
0.415689315467359
0.428822419933007
0.43224896788084
0.466384723964582
0.467251322965766
0.493937067867173
0.484870706075919
0.516328272657828
0.51566633979448
0.53523879005925
0.533899318312011
0.58466260789668
0.569027058788455
0.600688443017297
0.593766014057922
0.596959456940435
0.617393082649343
0.656465885752674
0.615526196767585
0.63830326037801
0.645497354172503
0.635477129731363
0.623144227049197
0.640545972469466
0.615195264098626
0.637253615145342
0.622574623120267
0.626201839590869
0.600600222210181
0.631878865400011
0.600487332133931
0.658639037794923
0.628794735288617
0.623126700711551
0.560282685817228
0.619706448672413
0.604094921255301
0.585494826597883
0.594579969963456
0.578810463390005
0.572142925309817
0.570110893959928
0.576829272938357
0.580815727784843
0.56369797274705
0.585697193956472
0.525054651794396
0.529798554984058
0.566152447331685
0.563964466364066
0.51955918005782
0.527204359931367
0.546724945803122
0.553731958728457
0.540762546653896
0.543463785081638
0.541517270505832
0.543216266503716
0.524642833966275
0.574143426413548
0.555628851342351
0.544072396004593
0.559885097075429
0.553086816659757
0.525582464713679
0.559172400264075
0.519751713794769
0.57492361392826
0.564713087832357
0.567865640821901
0.537885525728584
0.513751599693796
0.537795162514371
0.601542556297324
0.555430950955325
0.600272986436729
0.538802330294715
0.593935511096782
0.604189182010352
0.571784952933812
0.541180369875128
0.621470997775302
0.58830538602796
0.625758859586509
0.654435697013752
0.668539541226487
0.588221467847553
0.614649309520521
0.603841968059241
0.661456564103929
0.604026259739917
0.675277974071851
0.634796571757049
0.638316605950032
0.659700104529536
0.747468462200312
0.712481959452566
0.708776463880804
0.706796587935668
0.732827926236633
0.68193657275798
0.782682868966464
0.79220789296957
0.795191560689261
0.849980379627013
0.851846256250445
0.678937231043596
0.881607533334694
0.750827812161584
0.766062084031435
0.689762466211068
0.763588724710429
0.729366436157765
0.896302406199708
0.762636645181972
0.69772148231257
0.669283439420249
0.846606372160603
0.744743763606317
0.69003080146804
0.753546539983597
0.754524582477306
0.781586643836594
0.774066427794047
0.689503862323905
0.72037714084145
0.624617110314618
0.824747999654978
0.633503510295402
0.629902310827727
0.664603761602667
0.695326436798509
0.823692187830987
0.730557175256726
0.568374855506015
0.735037629672184
0.691861406172458
0.852197013635739
0.827981854139554
0.781825556086179
0.852683619051488
1.09818393777626
0.831247762293997
0.805975826795271
1.96631123147648
0.951555887250561
0.720033751874315
0.678472520344222
0.53195093299251
1.01694148511634
0.778539882079546
0.771863074687389
1.18890753727065
0.90219743856046
0.580424491784446
0.756356733000025
0.52268405048464
0.604065761021753
0.572716237463265
1.287043936341
0.831353144175188
0.590042163832246
0.618294409248493
