3596
4000.36533379555
650.420452594757
1
2
2
0.046299802961959
0.0434041375163868
0.0428633874334304
0.0401615356697705
0.0378685485527302
0.0405479605046954
0.0443945260651808
0.0354936206357417
0.038140587011448
0.0375353840768525
0.0371294848029338
0.0388381723911133
0.037856563916141
0.0387932073737915
0.0428969592525319
0.0442251146142071
0.0455455704153738
0.0348317580802777
0.0361618316453983
0.041890522963204
0.0438271486127304
0.0375648093669829
0.0415794984929814
0.0374832678417157
0.0428972405781222
0.0407782256237104
0.0447183824524213
0.0369806058674593
0.0465008802237268
0.0417587829197964
0.0394382729877066
0.0422539989897878
0.0396210816602911
0.0409912700665397
0.0384303239463349
0.0416163653502691
0.0453306658575551
0.0449232288839951
0.0428052558861903
0.0407864606552111
0.0446705985748485
0.0427993359357497
0.0376759438492761
0.0392201516405952
0.0406322031417113
0.0387649770113851
0.0403032477439235
0.0449446283459705
0.0459888074441992
0.0352710110576652
0.0410711016481419
0.0374228676196221
0.0411832113247166
0.0303339936547986
0.0494735589934806
0.0379702932002688
0.0425121390939314
0.0353719162116571
0.0242918935998594
0.0348829648173159
0.0441515556132192
0.0357983807916804
0.047692606543735
0.0423160447710921
0.0356718795174207
0.0323725101367369
0.0348936272879883
0.0290172949196989
0.036441267009335
0.0371211104800145
0.0412947130241553
0.0461127809226177
0.0463338873144732
0.0362913614783058
0.0419526885277175
0.0370411030784501
0.0415903853826505
0.0430491852857517
0.0344227134262687
0.0414500966841972
0.0398805711993319
0.0357242774292757
0.0369090088202926
0.0350650670367003
0.043855861468932
0.0310271950056505
0.0386752816672895
0.0437758477743087
0.0439410011033051
0.0315233296736905
0.0312453026503656
0.0394074789298981
0.0324400010987726
0.030529593793764
0.0410278272555713
0.0412627160767601
0.0329109461316054
0.0341619239959843
0.0311789249810766
0.0316371531433069
0.0314089853800169
0.0470931412617125
0.0339855971802394
0.0309472959538491
0.0417779997081033
0.031534819707389
0.0446589685500859
0.0366317974999681
0.0472904735647237
0.0401750418592912
0.0335039957876741
0.0319552185176373
0.0388468453550959
0.0334495951784725
0.0365040288724874
0.0379946230339142
0.0411117268754627
0.0380842672541164
0.0372808820871079
0.0292692867576954
0.026432005225854
0.0335774492031282
0.0339082041770248
0.0375434642336393
0.0294581445936078
0.0275441053591659
0.0334597173267583
0.0526193571798141
0.031967889897695
0.0434042793211412
0.0337474778128724
0.0368249975471123
0.0342965272887987
0.0327723694886217
0.0243908865476437
0.0328168887985493
0.0369053777540916
0.0352256084151216
0.0564131846311172
0.0357749906633017
0.0407754703035337
0.03513316841705
0.0212687354905179
0.0388653116788296
0.0434745749718094
0.0327699635578644
0.0347689446696654
0.0395392755469994
0.0246600609019482
0.0360205579067611
0.0355827119117207
0.0325608168693433
0.0405774132465206
0.0322067674295005
0.0276424258629484
0.0207563564452507
0.0230621809431634
0.0566113679550532
0.0258227210580579
0.0325504147048239
0.0279361063230503
0.0323130586067905
0.0300362430040111
0.0309086055278129
0.0361317662997226
0.0340846804041428
0.044209100947744
0.03190380211033
0.0286392538541341
0.0331431321281317
0.0438836710331641
0.0319256018014681
0.0328636608735244
0.0478468363078245
0.0354018764292457
0.0386440887875719
0.0369906399148733
0.0422178417157811
0.0296979504006468
0.0412064410212051
0.0373471504645561
0.0412298326551636
0.0323489738466764
0.0381343090634218
0.034269309114673
0.0386471482952221
0.0318325086158997
0.0386904163087448
0.0335234883265892
0.017840660657701
0.0358905113003367
0.0393768016927958
0.0348245887710429
0.0333572758247423
0.0267245214036827
0.0284073863816581
0.0461557250996371
0.0290436214632363
0.0394397291869388
0.0328260752921336
0.040572420290151
0.0341883962320186
0.0348054005751366
0.0365540582992108
0.0351510739028075
0.0339860132380721
0.0322337425597649
0.0340965527403113
0.0335211468637055
0.0255952594693698
0.0270992574775271
0.0346978678926842
0.0543687861742512
0.027907450982473
0.0452841466164829
0.0311176741196799
0.0393919169543776
0.0474252523324485
0.0346967834206886
0.0365750438309162
0.0376426339495739
0.035793406519866
0.0412895300612001
0.0370536953528318
0.0419323764358337
0.0428407502243253
0.0297171105170425
0.034267730669908
0.0369674390143521
0.0393134452590962
0.0353191744104098
0.0330804095426078
0.0347352137340693
0.0317100684589457
0.0341928618975401
0.0409062244087385
0.0415775245674723
0.0413885749511856
0.0310464063121096
0.0372737798399232
0.0412525980356197
0.0408654793859404
0.0359423234934762
0.0312078138796759
0.0364954172980875
0.0403139007381727
0.0413455470321399
0.0358795366116352
0.03981066724075
0.034273312425514
0.0502461983256718
0.0335001136060634
0.0387684653132227
0.0301571587511411
0.0421413668853975
0.0377489356418969
0.0372093294871908
0.0340338669558007
0.0379964399473216
0.041102106373494
0.0351904567734364
0.0298354483424858
0.0464448675124279
0.0281253627046546
0.046036959800711
0.0404481034405799
0.0352827156765129
0.044252304322505
0.0371331360802865
0.0328155634148409
0.0466917503129915
0.0253817632457066
0.0364032169104197
0.0365421760067299
0.0425940478517018
0.0281203271565099
0.0407712734413935
0.0417010048735704
0.0430529728380088
0.0473144893596908
0.0371113841858567
0.0461371764774631
0.0452935197576899
0.0386953435001419
0.0465542633790645
0.0372429011259071
0.0546502366846902
0.0284857003377175
0.0422857505419498
0.0380378790501885
0.0428639962744915
0.0417489642961464
0.0453706489115784
0.0384260241175091
0.0493479900360181
0.0324707456439806
0.0572789917386527
0.0379544415485289
0.0491288286487269
0.0443431284420687
0.0486792296690918
0.0395767681988628
0.0556183306484588
0.042583583065454
0.0495247564123511
0.0529295616746507
0.0402974230408327
0.0455277705259974
0.0552104558023174
0.0393802148602335
0.0648036953219158
0.0473850047084191
0.0506374047217275
0.0459791953473658
0.0528728657500937
0.0456631427947515
0.0545385633335189
0.0482075919054319
0.0520573877144257
0.0566730604399417
0.0552952618783334
0.0511660188933851
0.0547099914966797
0.0545724099004929
0.0536179771050031
0.0549066019057294
0.061677521564965
0.0531684769584337
0.0591638305350534
0.0502180173622746
0.0675064856652751
0.0584066805109902
0.0545907501110445
0.0680411740735325
0.0563201152070633
0.0627248775437071
0.0516359151623697
0.0636179236408006
0.0554123848215504
0.064797493327357
0.0666026865654669
0.0647946201959469
0.0660068815100655
0.0715952108135304
0.071635486933645
0.0724036157197442
0.0836870382925214
0.0774274554030103
0.0672135499686827
0.0738057181643974
0.0789037543409914
0.0761206913975449
0.102686350843697
0.0754985478047092
0.0900264294113819
0.0736135164906411
0.0864769490049475
0.0831455772471474
0.0959267539070833
0.0879974366790797
0.0891595423065275
0.0979562661184754
0.0956629522924642
0.096911777332811
0.0963741246691999
0.105783300526926
0.0969970102646789
0.106255315664062
0.105323834199784
0.107282916545489
0.105874803802008
0.102736310543628
0.110251015827642
0.117836017107827
0.109154168637634
0.13811200369304
0.121103204591374
0.135527281354991
0.127353733241434
0.131828372779856
0.132561029114633
0.129618161072967
0.13271167479528
0.1322773013399
0.14751729656353
0.146042621526584
0.134243469728761
0.146212648297412
0.149040940704193
0.159124431788143
0.157906510159932
0.1544914377708
0.155814180042337
0.15899216928266
0.165248854051669
0.170810167481246
0.191140373955476
0.188136465530661
0.18009727298253
0.153927094040913
0.183838566338198
0.167804335556665
0.183041040313265
0.183749635938869
0.193577210302688
0.191686777625861
0.203539059808768
0.196032179972285
0.202105066956892
0.208907245762241
0.194476410322785
0.212552231694026
0.231132064136205
0.205656809187003
0.231441804929224
0.213081029209424
0.230271300069324
0.218096569750885
0.246862683900186
0.217301664314467
0.234193640974972
0.232016596448255
0.229169458475724
0.237549364016151
0.253821096296921
0.254110780388685
0.248011271001126
0.260283704462897
0.274436012541912
0.257857742680736
0.273470154304031
0.269366533060066
0.280875903642369
0.277995586008994
0.275399559893141
0.275050512436005
0.299009797971964
0.293006054564086
0.304406601832628
0.289863147718361
0.352493476519664
0.296336716675514
0.337006067964593
0.298641471411421
0.323338139070088
0.29672637864746
0.336463151227519
0.328584115080814
0.334988390054569
0.336714703158591
0.342953628684166
0.325227058373157
0.345516461250576
0.344133841510304
0.370349783906089
0.358936959115754
0.381554914190382
0.356164201539697
0.375102782918542
0.376521480202978
0.38783127479986
0.36545798433145
0.419369490824269
0.386082097757524
0.419963599385118
0.40065673884049
0.393745317366173
0.389929344236707
0.423330100854131
0.397289925922392
0.434513181706863
0.421044070693874
0.434298653510118
0.416669450954307
0.444347644751859
0.43622120323009
0.439604163925601
0.440763572490695
0.48059137993187
0.462787720550572
0.466435557980279
0.455380817809787
0.477700716184765
0.458368004664196
0.492340244582316
0.472526031450887
0.49709424407126
0.483329667028489
0.522181934567975
0.487576409985014
0.506684449142311
0.485067225828916
0.501304608014962
0.536174083865587
0.552843025461004
0.51009532739764
0.528226068756654
0.537512301424278
0.576421236067791
0.52056529758156
0.548006179206247
0.561076702284869
0.588294976429102
0.538743015065897
0.572238295181162
0.55389679295206
0.624592575797055
0.574392939686623
0.605878081626943
0.566367757384843
0.587040642715435
0.597344961147865
0.586472255225486
0.602877647569599
0.613294505103737
0.614778747147612
0.647432641275519
0.625802178867388
0.658120271989591
0.619272025213702
0.647602460986845
0.643187588509523
0.645993553676427
0.65207994847407
0.675242563082505
0.658042755889943
0.670496001947117
0.669700075471387
0.695824272208567
0.660752988683364
0.695887297841329
0.63595425714805
0.70457699703816
0.692663316576207
0.725593082914262
0.648486305813359
0.726310095977832
0.688819466778173
0.722290566928857
0.737683008103141
0.757167725462337
0.705669115941906
0.737648285569521
0.766462280970562
0.809591566133393
0.71485582110599
0.844769299978149
0.760093085404744
0.754039228495626
0.791022073279696
0.819910288234251
0.783126101116646
0.78551480245666
0.784398072789969
0.820701542027626
0.770855413913693
0.807201119153176
0.765242296686395
0.823211915806809
0.783020595035037
0.889911800833316
0.751817406858999
0.872543039168456
0.871838361865876
0.860038342304732
0.81516101792953
0.90757159777122
0.857265592510962
0.886532494154111
0.840561934763548
0.889638949580541
0.868929540417509
0.934727165073094
0.878052432848696
0.941663150225871
0.946168233762103
0.955416736752669
0.898687980927376
0.908419760127546
0.867237008068975
0.902786869970441
0.90413354000409
0.995519659234086
0.905710345756848
0.999879771851264
0.916596982271766
0.95839073540633
0.900575200654224
0.993294284326013
0.907417977350006
0.952783948239227
0.959186249506698
1.06970607904396
0.935373159109567
1.0184652675205
0.975262373740148
0.983272479857068
1.0010067057119
0.970957303150856
0.971857174256059
1.08282758656899
0.992102508386544
1.02177628780805
1.02704664559375
0.998905169397348
0.983576344313367
1.1187059817458
1.04278972934009
1.08826123300067
1.03105434706581
0.994498551126913
1.02373548005024
1.12048855615322
1.05451032328963
1.13650491813289
1.02113744278584
1.08728035462049
1.05451736847473
1.2280933496192
1.11018120862976
1.10236733400044
1.04908080346185
1.0659314690566
1.07504004862204
1.13562332436938
1.0713673990229
1.14639153333254
1.18309472415014
1.17540435200378
1.15410834489587
1.1866844879321
1.08983570770193
1.27216568252808
1.12695673252495
1.21472788215805
1.09911433515852
1.16276898533734
1.12092729787576
1.18076856223936
1.12931874242644
1.10994959668122
1.05501244877433
1.10306505041493
1.1504786069122
1.25821095090215
1.14094973656751
1.20734126856899
1.21965223656423
1.171878480363
1.27797821641022
1.19298659162716
1.15809312228232
1.2462116178059
1.24422204632304
1.33846895823399
1.18417125275611
1.26776574615384
1.15552427439786
1.31980866616232
1.29481748489015
1.34709298857608
1.2926750996506
1.28329254062779
1.2173568645092
1.3724728715795
1.30767679190952
1.25655795705694
1.1623845673335
1.38622611105233
1.22792174250165
1.34063980850348
1.23830890751398
1.28718230397014
1.28507695350086
1.29962093548804
1.20755915532531
1.23382977378738
1.23270039182671
1.30276530591104
1.18075066666956
1.49395012011037
1.26712112983299
1.47648702937339
1.20917996609074
1.41765495339407
1.25101396770995
1.45632564534296
1.25997474256113
1.28557272016868
1.31797251624413
1.29285644973179
1.27607790716795
1.40797316124587
1.21417825191601
1.2784984720934
1.27891100872694
1.34863715969247
1.2602726043796
1.40092368843815
1.38779232802166
1.43484479212196
1.40673123442922
1.38667703829058
1.21967300775576
1.2736587124877
1.30192966623323
1.3020951803558
1.23130107052124
1.39667169314688
1.233759058294
1.37754802185863
1.24675047987579
1.36699232628996
1.30580241764007
1.28790304468712
1.24526752092484
1.34939292066579
1.33076257967653
1.36250217678334
1.26721019319672
1.25755566916673
1.3389194668431
1.37089682113279
1.37833466797217
1.35738473319805
1.3278021352928
1.32001636886131
1.28668548385863
1.29747158530087
1.20179636854435
1.3604962336674
1.41975768721294
1.33216332989734
1.25892332283727
1.34437186836343
1.38669071211427
1.2812189579228
1.33257127020122
1.53446891904725
1.40392436472986
1.32554349892595
1.31181680360343
1.4671250594949
1.29384064949896
1.38171502159116
1.35248974652572
1.46434469922597
1.28239316075684
1.29107298656241
1.32878407275933
1.40072184443269
1.26232128387086
1.30981292047562
1.31448138046117
1.30131410945478
1.40265262229416
1.52592253700725
1.38103694051335
1.35690472890766
1.39474423275386
1.36288798225917
1.30034782628672
1.34139593089201
1.26802955096273
1.32462798840306
1.40242418183037
1.34490697447493
1.25165344542853
1.30581994276065
1.3137163470012
1.39877823162505
1.28272994851549
1.32339232677989
1.32184492573209
1.38260234636246
1.28459916587041
1.33240697392326
1.31030835961014
1.38038410179302
1.26629912658107
1.31242067225343
1.35868416498672
1.34887995732154
1.34639315940535
1.41174098039233
1.39313293168161
1.38507742784022
1.3016595842133
1.37684565240794
1.25473523695784
1.31300846461281
1.22590875778666
1.35626230990739
1.33141890027493
1.32187221409868
1.32176175276303
1.33866784461456
1.22354985427076
1.36392033869994
1.27158955647339
1.2757478220338
1.33709342256506
1.32695963771754
1.24832284019787
1.34143336900537
1.38044339705638
1.37664105099654
1.28156758367684
1.31132185473345
1.30428201689036
1.31209293078565
1.26063595268895
1.3447500897729
1.21777257136121
1.29290605374183
1.22517405180368
1.22180054876625
1.23518562115385
1.24084087147585
1.19025354353675
1.20413932142051
1.24219762316502
1.25946174115286
1.33224766387554
1.32188451525884
1.21725510184733
1.22044970741776
1.25763792054074
1.27698036061536
1.22390280990949
1.23765304019137
1.28587142997641
1.25720743150727
1.21922807999674
1.26198390554822
1.22840582630047
1.18275993945145
1.17867465496293
1.20826874948516
1.21446921353103
1.19342899131906
1.19650098386455
1.24779190474881
1.1432699639899
1.25998468550707
1.26401716106473
1.24711290229164
1.15414048858247
1.13726291131098
1.14200102984277
1.22440777020892
1.11837254803249
1.17157142992887
1.17562927113113
1.15284327841526
1.14912701524117
1.14939467109343
1.11157589264766
1.14807491354275
1.14396094968783
1.15545792334842
1.11454759850312
1.1391761742857
1.14469349878658
1.1287651648703
1.10121972354712
1.13776294366977
1.10111419269871
1.10150002344361
1.10740976012371
1.15604186727823
1.12424056110274
1.14588754153939
1.0863617856902
1.10227320887334
1.08390450276995
1.05309240507231
1.03765344875195
1.10266146445603
1.05964419605387
1.10060467237134
1.05829002662162
1.06757679565412
1.04598932151217
1.0885807710855
1.09749108144063
1.05502571696088
1.0012790106216
1.04032381428207
0.997352702079109
1.02667332021285
1.01235050839702
1.01934122128329
0.977469669294537
0.996482322623729
0.992138347570568
1.00347472779678
0.980355171866035
0.976091838286686
0.952088324841063
0.98611320828863
0.962208641981978
0.956734589266702
0.938263667456759
0.975489924588709
0.976401323960208
0.952317618039946
0.934990202243692
0.964826484130809
0.942653397008167
0.957719103385976
0.947206495195327
0.930561208672926
0.918309117371222
0.954444242422441
0.924235906680316
0.901458790720694
0.912757311108561
0.89447050026972
0.895905996738287
0.896898627426773
0.883262247328268
0.916657051206093
0.880359927753606
0.873951046208925
0.872633102451146
0.866030349348199
0.852007804149544
0.862228175889015
0.850782689807705
0.86409736563746
0.84253949145779
0.863015345368812
0.838555181149643
0.840946836455533
0.808429404613074
0.824029987902982
0.808608163957403
0.827777254656473
0.821927143453938
0.810503259472833
0.793579832364958
0.811156014783567
0.810368250455632
0.788260063288206
0.777972006363858
0.766629626263166
0.776123680111795
0.786399504008353
0.771952662715346
0.773308660301124
0.747441587688117
0.756178805029377
0.749077821135907
0.754432503804568
0.737211734608641
0.747499475468069
0.759842314982495
0.745471570488568
0.728389001289427
0.752960807765209
0.738179056129244
0.737239573186981
0.707347081259444
0.712037782973272
0.699936975917455
0.709302213059564
0.71689065455958
0.700204128763087
0.704527806572923
0.722167318134794
0.689014987467539
0.682125530987139
0.684542091727095
0.695293670671769
0.676303085748173
0.661354471470462
0.673655552168117
0.678672750975491
0.649222551007226
0.645678554179494
0.652519033536647
0.657688548595806
0.665109198805937
0.657681975495641
0.638033714934425
0.639614832864078
0.635829963535674
0.644416129189129
0.630436473507137
0.62283948516769
0.623781730051673
0.634710957381179
0.626854324415851
0.61828944779453
0.615714187923186
0.615126582236859
0.596603035814788
0.607432464321091
0.602922798769222
0.591418234844349
0.582679832049744
0.595696946954932
0.584923621654793
0.577747988228675
0.570649788148881
0.580670745202494
0.565074587512075
0.574472053236447
0.561124261276575
0.562459452687041
0.568730187495202
0.565177856590321
0.55668206569763
0.557764374994729
0.552013589523424
0.544231034753098
0.547767586628245
0.549256897126472
0.540523337800372
0.530417334762548
0.535896122715681
0.535960195654899
0.529095721772957
0.526883407421475
0.522485247133842
0.520534041033264
0.513439409472976
0.513284581387874
0.502888580422097
0.507830203245022
0.504171160473928
0.501299314293263
0.493209962000114
0.495848589339037
0.492137367683188
0.498445946986873
0.493359926000249
0.489950433506539
0.489522430023576
0.481895955784752
0.467300950804171
0.473947690402644
0.469407491457016
0.471510124189834
0.469751803776221
0.471470782214363
0.464299604008866
0.465192676063702
0.459230493350932
0.462895272038461
0.460602943327325
0.453142218864724
0.448228475133577
0.444402655970982
0.441659039757093
0.439827722259132
0.448433246713025
0.446925392879689
0.43429723415089
0.432218238834934
0.43777145999022
0.442767336952003
0.429977963456503
0.428520125017521
0.425055115234078
0.43057628513846
0.420052890094605
0.41873547346848
0.420872310905358
0.425048629475657
0.425339707095364
0.41752488096377
0.412782532194548
0.416828047194429
0.414758861043846
0.41829647037114
0.412993708348635
0.406702720891262
0.400007301140377
0.408083871858433
0.414758071438126
0.415157435522354
0.407893505598636
0.42309465969334
0.407219752919386
0.40751256417712
0.411763328058905
0.416140326790408
0.416859341623266
0.407616925673807
0.414450725903013
0.415879244376323
0.420717558855614
0.420043036440578
0.411352588813456
0.419030591440359
0.417215815215466
0.425441615690442
0.429545589990086
0.428089335655447
0.421320715111979
0.422486477588061
0.42541050855634
0.434180066138752
0.434720572133911
0.433426018863776
0.428047065245812
0.437344465651815
0.439321619536466
0.446791967065291
0.443770838009638
0.440847733596927
0.442601187609691
0.439671489148338
0.445882517956936
0.454596728443832
0.45291704122134
0.444920491771792
0.451400536168637
0.462328559694493
0.455545041612367
0.470500279152311
0.463181938083363
0.46829203278085
0.477354717302177
0.478449185178325
0.474441807354402
0.477159806843588
0.484962161831075
0.489537127603251
0.482329470674399
0.489543449940479
0.494307815949548
0.494374611877005
0.505765062082029
0.511694408899186
0.509883935457744
0.508309291037569
0.516976983484878
0.514794656040491
0.511916315879319
0.516058900109863
0.510792911640249
0.526336764483408
0.526898976366593
0.535096153849889
0.529253364418627
0.53731699772485
0.52440501777491
0.521641120505805
0.539826066604007
0.537380691916545
0.527414168719996
0.541482290077453
0.538393310563231
0.536556289781908
0.537530863516659
0.527884809748018
0.524733812524561
0.528618550233991
0.533003126232847
0.5288027848383
0.526867855778315
0.531306017420372
0.522618569788035
0.527161483321038
0.54041956907955
0.546937237301916
0.524205519966136
0.524172177503938
0.524870588494734
0.515456310950124
0.514455448180563
0.517244167033346
0.512181600159604
0.529339935132086
0.532358205216176
0.52216764045094
0.519267839749112
0.522093397253574
0.521513006830871
0.527899063115706
0.522635090228586
0.528412672499712
0.527432359393225
0.529568582431926
0.52220202023747
0.515225084565691
0.519294985280175
0.525027274619535
0.527386212571857
0.534338092266941
0.534466192062715
0.527809986333177
0.529727401346667
0.526642321417088
0.526229872014344
0.52458136690988
0.520176537417136
0.52047323518833
0.513884828233257
0.521005815371841
0.522019731132066
0.514173563498567
0.509704673394472
0.515847686155006
0.511118134552823
0.509658442844482
0.49823019176751
0.495561263943966
0.508616045736463
0.509531405089796
0.497695877291055
0.499001141467205
0.493343864747923
0.485807671955865
0.484930157507557
0.482039305456324
0.479389766631583
0.476757301418439
0.464779545951913
0.469001922268578
0.464626463827597
0.469987971092171
0.463820723003796
0.450046719374565
0.449290262676655
0.451636243052912
0.445547878537336
0.449503097712915
0.435292002607339
0.422009233941775
0.421225485154076
0.432746323704882
0.430241422041384
0.422297251325299
0.419382806043415
0.417303652910066
0.422788989213413
0.410035456717423
0.404504983374304
0.40460382481103
0.403140429839587
0.405129343725676
0.395565671664917
0.394132809943759
0.392047058122141
0.389994666989907
0.390890884285615
0.380696340664037
0.376665445724184
0.371914841296107
0.369206436964799
0.372930471307724
0.373440522559323
0.371266322961326
0.364174436387331
0.369588390954585
0.370482196199538
0.364050870623717
0.356326165578859
0.351474506777547
0.353407484536498
0.356977381241387
0.346598359136971
0.348838930371429
0.355174826966158
0.347799068475615
0.342054913078907
0.340885005587752
0.338686600145991
0.345176345096692
0.345853366776464
0.342552956218884
0.338547385308143
0.336410588470552
0.333064697260468
0.32858711942263
0.332605127394106
0.333350856980081
0.328140492166559
0.323943233166124
0.319699952031774
0.319165995234122
0.319635423994426
0.323495456416152
0.318984370103916
0.32364654714399
0.313257638365769
0.314031551281883
0.316757872856179
0.316069758913646
0.314071710862757
0.30441362412053
0.308830907076006
0.309342673634718
0.299774540271052
0.303553885798842
0.305461939890989
0.303983868028755
0.296856825553954
0.303646103925882
0.30675447693608
0.298293893310935
0.298766166936543
0.294786181048698
0.29024005334044
0.291546182616952
0.29465084998055
0.298531682474101
0.29390902858017
0.286303866251964
0.292340606014754
0.292069792146054
0.291723997457711
0.289469061650522
0.281059077619661
0.285868017647093
0.285108213828827
0.285723567082705
0.28583622461346
0.277513379451615
0.276717019140763
0.27999453704632
0.275578488833415
0.279860971507702
0.275538057868603
0.272916473658232
0.276757022698143
0.276942535074279
0.270134074789737
0.270369977313835
0.2679197107897
0.270489111400266
0.271879530744684
0.273116272457539
0.270522275950902
0.269904738227131
0.276933130966728
0.270346004927581
0.269023591155258
0.274167825649872
0.263935952030402
0.267074698257891
0.265693710348849
0.263504375260954
0.263997897524842
0.263779820726901
0.262828188241955
0.262492669708702
0.254777057899776
0.258088876675823
0.261059719075044
0.2569594837656
0.259651670824623
0.260663493490083
0.254003668403943
0.259993644204541
0.261568597647201
0.256984726246511
0.254016378127454
0.258555319014516
0.259549251931852
0.256514159991119
0.258432189058053
0.253129994593747
0.253155781166462
0.255243469812859
0.250141073721066
0.251344012518332
0.255790606414232
0.25548951326321
0.252416311570957
0.249774299036284
0.248414339413983
0.24782895846296
0.249656244713565
0.247059892804273
0.24397813269116
0.24868496630128
0.24812369991111
0.245129118612131
0.241876336849327
0.247786138138664
0.24328804300605
0.2428776483363
0.239844199778587
0.239641161180975
0.239478792100476
0.239280245558376
0.239980670339662
0.237355218809662
0.235154996451575
0.238817710823626
0.234417445425617
0.239260789866673
0.238979868180113
0.235397350006212
0.236409611261847
0.237972168998516
0.229716969488607
0.237069480058466
0.23918974200399
0.23445608076314
0.228682470870961
0.228386363066823
0.231261528768836
0.224598020476667
0.226347919806686
0.225759403492702
0.227170848222231
0.227930521438266
0.22622051023689
0.225660403413782
0.220500965778398
0.220041727007944
0.222448442331097
0.219672983094748
0.217598927993402
0.215955288210042
0.220573157820857
0.220409398447974
0.216717807797312
0.220603406753714
0.221656064495847
0.212336499532234
0.211001149704279
0.20871667698262
0.214789328271146
0.21410633672512
0.208371217699124
0.208327116604267
0.204444281663422
0.206933369736203
0.210057809235412
0.206156222934328
0.201486639025776
0.20489659706189
0.203625907206756
0.202869644622313
0.202806751264464
0.197052445602354
0.199081137182598
0.196155446637006
0.191751422365291
0.194846678026314
0.195341720182287
0.194259893705461
0.196000147657828
0.195998130445844
0.194747943661677
0.193526903750618
0.190122126828858
0.191232279418701
0.186460850958867
0.186317987211402
0.184362799420983
0.182119953723631
0.184173740725432
0.183876825507658
0.184282198094541
0.18194811485643
0.17893763284201
0.179421906450826
0.182048783522089
0.180038125418281
0.179057410792945
0.179765043722164
0.176516904720427
0.177415116708193
0.173655010684608
0.17639156534055
0.171499457713419
0.173057791792743
0.171064135619465
0.172600767388498
0.17734670224713
0.172498529381224
0.167328420949048
0.167008077984572
0.16972389987986
0.168970716114717
0.168243719215379
0.16635275592789
0.164157485765796
0.162003987385044
0.171417617818839
0.168951150472287
0.161646194594834
0.162406927735387
0.161890587606426
0.163375919511594
0.156878765018899
0.156756933733297
0.159205620417833
0.160221818197867
0.160454611220513
0.160869283117209
0.154893811013005
0.160495998007914
0.157461850543029
0.155197182915577
0.157822733822317
0.153617699745866
0.152710995388756
0.158916615241024
0.155681462695284
0.146084605487363
0.151812431866507
0.153290545490899
0.146473182193385
0.153955254308456
0.148549442312214
0.148963510466011
0.148022001949958
0.146003987895633
0.146455577834297
0.148900515235456
0.144471547436717
0.14534910301733
0.147672626625536
0.143426688424851
0.149267429218477
0.149560087818173
0.146056315897683
0.148602594140757
0.145658756345951
0.142339739621702
0.143873927368822
0.142861472675395
0.143535076949923
0.144206274098803
0.142052772167642
0.143208350098504
0.142044153497072
0.141446060633582
0.145764115798069
0.141893614852089
0.136169945867243
0.137966739486732
0.135832486531222
0.13835412059655
0.13570128832151
0.140612363560445
0.143857499386803
0.139382292327299
0.139244535153946
0.139648029669297
0.135190069548785
0.137133259941778
0.136988335569501
0.134810943568328
0.135681414306564
0.136839105980319
0.138898423022608
0.136685323839822
0.135104616069728
0.134153756003725
0.133651159537063
0.135298054923565
0.136454509106594
0.134703283733402
0.135674335138788
0.133143619981823
0.132231854802042
0.133135919685539
0.130991025256591
0.131856081718328
0.127337750001292
0.128012878276856
0.1293096990023
0.131571043572456
0.134625448740135
0.130684439038512
0.128777612795939
0.132363110198252
0.129413509333059
0.130809024615587
0.123907908940875
0.127621047517518
0.130266282077916
0.125932772153651
0.131531811173242
0.12658693303076
0.128116822441005
0.12453424037588
0.123940978185896
0.128598087654308
0.12730957203698
0.12309253405676
0.124442673941404
0.123581042736131
0.127702929877435
0.125262506203759
0.123569605970184
0.128517207027305
0.12434868195642
0.124146593323709
0.12077069893682
0.124283784275782
0.121317492538427
0.121095048930891
0.119348670391985
0.120841233928011
0.12433561333205
0.121305678638435
0.119648876068359
0.122237835990867
0.117996300950967
0.117881827892949
0.122226333288708
0.122241228424149
0.11920959367669
0.117332671550239
0.118438849900395
0.117757957895342
0.115933195208145
0.117912935693168
0.116837210263697
0.116132136983013
0.118385424625686
0.120498760906579
0.115667091946216
0.115367154444931
0.116213763015889
0.113168416507845
0.113942211436221
0.117026749861779
0.113867347225901
0.114277906867698
0.113096684490445
0.111544088850945
0.11124301798115
0.113243750288117
0.108834593531602
0.107278311135906
0.110688308230286
0.112586206950733
0.109224567002834
0.109903244957123
0.107792187339369
0.109974189522842
0.106563056825081
0.108457068203588
0.105734265258511
0.10679264544788
0.107182763869369
0.111904999062974
0.10605439168808
0.103692485019852
0.103749021779247
0.107402811131016
0.107134375759073
0.104788253966941
0.104885094867881
0.10274127717525
0.100501531074768
0.101447801846049
0.102347965175059
0.0983612823142044
0.101335278386577
0.10090759914977
0.102211726192289
0.0992756891435342
0.0996793151920225
0.102464121864724
0.0952731484767401
0.0985818581580304
0.0960389983305007
0.097373562132055
0.0964732613400513
0.0963579539954012
0.0965230884108302
0.0949953724136051
0.0927579804125234
0.0950263790590336
0.0936200583582031
0.097818757623096
0.09459366372396
0.0973533705232849
0.0970970781698671
0.0955203759796308
0.0938361997779708
0.0920051960041851
0.0893359372030963
0.0959310066943351
0.0911163879712351
0.0887279730084214
0.0911306715203636
0.0943959807142256
0.0904744490531874
0.0923692210477845
0.0908656941540197
0.0908984094703404
0.088470946021572
0.0889781111066751
0.088791499370422
0.0891126770891592
0.0888951415252063
0.0912950960227128
0.0867280764333804
0.0845413695334868
0.0886042740044738
0.0912209556957149
0.0867733095616201
0.0857783436863672
0.0856946383479746
0.0879383145565133
0.0873615718786919
0.085767516681387
0.0845550713190448
0.0875083320090438
0.0823232518148176
0.0858484103406843
0.0835058633859228
0.0856901212192195
0.0873585241446513
0.0844967413816947
0.0846310550080721
0.0836353089733151
0.0834316655953203
0.0873181936802166
0.0810217339984913
0.0866347060661712
0.0844243291793853
0.0831941401269701
0.0836180769468952
0.0822372169937162
0.0822975931793289
0.0827675346982843
0.080023527892379
0.0853640991915104
0.0821217331112718
0.0815891853122359
0.0799156881151995
0.0844243616324031
0.081862931351301
0.0826945238795332
0.0808135215496421
0.0778327706393386
0.080688918039338
0.0850226686395932
0.0797287157002583
0.0818157760288034
0.0817102631430552
0.0801805334273472
0.076831091916749
0.0822343680673265
0.0769314019555747
0.0833333878955528
0.0827847996896343
0.0838962363240655
0.0722599126038131
0.0771055495232265
0.0825870546441947
0.0785416816382265
0.0746809600597837
0.0791248244798683
0.0739973993893646
0.0810674501819164
0.0769126102400336
0.0738390720498614
0.0768616892065668
0.0748970748046636
0.0696018818367255
0.0803237238126224
0.0783497071722313
0.0757601583102483
0.0749155908365883
0.0795753680738049
0.0786289087467877
0.0791392772142728
0.0734534197756474
0.0826601004856063
0.0723929022538044
0.0798946387219783
0.0728330503180864
0.0773255565667047
0.0719044286506376
0.0819526256909965
0.073777069863806
0.0815732115220347
0.0745766325339273
0.0804994866322823
0.0685380865378339
0.0806156950966022
0.0668281236400899
0.082715171990761
0.070431002465703
0.0851182906593665
0.0683003674698927
0.0784277414489469
0.0642154204589554
0.0868382088571408
0.065021972786521
0.0806961229654626
0.065784164897529
0.0800574964085207
0.0693078918596713
0.0826642493653778
0.0675533013897536
0.0776202456607492
0.0735319853825192
0.0778917050997959
0.0723801695418389
0.0730650410141576
0.0797656592205493
0.0699244212719508
0.0817855480459783
0.0742218334546342
0.0805330593441713
0.0720245484294264
0.0833719462440767
0.0698279130016586
0.0785746197929763
0.0683695365319392
0.0791107470127445
0.0751910874288871
0.0722669107076234
0.0755497171708746
0.0762085430107931
0.0760435126862444
0.0748708860007106
0.0772843724111337
0.0761213645881004
0.075154571151414
0.0766698708796898
0.0714912624868448
0.0758944408275261
0.0741182524454752
0.0748322355622521
0.0723453995261325
0.0761894266463287
0.0751889621923679
0.0751288727493627
0.0740176869043444
0.0773911240309861
0.073282273792704
0.0746104263397055
0.0741422185431686
0.0756723671515421
0.0765721142740306
0.0745323300967152
0.0757490338926489
0.0785279371445269
0.07601953809969
0.0768792524762233
0.0750311493734194
0.0741519361643984
0.0753317629903773
0.0776832307684856
0.074615323420333
0.0775186791095209
0.0768299621056638
0.0761881116768632
0.0749894023452684
0.0763602128132508
0.073631758450156
0.0757191338520047
0.0756363829671856
0.0746400586648232
0.0759600304428353
0.0777574914148072
0.0776821435112161
0.0762866251912259
0.0727542379846369
0.078529076726609
0.0801315753512615
0.0765400548553789
0.0747680624955675
0.074080853998007
0.0796175010585711
0.0803381849395079
0.0764557247981929
0.0775098387657707
0.0772255878578998
0.0793712403514256
0.0786794732284531
0.0779603106552334
0.0789318588779688
0.0794770759413618
0.0785588896680482
0.0788701181031024
0.077251401037005
0.0787200920904329
0.0802742603504064
0.0748622654166093
0.0780637005046756
0.0790819179749797
0.0796026938900909
0.0794712901556034
0.078898953276692
0.0814442570754279
0.0776964933735548
0.0796795807550438
0.0766811245546172
0.0830239663082442
0.0810567368749036
0.0774831042935678
0.0781941603380625
0.0821705931594328
0.0822672608260477
0.0793080902479866
0.0816044387659975
0.0828932204163879
0.0783504963479228
0.0794355261990623
0.0798248463020027
0.0810635113451066
0.0795898262290856
0.0803215809018358
0.0804739410371246
0.0822916813725136
0.079500593112743
0.081427316740376
0.0810921468032977
0.0830164282890479
0.079756937794203
0.0859959193079368
0.0825121906965442
0.0825997698102918
0.0829215726992759
0.0830374641614174
0.0829161334817536
0.0825831649451241
0.0846430764484733
0.0839850046210818
0.0824943230659853
0.0860729929069347
0.0808999215485276
0.0850008222313352
0.0842797174780215
0.0863821059274611
0.0838006724679378
0.0872792362866558
0.085479386829863
0.0836739723571143
0.086694468890907
0.0831838847620537
0.0839856754432397
0.0854907789501464
0.0847014516529019
0.0869307188206861
0.0824738406552005
0.0839317715070304
0.0864121868144089
0.0866032030304216
0.0843506750859391
0.0862858059710442
0.0862707290583032
0.0867060515818907
0.0851886227721736
0.0869931212689891
0.0853330039496083
0.0883167010736604
0.0862440818397307
0.0882331166702802
0.0863336890075996
0.0864790568360579
0.0878227656485586
0.0888709891102689
0.0873874070025405
0.0885022334865601
0.0885639336180804
0.0880459668749315
0.0895383472639915
0.0890977640290378
0.0887354190399654
0.0898709163048438
0.0896202631646891
0.0893073707076538
0.0866543157937419
0.0902435622786684
0.0895698049780046
0.0886368782609198
0.0879489300915867
0.0895830566677056
0.0870457618699504
0.0897397100742354
0.0895831033678316
0.0900462662545307
0.0860001040233429
0.0922917358401018
0.0885024161791165
0.0885650146914753
0.090300318632975
0.0907785576829113
0.0897994505921708
0.0901140002405232
0.0878860975151797
0.0895963789157802
0.0903409631769336
0.089953804956076
0.0918072322407858
0.0893348521865335
0.0886581606240646
0.0906128293872948
0.0874775221512628
0.089436335631212
0.0887333985255032
0.0874158600733085
0.0873197755707203
0.0891658238101759
0.0897873680168423
0.0893116571965336
0.086367174508588
0.0885289489333351
0.0889667237150798
0.0843864417707901
0.0852258205289641
0.0879731906301952
0.085249118228873
0.0870451614523209
0.0883473860903434
0.086405479089333
0.086380859906493
0.088105328250608
0.0874012267133737
0.0862606305288726
0.0855745108068419
0.0866619574411661
0.0872129879806098
0.0857907613342962
0.0873520926162897
0.0867455222169002
0.0875717134078819
0.0848596061798932
0.088159325052227
0.0892650644030446
0.0847991536391999
0.0873338787778199
0.0854878426476115
0.0860228086932791
0.0830695340756567
0.0880543545107239
0.0848349552328316
0.0850203462238851
0.0875344471450571
0.0842877329781559
0.0833792362490025
0.0862854313902088
0.0818280109522076
0.0840782097726266
0.0861300848747892
0.084083352892139
0.0852095690193514
0.0846057734749174
0.0828870566829115
0.0853855795040836
0.0829631420437306
0.0845677048467602
0.0830433556205128
0.0829150757285204
0.0814952170766276
0.0822714524115075
0.0821958017273692
0.0851179128415087
0.0801232809259161
0.0819755657565094
0.0829937499544627
0.085283609340593
0.0833438481962782
0.0875777320388979
0.0808073232516154
0.0863944759389374
0.0848577563522587
0.0822750577490876
0.0819852069280347
0.0806846105282525
0.0825311921326551
0.084345611407557
0.0805080437837116
0.0835668087617741
0.0820461628346129
0.0805376332844954
0.0802420884043819
0.0819593614669303
0.0827611541216954
0.0810371435018534
0.0812040444328131
0.0804672011772678
0.0839862868540862
0.0820072366771191
0.0785450750639273
0.0823546392466217
0.0809420566826389
0.0805172524606211
0.0794623588417181
0.0820608802453222
0.078777484430199
0.0781046118269245
0.0792056128973462
0.0811181071742077
0.0780948944977773
0.0816435866961077
0.0816967374539765
0.0812383448255149
0.07844792807478
0.0804674428929532
0.0827247558180554
0.0764730312236023
0.0776284917652813
0.0780618841168089
0.0770676914969341
0.0787805069183618
0.0768958722343118
0.0793472230136893
0.0765986221385737
0.0744510459218507
0.0778817277825018
0.0762506305411546
0.0757579079424098
0.0773787855163253
0.0767211324091035
0.0776932731883388
0.0774646572905797
0.0744321780553903
0.0746594177516891
0.0734957257848096
0.0729698680843258
0.0759103664014595
0.0702243239028867
0.0753861223507295
0.0734575139228238
0.0757044493795307
0.0728281724211853
0.0753332946741024
0.0736470684231451
0.0728771462944215
0.0730569957324661
0.0689686234355168
0.0710105627546443
0.072008251188762
0.0708677177154779
0.0708585361801091
0.0713868057320283
0.0697792395544411
0.0713737342512781
0.0698849868592701
0.0686392428569757
0.0698887529521441
0.0681929718864446
0.070170226371455
0.0694221591638016
0.0730444587164894
0.0680077199119974
0.0702916470759327
0.0687136604795816
0.0667963244316065
0.066008920299974
0.0690148965530116
0.0686028806781828
0.0641836951329188
0.0677489071775999
0.0684797317757667
0.065836888885739
0.0685652161163268
0.0671255496374165
0.0677424959632534
0.0670110126777969
0.0693746559646717
0.0674081055375316
0.064809845124875
0.0662725750662896
0.0668297049082295
0.064398705867543
0.0673220068503062
0.0631454447366329
0.0643521702231711
0.0654859675822034
0.0672715352303215
0.0649024125286203
0.0645453359756513
0.0655569587355916
0.0659642684246676
0.0635610730942705
0.0659119411358356
0.0623339335471667
0.0643734419453593
0.0619370008371206
0.0657862295462018
0.066028304410282
0.0642117220969231
0.0643213756844344
0.0628838605859125
0.0627956517157218
0.0601969068420423
0.0629338010904376
0.0631018037076866
0.0629258833684036
0.06433234347471
0.0629021634087078
0.0624940645813999
0.0623781529185449
0.0644544902041359
0.0590882905625938
0.0637917306500023
0.0637607567753301
0.0622120061754672
0.0586022045082039
0.0636152089433391
0.0615536418126021
0.0600121054356023
0.0623358976973156
0.0591605440718228
0.0583546749136275
0.0613763416114293
0.0601886152422494
0.0608196332379161
0.0588557360288937
0.0599513163431172
0.057391470194543
0.0585575331038884
0.0594540167812586
0.057340400122318
0.0592780887725646
0.059072248047222
0.0589165657343486
0.0593857396549839
0.0593329264093058
0.0589568646125187
0.0590986960065226
0.0592594385489931
0.0585774158549716
0.0585591586016909
0.060466797190055
0.0609642599940078
0.0609334748380047
0.0602953203077974
0.0590832189670739
0.0607775887951702
0.0586383965627774
0.0606507482251811
0.0604078375534006
0.0581843897518634
0.0602614728180201
0.0584464993860584
0.0596603683637617
0.0575332842498258
0.0595939805942235
0.056575609913918
0.0588137331842894
0.0579612497150989
0.0563009745268867
0.0594701877412096
0.0583341690178183
0.0592216749879268
0.0587019642189003
0.0579683599932886
0.0602155317741033
0.0582523126584997
0.0562171929880865
0.0567799304117019
0.0585207959973747
0.0583111319435847
0.0593292383553953
0.0562634218757213
0.0586242490568202
0.0560710415014583
0.0580115613794054
0.054382368613864
0.0591380395088181
0.0564606853809959
0.0588117496076892
0.05749016484284
0.0550910314556141
0.0593940454380373
0.0575191806679241
0.0577074857774071
0.0567763526270363
0.0579222912322479
0.05605710527365
0.057414546888252
0.0564550397024669
0.0578723026974452
0.0566015692183492
0.0577656304254238
0.0559201521203239
0.060499905981418
0.0567579921423456
0.056232855061206
0.0588507945130711
0.0566414135357797
0.0583686449954308
0.0554612728466909
0.0567360020724301
0.0580853567397913
0.06341716610954
0.0587341937258618
0.0618726552782023
0.0578484622117024
0.0593027354009131
0.058656392199696
0.0581321299616778
0.0568536015722286
0.0598734857857705
0.059477353160626
0.0565034730520591
0.0586963347617012
0.0578839067768332
0.0586480059312089
0.0568165398344917
0.0577235030908688
0.0579847263297195
0.0588408911249748
0.0586499552515936
0.0567209085594168
0.0585640154206108
0.060486499202658
0.0572072850496909
0.060195869568145
0.0535161418053322
0.0639472848069467
0.0542288623811265
0.0597326698610607
0.0578414557520389
0.062131595216707
0.0609051446178361
0.0565584450050537
0.0575744907352988
0.0587496450200322
0.0589895734505791
0.0599794314794116
0.0585458163837348
0.0593696769319111
0.0617658831171307
0.0595751062692981
0.062245090438401
0.0650057092175795
0.062599342327888
0.0625558066838338
0.0570558535509887
0.0641160181395708
0.0603882866364219
0.0600836891781496
0.0586740146007598
0.0597398346887978
0.0616284351290869
0.0616631172048642
0.0596092921319812
0.058855629368719
0.0616999657265663
0.0626063905698797
0.0602874581474199
0.064138478437219
0.0598481024123074
0.0617871904255733
0.0588554392434003
0.0635746586938984
0.0647217531341558
0.0614097717723086
0.0636576823714018
0.0627764359505712
0.0653904927920687
0.061951870241739
0.0645123564746156
0.0638055389851355
0.0675165867082601
0.0647370669126471
0.0639005927607087
0.0675220150585473
0.0643974260546846
0.0659669327056948
0.0670462847021319
0.0662038986541607
0.0683418153604904
0.063489604096381
0.0724555632085433
0.0671757118422283
0.0682060337326421
0.0638711602646213
0.0675592081017568
0.0653042872534361
0.0664309743063501
0.0688280914306317
0.0688026248357062
0.0713672176077394
0.0662148542011535
0.0731143804697302
0.0677580859317455
0.0728311201491508
0.0684542335492648
0.0739284890004682
0.0707266555499653
0.0719989504246097
0.0688928065218862
0.0779292330088382
0.0686437652827855
0.0682706375615299
0.0745748729204175
0.0756066530698433
0.076944458078029
0.0746254730999007
0.0736826408319442
0.0771532511733559
0.0743350495492181
0.0780090728890612
0.0703837706315177
0.0775914962047958
0.0764568331875184
0.0775575396322256
0.0746653439501742
0.0785993270552961
0.0789176694346261
0.0786931701962006
0.0793651737655722
0.0843531644906957
0.0760441784205246
0.084312847645618
0.0813022452765951
0.0854061240716936
0.0802934512676779
0.0983003119988285
0.07814731745536
0.0917704294988734
0.0884916613984142
0.0925438309898796
0.0881752125766704
0.0943275739861482
0.0897441242134498
0.0973815728445906
0.0938772958451981
0.0955145081735609
0.089918062443978
0.100584992863781
0.0985868988203654
0.101108540307068
0.100252571219212
0.0978976378811994
0.0983392887258125
0.10493441638578
0.109181956047137
0.110435069827782
0.105271318201515
0.107603981166799
0.112102431402034
0.114922273944915
0.113966446984913
0.113344132363512
0.112108263877089
0.115152853371413
0.117776464539969
0.124189022319466
0.120894024327821
0.127322186257139
0.122344310469854
0.128315912658567
0.119181654790188
0.133713039899121
0.130129115648304
0.130461515797577
0.138288731584347
0.135450765946305
0.14371870453124
0.139797206036779
0.140666058294829
0.145840011153622
0.143621802720891
0.148952243605053
0.147384906466065
0.155231021690853
0.154978183614582
0.162621316595161
0.160398387215035
0.164413963564372
0.165209104090242
0.164404379833062
0.204043175011067
0.173857305704026
0.18615856935603
0.183476294045238
0.200167548741647
0.203690310314738
0.20526558763884
0.208910498086198
0.216979089615559
0.21751868659873
0.223744160734184
0.230890819041409
0.235262539940467
0.247662072711129
0.250809125704092
0.253886632102146
0.269482516262346
0.286301513052615
0.281994728417016
0.287613225511087
0.288343419133127
0.302999961252404
0.310651147248013
0.314032736272346
0.326075446546133
0.320944190880295
0.33268208163812
0.360156081450733
0.350914246503109
0.361976235512613
0.371225171496432
0.387248762708803
0.368665141640526
0.407091389388402
0.39699478936184
0.407370475812753
0.407316850663817
0.420471666012176
0.429639112038489
0.432825570375783
0.443639627821692
0.457165152545522
0.455294031428104
0.457183390559047
0.462805572716515
0.477222548434862
0.485524422444365
0.485736979867594
0.494707420922988
0.514893069692513
0.518062077792526
0.597313344137498
0.505099357386545
0.508909039871157
0.507859519040966
0.515916323923751
0.521767338949599
0.499970299555295
0.535750461237669
0.516819534716026
0.523744629644825
0.518264933979104
0.524469848308127
0.528997968888891
0.522484164655522
0.525450232866494
0.523995227893056
0.536116794609743
0.522349855245425
0.54302434865985
0.54695358185584
0.517979564437738
0.515719708839243
0.528399571524133
0.516830316284871
0.515322232995695
0.512645204900325
0.510735965168716
0.526135483211833
0.504605536635668
0.509207746715579
0.49689259168642
0.521509717085343
0.504587296643598
0.491619637137163
0.491182456963914
0.478938838752557
0.486026534146866
0.465596081968898
0.489200278457172
0.475166877179142
0.460243488438282
0.465774325986191
0.458650102935856
0.461420637523711
0.451940686633594
0.437602865950721
0.449572995301125
0.439538645918035
0.432995775585954
0.441635849083793
0.427968304852514
0.419629029056904
0.423125775969724
0.424348689988555
0.418756230360722
0.423295459380565
0.423132456921673
0.414058844717285
0.409610471490951
0.417827135699117
0.412325767822571
0.409880115054757
0.415878821770804
0.41169513365623
0.403637727260706
0.411335310827428
0.406352522076091
0.403036729083235
0.402682641942864
0.397813746433624
0.406507361768913
0.39649413587325
0.397094221668097
0.39897315498898
0.404905526477627
0.399560136549368
0.396116337917608
0.396108174806354
0.395617806604188
0.394643876285135
0.393175967525805
0.385180507397028
0.41294489752693
0.387885794872383
0.381736995695527
0.382107837045418
0.387594520169613
0.377409239199291
0.371902617210045
0.395417280377903
0.37797393504918
0.372410689713313
0.36315792417841
0.362363078173691
0.366919351906116
0.358713074842908
0.360412700395091
0.361321052278048
0.341679970467257
0.366067488639555
0.354082576542783
0.362390990926789
0.361959684180222
0.344828806072617
0.332519771796479
0.336834224949643
0.34841742244889
0.32718837156466
0.331908927800892
0.32582099879444
0.347872222786332
0.332513332646478
0.323555165908043
0.320210603158215
0.32225459123643
0.32982494281581
0.325459989394705
0.31910307784613
0.321927820331298
0.315011233623914
0.313794694901847
0.320235190900461
0.318623183387395
0.309134107833306
0.299173265334981
0.296031113720392
0.29629395780388
0.288130535831354
0.308830181059674
0.283624758285014
0.28958488153692
0.280906486734777
0.278649200593508
0.277065680676544
0.277291490073351
0.271764128909322
0.2653811654541
0.277374536246117
0.263688850153862
0.276537933183243
0.261509440538361
0.279181474801897
0.273548627139594
0.260656294539016
0.250644550854467
0.264788205014214
0.265354119879458
0.253541347928025
0.257147893557133
0.248836735716704
0.250572001946946
0.254237848814823
0.242572456271424
0.245219309128483
0.243072048679459
0.243624088537247
0.253871317012369
0.240901993877035
0.246219145644301
0.23519155923534
0.239208129507712
0.240665920669982
0.235527641714718
0.239857307005509
0.230259050627099
0.251239052803209
0.2420745921
0.237348637040523
0.253397437688104
0.245580225309696
0.2433440541064
0.247761215094255
0.245607452068632
0.249368154154028
0.255841266099815
0.264572542053994
0.255121389840364
0.259635460176062
0.266717040457958
0.26128004997351
0.26793151131794
0.270415048912694
0.280092856368975
0.283288894895485
0.293035915103666
0.289796335207548
0.294773924362771
0.304699457862453
0.303892023924926
0.321368145787213
0.323020841676219
0.320255377741859
0.341482596847814
0.333917763541298
0.35796049133265
0.35197651411519
0.359630655615784
0.36247381780348
0.373569917419739
0.37900596646296
0.377661559320853
0.381104991686947
0.398438859022713
0.388631218928428
0.400650222294745
0.399486879054025
0.414723057253464
0.406277760900679
0.427463294422964
0.412818427401015
0.440272338510302
0.447974040421882
0.433676591840067
0.430761786402577
0.431633459423792
0.437414137273768
0.439979266329637
0.441670151535596
0.444183174740779
0.436267053617034
0.442618652815897
0.456051054211387
0.451587653806828
0.453630313715926
0.45646405772421
0.455141630007715
0.468050170127399
0.464275583111431
0.470709983857802
0.477799184409704
0.476992756292974
0.464961604097351
0.510229116742535
0.484458394528768
0.487900470091788
0.490212661653239
0.488805700823055
0.499297882004567
0.492721925474718
0.513239010274922
0.51409547208993
0.503109097644575
0.513298931745491
0.51709809762968
0.522468096916926
0.518891664445211
0.533069266706863
0.526571747770361
0.537811238328479
0.530321205162897
0.546734333417178
0.547984328777199
0.543803838337992
0.553539960334852
0.542185240482549
0.548054769698373
0.547642974292414
0.548041876916553
0.552231897833246
0.560594028816547
0.557872685320693
0.563863767399384
0.554861006814126
0.548388426506788
0.553183664792194
0.558371113833731
0.557970305579711
0.55258252917982
0.555415783235021
0.549768838936772
0.551114092875747
0.543277684178728
0.554460608152156
0.556595632855147
0.550700364384738
0.554517222025907
0.552670317166112
0.552022808053067
0.552622502263066
0.549362379307254
0.556287168957872
0.549469217275322
0.553400635369386
0.554520667503983
0.556395507432851
0.570818718017294
0.566561871458323
0.565777403037698
0.566110711362852
0.56564506561822
0.571558544355877
0.578496881792654
0.575357854465737
0.579364509079634
0.574974276998773
0.576660453755131
0.57977675447171
0.582595339734541
0.59091358524316
0.593536508087462
0.579031150154211
0.581011318297124
0.58252363576871
0.578529215408402
0.574779013624169
0.571335613234532
0.57368081086726
0.572352921556322
0.570995304197584
0.562622712483452
0.551188229208275
0.561696966153669
0.543720181718208
0.544454930635371
0.53523968533004
0.533426968190748
0.531101240318929
0.530296339945168
0.528857345044842
0.518379376547154
0.521129927762103
0.514054518420339
0.514711185274841
0.515055238657607
0.509619201682782
0.510921052501689
0.510837821234697
0.509590487179697
0.504465995307836
0.504096569158984
0.506602816839101
0.500983123782929
0.503026760472013
0.504922868598777
0.501647891951118
0.502973356979602
0.501431361065447
0.500089871036089
0.504087404247203
0.502438584577035
0.502214457105529
0.499973428090757
0.50269228430333
0.496211364926958
0.497761487646015
0.501407479377268
0.499993372425595
0.49289851763076
0.493796376939132
0.496493403021631
0.497166551988178
0.49663953975752
0.494519496570728
0.489901552086461
0.493906542796178
0.488716495291136
0.490823982545868
0.487736535529322
0.488653997824505
0.488783968279127
0.490694257951951
0.489126350098116
0.488329708467291
0.48337448843936
0.490735575963855
0.492036053159345
0.490100089688271
0.489027672870303
0.486621651067395
0.485973686280678
0.490954744783006
0.485573201498941
0.484701428302429
0.485695019132362
0.484497660780216
0.487088447432792
0.487091549814929
0.473345379284101
0.469001208930078
0.467651858319385
0.464663045092746
0.470751463133879
0.461189559023329
0.453185184156697
0.455216566432797
0.448582782554531
0.4454167170507
0.442530704112975
0.433708241241418
0.433410884267125
0.432816443613219
0.431292396249734
0.431883210171597
0.432736627735435
0.427958809229826
0.42833188123749
0.426472151700487
0.428356580080727
0.428173955519643
0.428947139935777
0.422989348739211
0.423695070268702
0.426671981336559
0.424188973378196
0.428482420861143
0.430187112583236
0.42942631616428
0.432681498027619
0.432272340136813
0.43691004791847
0.4389455957796
0.438948345084424
0.438134587192188
0.441200928455607
0.44291564202501
0.444454838451731
0.443292241602028
0.449550773753576
0.453786606471744
0.451747745263738
0.450212489784561
0.453758005024986
0.451362023198597
0.452333752226815
0.453591155197412
0.453882511863793
0.452356882513867
0.451541414090005
0.451263670056845
0.45119001119324
0.448897284967498
0.444438506116277
0.446524142828167
0.444655116400678
0.439623279875546
0.440829611749836
0.441537302284189
0.440520803557823
0.440784088969028
0.438027052804047
0.437257502263601
0.431406784577319
0.429279623978274
0.434121663589044
0.429406848526696
0.427539223728773
0.424804155616662
0.423132735219416
0.421025987386544
0.422173224181711
0.421486386431783
0.419390380810354
0.419541073565223
0.417894502818381
0.415844061356236
0.415489012701364
0.414167268413977
0.411185345329264
0.40965896082982
0.408830918462406
0.408179979577923
0.408491225429646
0.404949206446616
0.403341217387995
0.404951300462008
0.396115301997452
0.399542929292734
0.397034067293203
0.392949683614134
0.393897116904331
0.388345409336446
0.382027377320608
0.37899840860731
0.37734984617315
0.376639206793692
0.374546312807467
0.370901013120704
0.367108500312693
0.364858838505358
0.36336383893159
0.363362190522129
0.364841548962924
0.364362491417924
0.364692340827589
0.363712615210553
0.36122713946811
0.361636677845717
0.360111839926861
0.357287759119772
0.356086297784338
0.352397026302218
0.349610822799103
0.344836808981698
0.342073368295159
0.337915083086022
0.334750052733763
0.330758000441467
0.325781721260809
0.322342560407259
0.317109396981171
0.317890420965129
0.317364034237385
0.318377437740492
0.320645730938858
0.323559464343118
0.327827204609579
0.333829693421024
0.340782052201661
0.352777322591335
0.362069434541404
0.371071404187722
0.384146124373392
0.39863298642005
0.410511339800523
0.429969593284502
0.445479277107128
0.460247189969184
0.477261168318865
0.489537188954942
0.50429831023269
0.521137250273085
0.538179101484104
0.555170982508562
0.572494074081401
0.58911699953364
0.595711161387146
0.609904585498544
0.632792774784837
0.641197488948275
0.653984636392515
0.667142256664326
0.670202201025778
0.684596328425501
0.696818533733745
0.701625042603623
0.71047747587168
0.720551415316688
0.726872267422139
0.727127970454454
0.735875665600241
0.739517193214608
0.732942834830317
0.72920575417981
0.737136585185471
0.741815049166491
0.734203536082273
0.743124490478496
0.743129065621408
0.736587929028301
0.732685606862995
0.736978000955009
0.743565968632133
0.738136204403876
0.747060083822118
0.744502246536116
0.749067792522145
0.757575424169055
0.760174890815434
0.768858241508421
0.772626411816765
0.781984902240093
0.788632223521702
0.797416781976727
0.804687755884006
0.81257622216523
0.821440142851428
0.830239068548952
0.845859232919604
0.860551355281182
0.870853426138656
0.887860661928579
0.887108816337865
0.900495680043966
0.912775749883235
0.915762943403772
0.924258255308482
0.923446977637973
0.928301560823288
0.930334780317364
0.938361240876245
0.928468517890861
0.920837450861835
0.923565678723352
0.914343248304882
0.91414682495822
0.914235227242753
0.904881254149968
0.905962750694422
0.908214461580348
0.925436000849336
0.940098067963766
0.94773611113034
0.947649476655247
0.976135707985262
0.986120555080141
0.99666719497107
1.00081748336256
1.01195481787184
1.04030586477919
1.05473660418715
1.05496266195985
1.0733490142466
1.08719418947994
1.10514278158332
1.12095464901607
1.14297837024734
1.13858596046191
1.15710702887744
1.19554232279567
1.21276463996842
1.22817911514206
1.2321419209319
1.25448338367338
1.29091546210423
1.29877346953071
1.32318180273372
1.34562507557534
1.37512844915127
1.38396345069991
1.39680018258254
1.42685657422531
1.45794360513874
1.46331835598498
1.47167278030559
1.46632235270773
1.49476326145141
1.49717641784561
1.49554670588136
1.50280419707895
1.53651999863771
1.56121453311254
1.55815905311161
1.47629769555386
1.49773452406702
1.53259539095435
1.53329199335928
1.4809022975685
1.48600055070031
1.49662676790195
1.4825763979165
1.45199077282412
1.46122626514952
1.51980277375797
1.56898734135057
1.52918703442883
1.50617859309828
1.55480905719873
1.55304897833747
1.54818551378786
1.63508784151256
1.63170056598244
1.62719869777046
1.61450604813626
1.69030416879299
1.71229489370733
1.7150315155753
1.72041137767847
1.77069793304911
1.76315012433166
1.77401870518292
1.81513563667669
1.76083634027169
1.71334154042242
1.70153846123577
1.68474108426753
1.7830165731642
1.78502431427628
1.75564997559114
1.73935754904949
1.76217365977721
1.78319458587931
1.86696030367357
1.90698764925099
1.88315794454037
1.87656406844729
1.77505200394002
1.81322327409352
1.79833560733607
1.78712729460344
1.78856812778354
1.69493717010751
1.84045538367636
1.81449272158315
1.76346983500109
1.78755624973064
1.79462437645864
1.76148099345755
1.76918546537263
1.72658287849352
1.58536474087221
1.51339655530055
1.46599209951231
1.45886411452162
1.39902285514883
1.34536544649772
1.33585105684076
1.28651767569175
1.27014422417896
1.21504664252278
1.19060136164531
1.20026695787091
1.19919580895843
1.17180765033189
1.15791678317522
1.15807676929873
1.14375571701969
1.14932126424894
1.14297882287158
1.10563175939085
1.09917567734225
1.07933929558987
1.05453145848381
1.05118162845535
1.04316490605515
1.02617908937035
0.999789728142233
0.961659813161311
0.937042225789056
0.902920324406385
0.874716377189668
0.854487367972505
0.819493844909874
0.793648882207072
0.766607320328476
0.735126440895032
0.702457351195755
0.670244162838939
0.641257945048248
0.606514423025295
0.577639378390443
0.555287560585276
0.540725427143696
0.523683119142447
0.500913084314979
0.48437413829814
0.463924269049701
0.448138688383357
0.439387441235978
0.427740663414066
0.418920063995139
0.411525902084616
0.399140059986319
0.39130405556896
0.386109062674352
0.38338825817095
0.384671570458403
0.380678211120103
0.37980755555179
0.377886006996251
0.379214888869569
0.379520566377953
0.377841566545697
0.384830120405581
0.38598827265613
0.383510147058286
0.389094999251883
0.394604081253453
0.393316763831377
0.393114316053578
0.397713002978031
0.39369975559858
0.387254305849966
0.38852434443482
0.385965117769974
0.383171586399343
0.381739649720794
0.382198938516284
0.382654917263914
0.380384891068142
0.375827481933508
0.369497728671284
0.366493227017826
0.374650093542707
0.373582452292676
0.373785904487329
0.377530871169558
0.378478196562243
0.384458558151612
0.384274183410398
0.383622249313149
0.389530722963251
0.398616324228302
0.399565810769785
0.400100687558251
0.402249767444129
0.401298532850159
0.397714419729627
0.406452447913436
0.411869739881972
0.408527948413307
0.414959632020958
0.415742684006336
0.41365988624505
0.415065136635186
0.417581327670544
0.415239231346587
0.413029556265269
0.423052990346569
0.424083134178283
0.423661751152039
0.432607594975186
0.4276352391954
0.435165652642235
0.439266963648771
0.44948338277391
0.457268766728745
0.46392460891766
0.482005769508227
0.48703894172435
0.499547197110088
0.522990953540683
0.533656814780846
0.549823911407364
0.555166114627119
0.548340129744653
0.555237513505313
0.55975947507924
0.557155169811838
0.559086175842822
0.548911024093843
0.534526049758137
0.531827934979592
0.522236656193539
0.513613937562026
0.507859074585754
0.503788940529092
0.509046743116973
0.505787997306117
0.499410637846467
0.504598771638898
0.509135098719068
0.499630755618736
0.506239581442935
0.502349274545593
0.505449501447736
0.510187983082014
0.500919114617078
0.497444397519518
0.490301236900346
0.490873208501789
0.491375525539705
0.48420262568111
0.479368644839516
0.467360928875086
0.473149217556046
0.489792054313723
0.476448966904395
0.456193831582759
0.451997100752465
0.445653011326329
0.460120842529412
0.456460635239387
0.440698710531473
0.453752150957603
0.452579402276366
0.45497835167746
0.451719744475931
0.4466942738356
0.452360139518916
0.457330246829485
0.452045280061604
0.442397304356696
0.445316959080933
0.442409442123267
0.440523492293644
0.442246718394561
0.448041277650189
0.445796441023897
0.430388566858469
0.434886472474148
0.456259573371374
0.434085891588618
0.426655398820295
0.434591004427255
0.439568404795009
0.425972683461018
0.426161265422728
0.43150610231822
0.422869482404047
0.432327630947846
0.445859323430242
0.435035688876952
0.430526781727384
0.443476542458801
0.431274809778256
0.418825006354852
0.431850410028346
0.425903922630758
0.428628893676883
0.422463252441819
0.435882868429502
0.437119001806809
0.441053500550822
0.447669288628533
0.446943686238776
0.453847437992637
0.453639973446149
0.454321130946073
0.453234774490693
0.453313953951073
0.456670921565918
0.444825933686151
0.452716418524556
0.464094860366171
0.472423752677211
0.47257796455456
0.475040823306576
0.478550299290459
0.479539382777904
0.495510928496462
0.502136069616027
0.508374499687401
0.50558907887027
0.500322391232679
0.532869154784274
0.522122843990313
0.516945419583912
0.531182185436015
0.569432901177353
0.573198810705474
0.589656580720334
0.592896529889498
0.59112817346687
0.636637280983134
0.646217299868545
0.674265316487669
0.682128803871883
0.674136001874649
0.708119626458281
0.691632444016141
0.72642730450658
0.705032558684431
0.709360518827873
0.729236869961713
0.723784400998547
0.730011829903494
0.752195863742563
0.719676738430062
0.703395009562129
0.671591920893561
0.701997612884581
0.711209662799142
0.695818938012167
0.692163101638262
0.714646726971684
0.700401156478885
0.678261300253227
0.725319905802083
0.746675658178193
0.700822802766395
0.743738451064181
0.694431236939292
0.683424151240482
0.721949952368769
0.722178778507126
0.660213698990292
0.689300220749437
0.700603249206916
0.673573823957285
0.701387547524948
0.742900915330391
0.688154529707969
0.657955319721918
0.63433053732677
0.677407312457145
0.653463984894809
0.662888115868888
0.67230719389114
0.633448268086266
0.622369590967384
0.655236827833697
0.643075561623021
0.651708482692395
0.667695421739139
0.678800161459538
0.681741149010162
0.707864896273954
0.703906815142568
0.674117071534953
0.694255962200971
0.722192512528878
0.70315408739654
0.677008579022939
0.697808424278823
0.735934609352614
0.625309430227731
0.736087410540107
0.70433861380446
0.675384898302619
0.703748092948356
0.675597886253824
0.722191080321607
0.754236340538826
0.69209195089825
0.726081222389558
0.702260971094385
0.678114912337064
0.606941205063681
0.726723411517015
0.758724773812246
0.726044682863369
0.738687576714414
0.783759596203231
0.731186494134112
0.826892523903487
0.832613764806025
0.884554062823809
0.716688739575056
0.766382206151128
0.792772453686013
0.831100678549223
0.832735341207064
0.963327160881811
0.890206140784159
0.8322245670164
0.899981238681027
0.910401226039607
0.92470620912073
0.983343430138508
0.932073757029899
0.887838891216659
0.967922404932034
0.981845450827708
0.83268324355102
0.806967786907211
0.896060551887964
0.87864364053832
0.8336431932432
0.82150637916647
0.814180257508325
0.989350509866903
0.895587029113119
0.996215763223603
0.830432036972282
0.742647713852662
0.919719548800593
0.860012710859111
0.790899159431441
0.86656630074385
0.897227801184735
0.8412097827312
0.701411001623227
0.933658560328919
0.900591671733643
1.0280692837897
1.03227278150016
0.939435497419166
0.738304495229788
1.3482243019434
0.910486575010434
0.691247639075686
0.892660243648688
0.883150103266355
0.776282429325142
0.974906115138881
0.719818449483492
0.892136001352697
0.615362090726345
0.787746585109411
1.13044408759391
5
0.968218514187254
1.26909664533188
1.23282370822904
0.847051534173657
0.90902104564872
0.774123239584163
0.648393341361297
1.1372960658725
0.997884370544941
5
0.719702602926103
0.849468092715699
0.977251669963994
5
5
1.0200296592523
