3596
4000.36533379555
650.420452594757
1
2
2
0.0507159639024959
0.0517114665143937
0.050368004066897
0.052855723465595
0.0439887548588801
0.0535582292288819
0.0502550737421729
0.0538975314550788
0.0495575753307637
0.0507473460880312
0.0443013472633882
0.0541190066900053
0.0543512284636528
0.047577329347162
0.0516387636722416
0.063636315634651
0.0505276792827681
0.0470798658646088
0.039625485889658
0.0489845869894608
0.053498459632909
0.0534416289809332
0.0414751355981611
0.0539244046130875
0.0455130837553864
0.0470140204923111
0.0522846980986215
0.0491275874891469
0.0506654835958746
0.0484801521360158
0.043272393417603
0.0520016980226496
0.044839902421954
0.053563477031592
0.0493360686547717
0.0463905769527526
0.0630951518491621
0.0647426290267459
0.0498521191194349
0.047007998828986
0.0515130623939798
0.0559889030629961
0.0451923193134764
0.0540496767240696
0.0444156192849901
0.047990154122078
0.0431166422205605
0.0503640209658449
0.0508608763589391
0.0432594326774158
0.0490973060890507
0.0498529431188918
0.0421729992703238
0.0531070458766737
0.0449268062377613
0.0465625146074886
0.0444609065102141
0.051274031372361
0.0323499836735018
0.0481690181534093
0.0531454276615009
0.0502182227054393
0.0527550279053903
0.0491285830956607
0.0453541613523386
0.0459621043151828
0.0539039014184935
0.0518488877995693
0.0514965357126661
0.0522115244146212
0.050583248400282
0.0391462469040551
0.0588789805011009
0.0444552590816584
0.040974706839582
0.046620619779453
0.054561787616977
0.0519994895962824
0.045540941777915
0.0477431619530557
0.0520536139100112
0.0506262929582542
0.0528659122770211
0.035965970533764
0.0370919356238676
0.0447517358289084
0.0451447785413972
0.0450411892134562
0.0571044026134465
0.0464433479701814
0.0443451254441952
0.0495496124763999
0.0380832229140248
0.042495980462367
0.0455260274613809
0.0458787031256224
0.0485026274674832
0.0500716971559165
0.0490788949375509
0.0443362842743273
0.0356363867029967
0.0431960704983306
0.054674747538105
0.0641231168556761
0.0430863105242872
0.055470007471708
0.0285883260558882
0.0599968956158102
0.0604653893565422
0.0379667084526355
0.0424084938958911
0.0444768832234831
0.0481735793457009
0.036466864625871
0.0474558240713585
0.038694210387463
0.0613760381037913
0.0445331366597734
0.0486137377919827
0.0429973732728116
0.0342209196028377
0.0467965152610825
0.0576865467071801
0.0461118593599012
0.0450790176751267
0.0410006500037574
0.0395057693783457
0.0602889975644492
0.0587736730609995
0.0479042419993847
0.0404709935921311
0.0419573129166573
0.0354772319749999
0.0420595167905891
0.0411236856749132
0.0480882699209253
0.0324524517728364
0.036560425226929
0.0354770886022228
0.0681263159175976
0.0511639234502294
0.0413534150757327
0.0310495771701631
0.0390110436354029
0.0613117475080865
0.0533703542076408
0.0360132424049336
0.0507196610313183
0.0492753556485902
0.0476312341506228
0.0437186856117972
0.0374353923539712
0.0565763635267881
0.0431564724867608
0.0283821286825956
0.0349968303579681
0.0621545172361241
0.0542583478696975
0.04607973004121
0.055689954065179
0.0322335178125911
0.0472717162260106
0.0303353553857555
0.0557104410176742
0.0425038474389433
0.0403408642032363
0.0464365099321278
0.0525360075887766
0.0357216246782022
0.0432954380238474
0.0429380151773315
0.0358588762693255
0.0416601871088477
0.066164548715267
0.0529704274281248
0.0374427725021914
0.0569063612907025
0.0564372802136782
0.0391942867630791
0.053905354858672
0.049454181104669
0.0501437215763931
0.0367104296503251
0.0532145216226582
0.0396056312535832
0.0532114717716105
0.0492545687346295
0.0487798955669847
0.0348760428020254
0.0345615657564131
0.034267267548228
0.0626075096593759
0.0422124861441421
0.0515444805189376
0.0306346326765857
0.03910424391525
0.0454505039459924
0.0600816795160061
0.0431750649993049
0.0453509557721919
0.0442617986196072
0.0428887755535007
0.0445639648269702
0.0547937642253507
0.0372227997971483
0.039751999871598
0.035193826940756
0.0599708573290557
0.0347734615242473
0.047457318546738
0.0364297601288799
0.0457240481023178
0.0487395966841233
0.0575799370531425
0.0503557828722979
0.0498198767894382
0.044964140988533
0.0656520035407294
0.053189616835814
0.0488678528864502
0.0441750211557882
0.0454727061924907
0.0431930936382191
0.0517983370184629
0.0483512300409343
0.0523795224862519
0.035625001499622
0.0432351745395312
0.0353306430732388
0.0429451910142241
0.0520717699932928
0.0474668454384507
0.0450424839372046
0.0442477067105533
0.0388728510388437
0.0530586789673594
0.0527670976141251
0.0520823468515717
0.0405313627768083
0.0478084698314056
0.0458755397537814
0.0515521007497518
0.041854759785476
0.050909257571291
0.0324372687804957
0.0572794099373042
0.0495731543429713
0.0654024973114719
0.042797417386845
0.0551643901828703
0.0494213693534509
0.0543726762585836
0.0415694061668062
0.043731480274879
0.052597947175235
0.0477616197639492
0.0410279628597675
0.0535110773297617
0.049865688442604
0.0468977239527242
0.0398875464765687
0.0449828318604442
0.0526045637672511
0.0302978023879219
0.0450886791450572
0.0744288033082276
0.0561059012658585
0.0509291657655603
0.0581214978109863
0.064209714461044
0.0639928329332057
0.0399928989974668
0.0371827852508854
0.052886335251678
0.0654081642742697
0.0460622865401773
0.0525205815671653
0.047983020173126
0.0570323653521596
0.045659309000718
0.0389485519457135
0.0512516866521281
0.0635788992436164
0.0806347466342324
0.0527562451610971
0.0549101164898012
0.0448431455524385
0.0562883574704212
0.0404336630693865
0.0492444287263291
0.0520269579969558
0.0512079081191164
0.0619076751070735
0.0602056144191049
0.0643524198833913
0.0435568750332139
0.0621304248435242
0.0534713389150241
0.0630439273799246
0.0455889987044343
0.064506286940195
0.0568708744292861
0.0604874506972429
0.0489373395099729
0.058630731450359
0.0586607757360651
0.0540961456006527
0.0525853397599367
0.0692554890302215
0.0564945360037727
0.0658143853072919
0.0632290748629768
0.0718404547927359
0.0555019505136919
0.0653057376979237
0.0580003684452497
0.0630458299694434
0.0583941806290569
0.067958451010231
0.0692051889659163
0.0674365323652946
0.0586673468734569
0.0653107538138245
0.063004013994468
0.0628597973145413
0.069203755261966
0.0690187993402765
0.059941780595008
0.0698702316290481
0.0585828580762053
0.0908846844092362
0.0650784003545593
0.0681582029148479
0.0833485725991994
0.0822818717530585
0.0722356142413313
0.0635702020763591
0.0724477968446882
0.066938241887192
0.0790328130864635
0.0791463785441582
0.0747574741009998
0.0781479168802539
0.0909841057978688
0.0779944105452326
0.0823182098301431
0.085742416345895
0.106134913913516
0.0889334324436412
0.100428306436674
0.0838457982692499
0.0828525864191889
0.107056718323539
0.0962309225133941
0.109034664291943
0.0966579265411214
0.103229943191864
0.085694962127072
0.110785899924687
0.0996658913664157
0.106407908936842
0.108312830779937
0.11260226396266
0.102956848203561
0.11071622541569
0.116941951672745
0.107743139786128
0.11786762424336
0.131810085898662
0.122873911537576
0.119948278961805
0.112157961891333
0.121960520054686
0.123971128757903
0.142229483228905
0.142623392762834
0.13434691388031
0.147562434291568
0.144291472128283
0.152184916842428
0.137124130177326
0.143048307778577
0.146041411105644
0.152888268425847
0.153021961552098
0.151698313918723
0.146849732326512
0.168770347423826
0.157942151038974
0.1706574241956
0.166048106591139
0.174230507676427
0.177872322854752
0.180703296569678
0.176130395015149
0.175412413905582
0.18533464948774
0.22520147376692
0.210921207279769
0.182915685011457
0.187344269396595
0.181173359001025
0.205589608062692
0.199854150098386
0.217173465791256
0.213183365078306
0.21035441945362
0.221838567127587
0.220900623336785
0.2308513657067
0.221165468106598
0.226370945906511
0.242301760640338
0.237103495086939
0.247870812640629
0.23782817163705
0.239573011390675
0.238244780637448
0.260471330349102
0.235064715577084
0.266351613124685
0.245281426904016
0.270772626419159
0.258444386100012
0.283783880242556
0.271963493735129
0.275163461173291
0.277347776856433
0.286424857852807
0.286146989219165
0.293695409352735
0.288004153909646
0.306009782155084
0.305244008213591
0.284458552607357
0.301488222898548
0.306226744706549
0.316861797648307
0.3174244842271
0.312882922026034
0.34246436791909
0.332288655570307
0.342016711382071
0.314467130396669
0.337624657158102
0.338327884299377
0.366829906730273
0.335404358524105
0.360226639725971
0.354801479948492
0.355898437952048
0.360508092350613
0.349886654018374
0.372795058468344
0.391697998878404
0.38407494152892
0.409968954239559
0.37313321499521
0.380936762596011
0.398700793725646
0.401058979831275
0.393656430438876
0.445151243446595
0.406997032609034
0.456636345331323
0.413954614915913
0.438994806172085
0.408194379553016
0.461925298072059
0.424879583327753
0.456990612524491
0.440819455977769
0.456389891022772
0.444083141673725
0.466845538861791
0.436470872183825
0.489603430656732
0.453915143671809
0.474586178559389
0.500159605392695
0.501126444129799
0.463415276546544
0.495958893852763
0.493880350387273
0.490862986075623
0.481367068000813
0.500813067881623
0.508753675608085
0.523912544414563
0.510905602814726
0.528056913657536
0.526994716812639
0.53585587240074
0.531716327583763
0.551177147398628
0.517655985536983
0.567951023688343
0.58897673087364
0.587566883154519
0.555801234729129
0.588100537578689
0.552424553007849
0.626004036416127
0.59203089566702
0.611040852912493
0.580542696998431
0.631534702677709
0.592169460104831
0.626028390167631
0.575488114980505
0.647875746347226
0.609466040762868
0.65679681128011
0.609783288323952
0.638883579636645
0.611565713587329
0.705318180811117
0.648375012954972
0.677815943093943
0.646991103926333
0.657915028522835
0.675527720490604
0.655853501183553
0.69143871592614
0.687407348386597
0.681491156195136
0.704371181503527
0.654933930089465
0.75594721850034
0.729129761204795
0.71729465626537
0.733345439898641
0.719655402074819
0.688555665844111
0.743022613104202
0.706012381739141
0.731605815356127
0.787642513485703
0.795186652688882
0.71710362224818
0.754667177503411
0.784602835808804
0.756506049169193
0.728104228173308
0.797094228529095
0.748804692695179
0.832859292618966
0.776833651394077
0.835481546070135
0.752706591934862
0.863659643318138
0.787467328251041
0.81318801035166
0.775025219040971
0.827747974312446
0.788805596136903
0.825106861889067
0.836072965109792
0.881223145487439
0.842295536175548
0.947167048410922
0.817303059620051
0.819383434572681
0.843316109500475
0.873440500299627
0.869925418075654
0.939450778660398
0.84601037593792
0.864296558562493
0.844798249216377
0.900246238202662
0.783898962382748
0.938701313012838
0.846825465450448
0.901116198340882
0.904323260837303
0.986358542014678
0.871099289763629
0.940382944592834
0.89247358839571
1.03604778846427
0.916395279069742
0.987167673601918
0.943869009540545
1.00484750897039
0.909318590312278
1.00224296806158
1.01944915382961
0.997320411751889
0.926825177180595
1.06375500882661
0.990713404648962
1.05624678004825
0.936436203409994
1.07785396618039
0.954319323218887
1.0250185664008
0.965307867361302
1.12085937579322
0.997251776768706
1.08964293535908
0.982192630731387
1.09719224010202
0.981106189914371
1.10003146143929
0.980669266320264
1.12841367265336
1.03529170658331
1.15200454311843
1.02206312122418
1.07852320372142
1.06262646251826
1.11635801476851
1.11984726142625
1.18026747853667
1.05399902861298
1.23943451160214
1.10567637168922
1.16225931409257
1.09647755774419
1.13666892488835
1.03723516235486
1.28909164539603
1.07772672715139
1.19642914670686
1.06143075554372
1.14694373072146
1.06029475962904
1.23948396453241
1.08456813407006
1.30007599770425
1.14209774763073
1.14293969482252
1.0265247678358
1.10892514360639
1.07905737321905
1.17224496704627
1.10470045172498
1.26695508136832
1.13531638369184
1.14419626425128
1.03355790150891
1.29580416936924
1.23065438576357
1.27443368388734
1.1956687247462
1.38240245894644
1.14437623656998
1.34459783895201
1.24996338231083
1.40269259419234
1.15325665938905
1.37527213835347
1.33679627374942
1.26309438156443
1.12106895138253
1.40020829780207
1.23854917666739
1.30543364444535
1.25715121592108
1.3346505245069
1.24192850363411
1.32461470838018
1.15361833857347
1.38806584611049
1.21287291093212
1.32204778049083
1.25430151284835
1.31835917208027
1.17134739103066
1.38980236551343
1.28659382042675
1.32216411932847
1.22652513730663
1.39574372857691
1.21754397440101
1.28466952643442
1.15996632858011
1.44705655689242
1.26617915615593
1.59737927006404
1.26997346327963
1.50724210372864
1.42644341034931
1.26549263430688
1.22297511621692
1.43080431826725
1.27941605632176
1.25385554289962
1.2315477788023
1.3673882799539
1.39115732141397
1.41932914325969
1.28761360517957
1.47946279235528
1.28585794317451
1.30121365107977
1.22176317747016
1.41441312286657
1.31421340895641
1.49692100062714
1.29311572968668
1.47423350885438
1.18317828207372
1.3193801513097
1.27343788431886
1.3358689482592
1.28201185391094
1.37044682666938
1.27394493046559
1.45229630727733
1.33971972805165
1.38056091067442
1.28970278751625
1.37789365111116
1.24599320176898
1.38377042736194
1.30653438937849
1.4527054664772
1.25924395555308
1.53962133295923
1.26779488565942
1.35065529372954
1.370478881457
1.40741659130503
1.28978179303212
1.37021685172977
1.27336577101327
1.37614746091052
1.28676290366078
1.42303009131914
1.33143270488145
1.38842533797586
1.20638940718618
1.45427210953831
1.26986132126838
1.46675522092032
1.36012504999126
1.39490208157349
1.32310490064403
1.4413304398612
1.3671682555118
1.2948975468132
1.2864833674459
1.47084840664948
1.29036515585944
1.52175328290742
1.254522392993
1.50642138694437
1.28651507970264
1.34184258734541
1.32038950270652
1.42107453127824
1.33282737195271
1.31177592051897
1.30922813916656
1.32870884375604
1.3201077542473
1.38480184567106
1.40638132921024
1.40931993118251
1.37247438195762
1.38808832228499
1.20797643642794
1.54961007643531
1.24078638077633
1.4173270421537
1.32798050744915
1.39747733403243
1.491791201684
1.41788706888179
1.23883156015082
1.28821105902382
1.30760001573924
1.36246878743768
1.37662802902375
1.48312662304775
1.23396863765298
1.36833488956343
1.31132155159239
1.36371903862426
1.32464422370594
1.40495563068249
1.26714430298518
1.3592063052764
1.45251197721551
1.45750953275236
1.34994621447746
1.34490856533187
1.32934119705576
1.39430695464182
1.28603014646983
1.38595742044061
1.35503025707997
1.36749603498652
1.27215563581795
1.35174944470424
1.31002231216193
1.40078885108064
1.28150335955138
1.42920291735595
1.33485558123973
1.41787178255664
1.25328051530884
1.43270555897362
1.30312849855366
1.41715467586004
1.2690161687143
1.47019261289028
1.31755821840946
1.34556292347201
1.21165006470895
1.27902132893178
1.23193759213394
1.32422876487198
1.31294697424233
1.28859066943314
1.29064088232432
1.29603382340408
1.18563890111423
1.30783225061984
1.21090829828704
1.29095872361175
1.18800892460867
1.35336580272625
1.17096167446455
1.28222041918186
1.28216131095322
1.36250115244167
1.30199713294659
1.27850216048961
1.22508591754971
1.21231231715077
1.26646191067855
1.26664569702291
1.20624352199104
1.31796205264683
1.16801148570001
1.30740732918733
1.18984190813167
1.29728004414092
1.1912675232443
1.27658390305354
1.19405766506685
1.26112095500871
1.21583638700079
1.30527012339467
1.1822371924482
1.29742562545754
1.23189600078423
1.21380579870902
1.20390869489245
1.19950660752071
1.17215393546461
1.24239548710376
1.17856301538038
1.24591123071058
1.16003369763251
1.28334309523153
1.23192283279403
1.26477699824766
1.13867115145066
1.15813601641612
1.16031636331482
1.17908276425197
1.0960385323282
1.16098328771512
1.13138807341885
1.13155279823169
1.12774832427411
1.15118035036976
1.0935266554141
1.21383310992328
1.10388183644689
1.19569460901532
1.06429740315815
1.13469649787657
1.11259012672643
1.07731167010895
1.10125682088112
1.09145547107351
1.02082405430438
1.08764160271744
1.1016454810194
1.10595625192214
1.05958228402392
1.04736092932559
1.03680188060384
1.10681794632685
0.995358971295573
1.06218650049321
1.03517879586652
1.0923920223443
1.00693177977994
1.02253711138721
1.00038893622771
1.0477243852839
1.021531887063
1.003980479031
1.01830983398675
1.04617273036359
1.00295070852951
1.02742165358336
0.990130287062764
1.00522583467582
0.972299258616371
0.990799736399476
0.939467772964328
0.945516165043949
0.999902995969089
0.985603645801045
0.94092144967353
0.989620227928659
0.949376318270745
0.938042032518706
0.921766785355041
0.9755928718315
0.938823920709623
0.940055479030564
0.897335465783225
0.938724392187256
0.896908802339942
0.899028108727851
0.884414586366549
0.904005285629868
0.87558784039112
0.903453095899557
0.869224219526916
0.907202368100505
0.86365059912015
0.893867379361612
0.859911276003395
0.879947423158796
0.858499717999957
0.889364264776754
0.839294248702328
0.868437050398057
0.816460845284587
0.848086582792721
0.838786735921023
0.842328202935685
0.825416688004607
0.824428375676636
0.795720553475034
0.831426250070173
0.806540605771505
0.802683400691091
0.780010136616215
0.803171432987638
0.782704261415637
0.791220052799796
0.774538087289265
0.781866247369215
0.753794524482874
0.765857201610085
0.77059917563254
0.759226137747924
0.74895040546807
0.769981366310798
0.753765621016669
0.744120613302628
0.732529252765839
0.777373585516042
0.736238787664059
0.745083969430924
0.716469403817474
0.734511232876987
0.699254647544272
0.715435650133867
0.694236193286485
0.731970677795333
0.709161457099385
0.709494111700058
0.681395364021076
0.715898219621655
0.670254031879586
0.701665884282442
0.670495850838356
0.684992375021481
0.66547747421501
0.674794559052918
0.655084134327389
0.671960985386746
0.65692294419935
0.65787444655507
0.642890560011911
0.636244071613529
0.643951891760847
0.657779446956703
0.639952656693983
0.663865326654781
0.636312071787336
0.632504279972785
0.636857266643355
0.631542824168062
0.614110521444644
0.622218983325882
0.602073355448029
0.605228233310226
0.609957923179755
0.621760349260406
0.596985605175001
0.605076719723951
0.596098720063297
0.594200332707947
0.576343978770156
0.59635775347072
0.571999028604963
0.586333334893928
0.566053735131382
0.579840337900878
0.552122097385716
0.575527865813499
0.561620819366129
0.567060911326797
0.566759089504114
0.570584280468813
0.545869172277455
0.55083262159514
0.545769955241628
0.548783036653895
0.530866986592065
0.536319409005111
0.519426555141863
0.539206637398093
0.517336599076218
0.514882319795696
0.515795869071025
0.529095222348169
0.518684135525399
0.512094427929563
0.505161574805409
0.519576684118851
0.503120234149618
0.51164979453257
0.497577581638457
0.519027770653907
0.482616419571623
0.493308864826093
0.485227460936723
0.50286437749074
0.490927344832962
0.494211542557223
0.470643347469816
0.477190204764241
0.467610051997593
0.471697769601087
0.467301176579445
0.473154419530543
0.465946351201703
0.467657766971128
0.467530296474676
0.473031327577964
0.452261237908842
0.464474495505416
0.451940389420483
0.453620937644973
0.450908175495113
0.450518660731248
0.444987470858097
0.45236520236221
0.443514753972957
0.447670055285585
0.432237394367221
0.44811797264568
0.428642454361772
0.440569488428501
0.430802709853771
0.443025269016422
0.42698904610803
0.434444715896902
0.418936235016948
0.430130676980584
0.426050724429794
0.434482228559982
0.425355164538892
0.439922548070601
0.420395942209469
0.422979019243397
0.41762172753882
0.423631868683337
0.420594125487088
0.426665498543129
0.41279844637933
0.430213242527666
0.424953143550501
0.426828552685121
0.411808543739603
0.420642191718889
0.41893849489659
0.420782785042218
0.421463612803693
0.426895171480269
0.42626064789799
0.435545391679237
0.435483089739968
0.441011866484203
0.421792008332026
0.438028730158076
0.430518520444651
0.433227651931293
0.429513556270512
0.434349437446004
0.429996017936926
0.438599035193875
0.432480338784877
0.444020961170715
0.430838760032146
0.456798483144595
0.444261384664064
0.454382623226468
0.434609573506067
0.444245900775881
0.455880289602758
0.453960444871279
0.453378968469054
0.463058601451143
0.454856082619829
0.475670401540499
0.467139670385256
0.477261582881044
0.462273263594632
0.472580286280372
0.481901480054391
0.477435300919498
0.47251261604014
0.489484086153317
0.482225315511908
0.48817799207543
0.485395573932821
0.507440619734455
0.499747164605687
0.504136842281754
0.502142755399556
0.520511376247928
0.511904109815614
0.522693588080908
0.511581872090764
0.523388352246057
0.534518243605806
0.540183638776525
0.520836702966299
0.528846691888983
0.533534060261787
0.541219869297614
0.530091136985624
0.542316499903411
0.542599198130388
0.5434379535294
0.533182288126167
0.548601569085328
0.549180459856573
0.55358449439116
0.547141008276488
0.551358862065308
0.54293264189398
0.559279530865642
0.534082199391095
0.549800685202532
0.547879092354563
0.54729564260354
0.530144157891184
0.543563903400356
0.53243870583709
0.52822854046595
0.535797863493523
0.553135517594356
0.529029825535836
0.528520108116445
0.533959605063531
0.541589393091653
0.538440076064614
0.536167211411149
0.530498357340057
0.541069996036957
0.532975681310967
0.543862388602202
0.52993218710611
0.537692787824406
0.517877277430855
0.520782775542956
0.511235363211248
0.532394819903095
0.531859938951313
0.535733673803988
0.528452211466904
0.542929998097678
0.529615770199298
0.524664420030431
0.520528103476784
0.524791652879969
0.530517671664422
0.541682643468308
0.529569943761114
0.539839477306721
0.517450552515905
0.52435104860178
0.521395225403186
0.529956444345785
0.514893497771881
0.532389296914913
0.509138147593503
0.514996944460897
0.509200148438515
0.529187120136494
0.514736803354795
0.507468052655705
0.506793782078922
0.509988572582819
0.494389447925896
0.505224649008066
0.491937605025711
0.50823475221941
0.504060646491447
0.489359340956504
0.479059578588646
0.485866014838395
0.478602164668344
0.484405754977228
0.468145447460906
0.475986245065248
0.468988333732757
0.465779023638777
0.452394947242766
0.461859682140538
0.449790326379802
0.454274233198856
0.45331456145657
0.456215113305151
0.434977473187086
0.448265011178028
0.441413949092429
0.439670579292195
0.430430613581941
0.424197445727368
0.42695863204869
0.420671016487728
0.41423560775797
0.423126414657045
0.418410086598335
0.415091100231481
0.412989679848844
0.414873956991745
0.397252824905822
0.413226079086036
0.404008614400485
0.401705527207441
0.405339422253898
0.402238996857659
0.387143138638146
0.387263936045402
0.382895210147513
0.379189619784755
0.379168098388562
0.381954844515691
0.380944638580784
0.379711950300212
0.371730662975139
0.378894431425284
0.371386861672417
0.373984618762427
0.363048862752888
0.373599359688701
0.363826068520485
0.36914552988678
0.36470134763035
0.365315253000945
0.363779530617191
0.360426012813308
0.35656645076654
0.358303386808805
0.346675828449758
0.351448171468287
0.351029424544697
0.353410245952976
0.348537783118865
0.354631381218825
0.343079252003413
0.349591326675581
0.343145499940395
0.33759748932331
0.335437800242508
0.332746854690413
0.330561423235652
0.337786699953583
0.333737953721948
0.336366886606817
0.334249596875736
0.341213209532307
0.330549316723578
0.334114885340658
0.336316363289367
0.328570259730208
0.324880239768756
0.328249024090703
0.321286049096245
0.324759206812818
0.318584488512974
0.325086472727687
0.313266317944262
0.31977510094569
0.316597274283669
0.316182765261718
0.317089456013181
0.313697232239686
0.306064194111673
0.314151772567212
0.309087014391572
0.306457310638624
0.30693396078334
0.3176510330959
0.307216998220422
0.305876355655146
0.310445309258853
0.307543708812769
0.301325986823931
0.304149918051544
0.297488644567193
0.306407670542557
0.298903133480033
0.305924441045471
0.297136959641662
0.298098947551045
0.290762640719338
0.300822318982206
0.294870219335016
0.298726353099817
0.289255388537267
0.291032085114728
0.291078553460859
0.294948811391564
0.289181533372913
0.296819262394705
0.28831935036916
0.29279786223919
0.286117510406232
0.2892744672567
0.289133823383487
0.288672458416872
0.288025885724167
0.287105031700022
0.280015360916136
0.287983004995124
0.282700730090378
0.28214174304023
0.281655847493103
0.28462582208259
0.278580472863344
0.282216476136146
0.276281840969452
0.285859617460653
0.278093938705361
0.279860476417917
0.274002721494075
0.276446620828156
0.276443317813493
0.273483925614872
0.27178517905897
0.280877761776981
0.277520455359649
0.278298999321238
0.273537890112165
0.279380183880677
0.26974989723811
0.276816412401007
0.279854878291861
0.275608111951149
0.270887071171879
0.272611221116332
0.268655562046944
0.273407885062051
0.269139779277414
0.271333298335211
0.265683680681674
0.271869653864128
0.263429513764868
0.267736222677644
0.268618877549082
0.265797444630995
0.259457528405426
0.263672675933299
0.264767966121148
0.269127876608571
0.257807148525619
0.260587456157419
0.257897745982408
0.265538919355074
0.262776556405474
0.258714221842259
0.256415116635709
0.26215828002115
0.253590768042091
0.258492286153855
0.255470915827932
0.262040145642435
0.250552012017949
0.255412437123613
0.252764211877747
0.252212342621697
0.252674552153511
0.258327476608416
0.251003423412026
0.25367921954286
0.254837846814976
0.252311894698403
0.249585725952275
0.248293938173835
0.242220223422199
0.251222658975803
0.242772173774593
0.24537168970158
0.240630556600575
0.241612493827138
0.244308722116855
0.243296155341123
0.237132126341809
0.239850006167965
0.236859298294534
0.241898207625198
0.242433336287754
0.240132922419579
0.236469631767194
0.237580677274316
0.236337212520676
0.243724594097418
0.235016115477124
0.231670102726927
0.229011519779963
0.234404994677978
0.229315103955076
0.235139104872286
0.228736869718004
0.227785757522553
0.22807217678029
0.227494725259814
0.226484934109059
0.22760624033493
0.222246002573028
0.227407166248928
0.219774648019965
0.222975182771118
0.220988412767302
0.216677852978831
0.216262660418507
0.21971983957939
0.215844028563309
0.219460194411972
0.216647168873896
0.218753068118351
0.214673280360282
0.216547077092146
0.210253869691767
0.21331063140297
0.209222914011155
0.211833074444716
0.206677603962
0.20748516077678
0.203729253878336
0.202044158430987
0.20197577960617
0.204019291650559
0.201530308333597
0.205046984501782
0.200521944153619
0.202658501286465
0.201086259976916
0.201969913947291
0.199025716759522
0.19885772719652
0.191822866049081
0.20104488141654
0.19771549379915
0.195771319191572
0.191757032484835
0.195451409419527
0.19469388309353
0.195054426523578
0.190644090131808
0.1948341536487
0.187739347542131
0.187134816992188
0.187070204368901
0.193203076286313
0.187620357850501
0.18676670624706
0.186225219923263
0.185354297388361
0.183175874220399
0.186332290731775
0.183183979150621
0.187856862661696
0.180851080648474
0.183546333685444
0.177131875339334
0.179309206413309
0.180250862656166
0.180109479338776
0.174869419631162
0.176973854567747
0.176862560369833
0.179683368383641
0.172764660700566
0.175339700261492
0.177732221866304
0.17360666983477
0.170915373229381
0.177994156073322
0.172152192380809
0.17217508737748
0.173500877772405
0.174754622081324
0.169929200850966
0.172128922752047
0.169518814480738
0.168592256785928
0.165061781948234
0.168890945250649
0.166994498151157
0.169402655003988
0.161367369360795
0.166706440994086
0.16744000408584
0.164470953992242
0.165162864515801
0.166995958547225
0.164989764177846
0.163827099131539
0.162603934747241
0.163846060049582
0.16155940358556
0.165811401652104
0.16131804029766
0.162732265240776
0.160261682996965
0.162351180525541
0.163431867256891
0.159336517421719
0.158309946661948
0.161523690788387
0.159477525625123
0.158771171500401
0.157174076966092
0.159573332342553
0.154887262925126
0.161800732929851
0.158357761641308
0.158057207858147
0.157185624262316
0.158728860357766
0.156999433912934
0.156550430710919
0.155218473172025
0.15647188115793
0.157801808422156
0.153454451178217
0.149522827592984
0.154635276241331
0.152070830183592
0.152981581433481
0.151016548829973
0.154573915415876
0.153635328330125
0.150866707183122
0.150534474808533
0.152714018046733
0.153475283093651
0.151521549430521
0.146212278473696
0.148945879394736
0.144602895441991
0.149207875179754
0.147067532292986
0.152040225456974
0.14961739599324
0.149957676915121
0.149070699129422
0.149394812925666
0.143105830319959
0.149983713122139
0.14322903687326
0.144152495083807
0.145844663892206
0.144980565063447
0.146720115246797
0.143613244934727
0.143849611105055
0.145668413473507
0.140966616484438
0.144491165705048
0.14135789076311
0.142775040541288
0.143769971065982
0.142383344584249
0.142142063247757
0.140646087388228
0.137195923330756
0.139678484061584
0.138271822800555
0.141727257278162
0.136779381785699
0.145613394123659
0.142198540452789
0.139812840031932
0.13710628679584
0.135993495613391
0.134990243476674
0.140534050296553
0.13647607382121
0.13619953381452
0.13399481950028
0.138851741761947
0.136319169430363
0.135878767026253
0.137105937119493
0.137387558325722
0.132184506345704
0.136224375089822
0.133660850880465
0.134668579610528
0.131870083769753
0.133840236028331
0.131960740309489
0.133928505650802
0.132998504115572
0.134290730259913
0.13406219883425
0.132745905790286
0.128483029020532
0.130092999508034
0.127796887987329
0.131525911238981
0.127855041355421
0.12667668320387
0.12505902240291
0.127633658258848
0.126151894838346
0.126102238123256
0.125882395872571
0.127391000922691
0.124247617055426
0.125039166162268
0.121100234782757
0.125839709525493
0.122899314912405
0.120892262824284
0.122957805680075
0.12608041640499
0.119966491628616
0.123868213369109
0.121368541049948
0.12029800598019
0.117803245883322
0.123892658200335
0.119725668452219
0.121300038005436
0.11596119420778
0.118242653515697
0.116079592785047
0.117870036080259
0.115784532708967
0.114083221137675
0.111996280432544
0.116576821920833
0.113031711061235
0.113983540973437
0.114852887228127
0.115543793888614
0.112753288756961
0.115262528700084
0.112123474127057
0.112205092086666
0.112124666657579
0.114868430149325
0.110018885046462
0.109710517018085
0.106094648101539
0.110188451744292
0.108155171332912
0.111607859969674
0.108236988757696
0.110232093699667
0.10726038653007
0.108752574949404
0.107092090117365
0.10884417016637
0.103333772237236
0.106224706410969
0.104937278550593
0.10617403331986
0.104457370561662
0.106857028589813
0.103092233583232
0.107171399099215
0.101462362698052
0.102953407343044
0.101436970843256
0.103472891969105
0.100078829794226
0.103066514112834
0.100449382149534
0.103400467305195
0.101274139534112
0.09889478871237
0.0990378680326061
0.103586226430585
0.0991175904080566
0.0985783585987141
0.0962851875222204
0.09799302011971
0.097979813658484
0.0997322180475392
0.0959454000008875
0.096939545920131
0.0956552478159492
0.0975083093686164
0.0944829584881922
0.0961712085110407
0.0971379670876415
0.0976928773634515
0.0964460339182548
0.098018761812818
0.0960787265033833
0.0964041929863149
0.0911243978198523
0.0978484086911773
0.0941873092615217
0.0951630392032133
0.0927022860455798
0.0947590595423501
0.0925445216952951
0.0943679398979639
0.0918234548214181
0.093775091169812
0.0929752622162505
0.094065711888969
0.089393909754599
0.0971237006077842
0.0923792073944604
0.0933695887046163
0.0917439059763537
0.0907158084705388
0.0874160897305169
0.0940761728523298
0.0889680309882023
0.0946097279885804
0.0880283583826988
0.0892918048556601
0.086044790836723
0.085697003250442
0.0816326005581297
0.0896076294553007
0.0889651925614165
0.0926435443521502
0.0846932899915413
0.0888632477420862
0.0873048423663642
0.0898612350238655
0.0812387163369558
0.0910234786341896
0.0877166069054478
0.0890808926148743
0.0855505815238597
0.085448129844296
0.0871520317100525
0.089317362429196
0.0805543087400103
0.0906805626714605
0.0851022870645275
0.0865970128440156
0.0891787099236325
0.0893731226112818
0.0883413407043327
0.0913273404871484
0.0835448266289082
0.0873128340287877
0.0855276722504346
0.0909733904565368
0.0814663795078251
0.0901532298463369
0.0790031114112149
0.0937587529930091
0.0789101526494374
0.0924545695189713
0.077405026859002
0.0921536830100819
0.0711571771663708
0.0893691573861768
0.0709663559509907
0.100590825908769
0.0731686323946429
0.104464423871316
0.0692331589047893
0.0945780340172318
0.0569856515962984
0.104917623277793
0.064306355256016
0.103572568525212
0.0585795843100791
0.104245076193911
0.0582809562943008
0.113443910630541
0.0573006998649114
0.103832377555101
0.0656426159827855
0.103521723214371
0.0619300576326683
0.0947393218814604
0.0802932364149798
0.0857418616052168
0.0829411701632285
0.0840557490841345
0.0888843372352973
0.0779721428958834
0.0956892726105036
0.0728707193527313
0.0908361242590775
0.0764786741790241
0.0892015949164159
0.0806693255272053
0.0802741528984181
0.0849071819845153
0.0827989423833191
0.0877019524806545
0.0808758694904782
0.084825658409476
0.0835733865339479
0.0845201329627669
0.0826540154529322
0.0826113569302385
0.0843850727570312
0.0826746991602162
0.0858549807160097
0.0823413722501728
0.0855450804534087
0.0821309453321074
0.0823105956213853
0.0852967457330468
0.0842879767998886
0.0833038193390106
0.0827191154148866
0.0846749009783894
0.0816150899447687
0.0837080170809923
0.0849805086666544
0.0840963836858783
0.0856553462921972
0.0862698664689613
0.0826852237076726
0.0861642537935456
0.0842494143462634
0.0812479619821044
0.0847283831771853
0.0839189006896693
0.0837355812360973
0.0859568358232696
0.0846025586017848
0.0864018390838581
0.0834310158350958
0.08411507581028
0.0862470850821181
0.0860218188748433
0.0831758260412223
0.0839082216587153
0.0837033530118809
0.0860387958737599
0.0874481743733816
0.0835516919422957
0.0841825318405745
0.0851838433165288
0.084612897951158
0.0865377275812939
0.0832350157933308
0.0903571022318692
0.088990277298714
0.0842394305981745
0.0862054812273843
0.087167542900653
0.0861252317868257
0.0864632951777237
0.0846346963356993
0.0869089354160971
0.0871604056820632
0.0847367275516205
0.0876883598663512
0.0864880074493652
0.087005160656243
0.0873518500546299
0.0847157712913586
0.0856778227814644
0.086827004433766
0.0888128445218646
0.0888621056367205
0.0873946631693187
0.0889798488038575
0.087368432252965
0.0869489841563328
0.0846034612759086
0.0925048777573687
0.0904592869127221
0.0845033997670822
0.0890810527875464
0.0922570269602189
0.0903342000421595
0.088087030577382
0.0908725133800207
0.0902985244402254
0.087556665193974
0.0864707997892483
0.0893949828586124
0.0916608571326874
0.0871225256715687
0.0893527220014068
0.0930635969461449
0.0933251765485868
0.0890289660338906
0.0902650901822537
0.0915789544199267
0.0908705776624779
0.0894601439349107
0.0932019228118839
0.0925726611248417
0.0913134766907983
0.0927268950123515
0.0911618875605202
0.0920941663304502
0.0922604833088487
0.0903754107513386
0.0924843875617237
0.0914267937177793
0.0938741949511018
0.0915204342303953
0.0929001898189054
0.0926084281226694
0.0927098573909172
0.0949592644363205
0.0976810307172391
0.0957957846846397
0.0941591799619872
0.0969432476875016
0.093095005279841
0.0946308034211727
0.0952166371218291
0.0960530074279232
0.0954592004813801
0.0944852043032337
0.0938539475268789
0.0944847713480557
0.0945840021907879
0.0956467357365497
0.0978232337680308
0.0957782021409675
0.0975758085667051
0.0965148838834067
0.0958274281866518
0.0959205786310124
0.0965047266116776
0.0971765613359433
0.0967181933841669
0.0967489217992627
0.0957514762926305
0.0980571849408153
0.0976160523586942
0.0994455677884522
0.0991823383961374
0.100206426738764
0.0979300841941669
0.100722418070565
0.0973324941265412
0.0977048882981861
0.101545589573482
0.0991145867439223
0.0995890510241302
0.0978724462799001
0.0983259574719492
0.0979603671297379
0.0989641037819586
0.100899766387795
0.101510161925127
0.102009577949678
0.10039484445455
0.0996011131606925
0.0991625396604532
0.0994591506206445
0.101925285341603
0.102601420576971
0.10203950526813
0.0997659190013251
0.102037282386065
0.102827827327105
0.101506415988477
0.103421885728053
0.101492754993274
0.101539241781883
0.100739859322692
0.100254702400871
0.0987203423803061
0.0991320199639706
0.101011220712423
0.0998654719475568
0.0990185116064001
0.100465229298528
0.100983602746838
0.097170334453077
0.100038606029845
0.102010192030062
0.0980190335039583
0.0983602274735855
0.100985863202466
0.100504621310141
0.0965490155052578
0.0975786589794595
0.0989807550752846
0.100553563991114
0.0992566988836736
0.097636887609583
0.0964573227209282
0.0954034657667642
0.0980207391009412
0.0981677362285174
0.0991458793360908
0.0997661440211075
0.0966488081377297
0.0979024587380476
0.0966867552083153
0.0972151102071781
0.0971948647834881
0.0985380125361922
0.0976206234677816
0.0969506680559055
0.0961453108241837
0.0967709220061007
0.0971138393075111
0.0955182044810296
0.0975283946026186
0.0961649244972992
0.0955673267100387
0.0956200436351959
0.0978693906250301
0.0973732818659784
0.0948207662924733
0.0942218069724276
0.0976210013949234
0.0976613543767522
0.0926566150090125
0.0977686219490063
0.0950733096691543
0.0952604709992544
0.0953828159755634
0.093744347040923
0.0943738433524231
0.095013978241172
0.0954403657015498
0.0947391662821439
0.0960694079315901
0.0939392877419702
0.0930850397819935
0.0951705038327803
0.095403515177039
0.0913661938247273
0.0947407675931849
0.0948427019940696
0.0965041140962247
0.0943275185397431
0.0958612296181365
0.0919821472970842
0.0935390258986463
0.0924849224432221
0.0926256997247619
0.0928205521543648
0.0923879297309965
0.0925502926643009
0.0945236232736109
0.094535882199839
0.0954505288955676
0.0917606302976452
0.0909989063747353
0.0904419621972364
0.0914871547283459
0.0946431471904611
0.0903847957823216
0.0924695002629312
0.0903082400949585
0.0939464982951228
0.0934079266712054
0.0914648869032186
0.0924734099770954
0.091993658839929
0.0917322440113409
0.0886047380832136
0.0918781923571145
0.0921141162360483
0.0900441707244759
0.090184946336232
0.0908130796424106
0.0897032989812992
0.089900173246316
0.0900217567429407
0.0917106880652321
0.0910929856054028
0.0894492724412136
0.0908068730260116
0.0866182514417732
0.0870675879352145
0.0868888715202944
0.0863675234684158
0.0886262111517058
0.0869736141683609
0.0903931737273379
0.0860374458993703
0.0862869900164483
0.0890088742663823
0.0858058763085161
0.0833795970636774
0.0856268559076254
0.0880945859844821
0.0852837108630111
0.0855157424307212
0.087068651350705
0.0857597043374314
0.0829502780722305
0.0847392205765095
0.0842431499114283
0.0840928935322594
0.0823927854531195
0.0831064914809094
0.0824110016045557
0.0828331777908226
0.0845226965158757
0.0787895963878887
0.0804558224195953
0.0808199520681699
0.0793724814704527
0.0812743926096346
0.079394040694945
0.0818050620870125
0.0819679356890778
0.0799403928132361
0.0800408365650941
0.0771614105556166
0.0788248186710234
0.07838034736972
0.0790408975091914
0.0769959779705232
0.0745589526690648
0.0771049004133771
0.0787971819870176
0.0755859886889717
0.0781292289162056
0.0777748146641007
0.0754749502699845
0.0767945945895704
0.0760503601990112
0.0747366428967443
0.0728707663937252
0.0775121805339057
0.0763924883422323
0.0759411716895386
0.0736878222787337
0.0767441227573717
0.0743927154238475
0.0765659295416606
0.0751382607907821
0.0745758575206892
0.0731651237666739
0.0752071793980405
0.0728140291596962
0.0735489948380071
0.0728358220572265
0.0713311765126363
0.0718889944244086
0.0755639925727422
0.0739134907506091
0.0757847459249577
0.0715050595219236
0.070954393939611
0.0714511241994226
0.0742374695001481
0.0737596056946446
0.0715355200448063
0.072830889012764
0.0723663094670722
0.073230848610524
0.0737986300562654
0.0727066439367065
0.072237190651468
0.0722108468963068
0.070139891373024
0.0707928413767685
0.0739828693016069
0.0711599553157335
0.069881475940639
0.0717571565256812
0.0713320915630308
0.0690548401465595
0.0700005020642908
0.0699219320723484
0.0668449762974934
0.070484355292539
0.071205977870345
0.0688614166718206
0.0706793134903291
0.0677980417059135
0.0712525259938697
0.067938305652869
0.0709604016050304
0.068415916497362
0.0678794322332951
0.0686031866681646
0.0678518694564185
0.0735972744129172
0.0682720712473329
0.0697658018564358
0.0657254602670113
0.0694254598943454
0.0677336783500629
0.0668664774866498
0.0666137147329252
0.0659001208693245
0.0664698153918627
0.0693427463887812
0.0678981662457561
0.0664626032708194
0.067765946677529
0.0693281915480904
0.065730424250937
0.0657151242341723
0.0670210914873463
0.0680920518630163
0.0654523121938661
0.0711594387816762
0.0664524780889157
0.06907916193433
0.0641594921054373
0.0727094556458624
0.0666051256510383
0.0678111405792088
0.0688246715190609
0.066748597907355
0.0680079539908079
0.066060729055086
0.0698966930467211
0.0658285420912307
0.0680185280628086
0.0640520629843514
0.0680726841437707
0.0654407387793435
0.0675149842801057
0.0667178872415603
0.0680953426713493
0.0671020272156887
0.0640187369478976
0.0661986859136183
0.0650230224864881
0.0667431477147898
0.0678736490245422
0.0643933232445047
0.0676025836752462
0.0629306585202564
0.0678087970737856
0.065593004892321
0.0666714491472216
0.0623767381004279
0.0674135017556211
0.062988978798914
0.0680666425626398
0.0623217593574665
0.0689989034940551
0.0626560594560198
0.0662880907166247
0.0630568387267418
0.0663989229675397
0.0636767516514409
0.0645927554615622
0.0644536508703493
0.0653814590119067
0.0653180837627983
0.0636453689437653
0.0657168528505366
0.0633590987891124
0.0667046114177884
0.0620900968227355
0.0661363874465166
0.0684923060545389
0.0673539605855988
0.067177179633195
0.063121971033841
0.068084752858447
0.0679732407154334
0.076571231782354
0.0645289023630924
0.0694633094429482
0.0659098566533045
0.0699798457876738
0.0636731508314067
0.0677584511502815
0.0617201500017285
0.0657679307177309
0.0680673214589013
0.0680046514378457
0.0658300255363607
0.0683508960103443
0.065537637978287
0.0670391331229784
0.0621262029025745
0.067017229063455
0.0633829311142029
0.0682330793774053
0.060087177625479
0.0678256004374361
0.066093442418123
0.0706815308332259
0.0659015997025776
0.0611294365994403
0.0748764128880317
0.0644180737359849
0.0727894101161196
0.062130651219584
0.0705610593279288
0.0659385296178861
0.0675501862113145
0.0684566799944062
0.0680971916805396
0.0676876699996681
0.0678583026761391
0.0655714407198612
0.0688490777336368
0.0684459119317663
0.0656046557459516
0.0716986970378141
0.0751676752823978
0.0741932055000135
0.071576045310429
0.0632633578128894
0.0786715832912762
0.0708330957444175
0.0698919715138343
0.0684965272101904
0.0701468052024629
0.0697232383978516
0.0692937485899395
0.06899135388149
0.069095601506625
0.0688631534362471
0.0681630828994679
0.0724167265078524
0.0699993284440482
0.0702070142142543
0.0705442835675478
0.0696792894585614
0.0721761517752001
0.0735983151215847
0.0711227220640637
0.0727783941007948
0.0718509855426647
0.0725055467386612
0.0693372465634533
0.0714012847836906
0.0693577048402907
0.0767929736412274
0.0742378133706725
0.0766486071010115
0.0753021983122554
0.0749358455359272
0.0765080265179192
0.0762021133201194
0.0733742136643019
0.0789440916829493
0.0675476941577364
0.0902114857200097
0.0732130267088513
0.0902912168657307
0.0730526310792508
0.083690381097948
0.0758647137191975
0.0792444435704675
0.0744897905742201
0.0790683798508065
0.0785004618845761
0.0800272720123309
0.0804191942972026
0.0733969968624346
0.085641399040445
0.0793394602393892
0.0850076507444036
0.0794558067505878
0.082006357912795
0.078182851129278
0.0947282492836927
0.0764766835485112
0.0812968086210584
0.077811365389617
0.0908432825879548
0.0938140127313276
0.0796616943350128
0.0846967550508144
0.0893553454263803
0.0895404470486368
0.0910722565166403
0.0795159521886351
0.0895453720491767
0.0818357705216137
0.0913503035776644
0.0901811034568098
0.0909572233209793
0.0895194521816677
0.0858619735893482
0.0905677807725616
0.0933409244397644
0.0917570309047745
0.090285221046549
0.092726407412499
0.0935596056072932
0.0888291250205381
0.121984357943484
0.087110028324113
0.110848979657549
0.0936041690698559
0.109472038998425
0.0959485915557786
0.108835778450731
0.096362875333977
0.112028101453854
0.106745705133066
0.109831781124377
0.0928374589082693
0.120861466409612
0.1090207989965
0.114623875822852
0.109590796964187
0.110547230389276
0.107709297087809
0.127506553529309
0.122380272177817
0.126103993867904
0.114287772716744
0.121649825134715
0.129922934564389
0.12789418642056
0.129076959059742
0.128267682494141
0.124642096665469
0.127952004371607
0.125934156563605
0.134915063652889
0.131436089641293
0.138658791489739
0.127833923012473
0.142884345750492
0.133148355371376
0.159325269858102
0.143502559951957
0.147216844375246
0.156315528493703
0.156544718015218
0.157071088841896
0.149594807174841
0.154128648284428
0.156832753437354
0.16235308807386
0.160216490612255
0.161004107639899
0.17650323838262
0.161936804476814
0.184803722437231
0.167346059926044
0.183688792834455
0.160796171642216
0.180796034875459
0.237060360035783
0.191041513546986
0.201467586305036
0.18131943794169
0.217467071255066
0.213401184707331
0.215112357914605
0.211784794561596
0.215709808764536
0.213743500719249
0.223871423866679
0.232753975063864
0.237008509763005
0.244960998828968
0.249198909213262
0.242157910939732
0.261130865006703
0.269516210295884
0.294179621038539
0.277129475327701
0.28001329962428
0.291185200617332
0.298030970623597
0.29486708465367
0.313482844642989
0.29879833814486
0.326565283262506
0.335989294224029
0.342902410831056
0.331736006120492
0.351483043615016
0.362431747020412
0.343931002043459
0.384417533932336
0.367206158880376
0.393361072064236
0.374784670786676
0.402450312332977
0.393302887737313
0.397240882850615
0.41172221793173
0.415102199482009
0.420555553977252
0.422426397698701
0.426202877935809
0.436800687711603
0.440018942471256
0.451669496000019
0.440300949269451
0.46370837471251
0.453760045769517
0.604115770187063
0.469993599402657
0.479715304514088
0.458387421981751
0.485891004758907
0.470616273422475
0.477938669259913
0.508350876791699
0.480999568978461
0.489100770527216
0.489870809822846
0.48355119511792
0.488500107132349
0.487316240431917
0.490119935124195
0.478556744125784
0.510903507298326
0.473389602231395
0.52651072207164
0.515165507247633
0.498907523047368
0.488419391408007
0.488225963740918
0.482321273495795
0.4959690652337
0.471060312857148
0.500280802665728
0.483908819015027
0.479304621027939
0.481895885142348
0.464728787530465
0.477504541806184
0.478346765842594
0.454403687595656
0.457726227649755
0.447853484557075
0.459542859805136
0.426685658590131
0.460732553349722
0.451722831441926
0.443264678711388
0.419697051941304
0.416767140915246
0.420474119899687
0.414676898192539
0.406508565539629
0.411582838419319
0.400388410280641
0.405274376917609
0.399533044921435
0.402238100797278
0.395953878119322
0.386969943195378
0.38870551639183
0.385852458172616
0.385860570384052
0.382166137046489
0.377534036828017
0.380519685558244
0.372703051184087
0.37521476814563
0.369937132224989
0.373026279189552
0.372145209063107
0.365022448453143
0.369129899910556
0.362696701319475
0.362602777370728
0.363273410751207
0.353356124683268
0.359659673614065
0.360386971772064
0.354590010014788
0.354512123893824
0.35239220895993
0.354411450616556
0.348884718020308
0.349277060481277
0.340212882662779
0.341433358054627
0.340357798323675
0.319831017961082
0.372971504852813
0.337574250205328
0.34420174608629
0.329654808096471
0.337510097291364
0.329186373661329
0.322636863817164
0.354286989946636
0.329989624287095
0.325794617531347
0.317933699718009
0.311114551352088
0.325828132518307
0.31335784168611
0.310471793693208
0.313262568378822
0.287643202550171
0.326287698533815
0.283862740696687
0.348116185066298
0.318275007378242
0.311184242451941
0.282683064388374
0.29850577883509
0.298535339275151
0.281830758320076
0.286936801131617
0.269046395011415
0.299697684167201
0.280706871011767
0.283994741224309
0.272755146288371
0.265913035599599
0.285154972630497
0.285002284021403
0.263554238423884
0.280560295840377
0.275992947284036
0.258527274423343
0.263795581380261
0.29682564331884
0.262742041574559
0.252955175358219
0.254135565637924
0.247894432514132
0.245749595447601
0.26937767503052
0.243597123025376
0.259112649071149
0.23545854221525
0.244655154907087
0.233873744511986
0.24921853969074
0.229112731722788
0.243313053858047
0.254310572383349
0.226547504967964
0.244757193921215
0.224877432760034
0.260546883393847
0.242693310742021
0.23832292854254
0.217961681784175
0.245160281265291
0.238736423933148
0.234485405383501
0.240470263185583
0.224816192099746
0.227088794099528
0.231793540236183
0.216474446542349
0.237319518459439
0.227858798376338
0.228341179806437
0.23522167745844
0.232836929953858
0.253745472120715
0.225230551655144
0.226371595622428
0.228300248673692
0.225219810321819
0.230414520132589
0.215012574496743
0.255720457801197
0.225238329960819
0.229149954972458
0.253180761982001
0.236659971793738
0.235658639194284
0.238361704293073
0.234934792142861
0.236198677193517
0.246051370493328
0.264439999299727
0.244944565371865
0.26244441927427
0.264924890525617
0.258107612766696
0.264469953708172
0.264985510669359
0.272229922563423
0.271117133500535
0.288775719332184
0.287560596377588
0.288547207423585
0.297445183117232
0.293326004153172
0.318543404282371
0.3224515179469
0.309495723198255
0.341705004572753
0.320849849487428
0.376530848876118
0.347977003691696
0.356450035850132
0.358448885297423
0.368551372668296
0.370606035396269
0.365660767512001
0.380645278702101
0.404092144756711
0.387440816553476
0.404245406844755
0.39616075870306
0.40989024044204
0.397402947133668
0.436678260020018
0.394800054773744
0.457819634998044
0.42654412818215
0.442880849181727
0.428410863152274
0.428024325556625
0.438960408179518
0.436755551962424
0.43416508371479
0.441303731961118
0.435461896032007
0.453708930950094
0.442851868560928
0.455859110087568
0.44104828191715
0.456766813381694
0.457822223827829
0.457115205563307
0.456801943677128
0.463392652128983
0.473842949018866
0.468648552235838
0.462252223368934
0.52609281017228
0.475220429077492
0.487747708924412
0.479766507727116
0.498577600593856
0.487000285909257
0.49361499262144
0.514462598866824
0.512285333835782
0.498744109256519
0.511459278804284
0.510680764584508
0.515814108906656
0.5151412968158
0.540982220955768
0.515246579914742
0.54142791542579
0.499617109977307
0.56348107138831
0.548602021113128
0.542371053076184
0.549118181607163
0.534942296555888
0.538158536180329
0.539622135481714
0.542335851877119
0.538845909909506
0.546736859640728
0.53642171890501
0.54585351061667
0.542277878699205
0.543190636125782
0.547611579811236
0.538381388702385
0.55603795803566
0.530075751979664
0.539881807480735
0.533671339073019
0.538834904796543
0.519768509407147
0.545276824005882
0.538952709060539
0.534436810187561
0.528911998633078
0.527653632916237
0.53353647325647
0.538971198922404
0.529886702175226
0.536225563819085
0.518174001551027
0.540571581319432
0.521009727591803
0.53512998333172
0.551549421809917
0.546540267671852
0.545933687612903
0.542058148181285
0.547777374127391
0.553292875640149
0.555550822206032
0.553722770148912
0.569984085688554
0.562450052692934
0.571411552710911
0.56892590359785
0.568270396590667
0.574881642826063
0.581232342933729
0.586679328949684
0.572386531007079
0.584277085115146
0.572175381888945
0.579340750838677
0.574733411346154
0.572105476247769
0.571528782752068
0.573875336046275
0.559031427392025
0.550971376216171
0.573031065202646
0.553514541095531
0.559244754962714
0.54180503181424
0.545895386391543
0.54012644276642
0.546863030676102
0.542410090888002
0.535284902670122
0.536427587651953
0.528887609682045
0.530903639649649
0.528509931772466
0.527596974508961
0.51886063642494
0.52689105722638
0.526834685717691
0.520108874526983
0.51208442458558
0.516012252550375
0.523638238351501
0.519570781803893
0.513086475800959
0.518343080066911
0.523763285413567
0.516137248063322
0.522904707926587
0.514797892806351
0.518556782937625
0.518802155539564
0.510093394696609
0.51855372510555
0.5113453848109
0.515054585091376
0.50849622713676
0.514661502256015
0.506844446669464
0.508304854250663
0.505814239985323
0.513849934633561
0.504728275007147
0.498650637456572
0.504236518273556
0.506659474204187
0.494371068386228
0.500331018232474
0.495445569827073
0.497176731417525
0.496181398822241
0.499278078271525
0.491851166918265
0.491330574633081
0.48706696798523
0.487387302857363
0.486919106396258
0.492905508412199
0.488985419879785
0.49291708071989
0.492005848704896
0.485918873005297
0.491332838485951
0.484361969836968
0.484306608379684
0.485991195423725
0.483755649041008
0.483578875605262
0.478984135656327
0.480309344006843
0.47259092641279
0.463206026532933
0.462981365108702
0.458577700738304
0.452742152973553
0.455907767697129
0.452344063006251
0.448790174145
0.44372800355275
0.44173928045798
0.438276914520882
0.435956450388658
0.436295152769994
0.434754114743908
0.43169882847395
0.431724737107019
0.429341432040602
0.430417632487184
0.429864060107853
0.428109892245609
0.425957683106329
0.425777539919889
0.420881270076239
0.426343251415709
0.426063396763946
0.428551924342216
0.430849899003931
0.428982009453127
0.431550973564421
0.432084698051389
0.43332018837057
0.434401745333464
0.436130306483144
0.439697377836501
0.437858212323806
0.43970952410475
0.443949400599493
0.441782648257725
0.446337095735503
0.448510591003273
0.449486823844086
0.444432722412858
0.45090914197008
0.450758079925864
0.451643853502854
0.452260912618771
0.449393687031225
0.447518020629371
0.4494229062209
0.451964143650272
0.450550376601063
0.448798066412852
0.444984290474434
0.442057149026232
0.446786682127099
0.445652995397676
0.443028537643834
0.444441129221643
0.439929879166014
0.445035156416711
0.436076403087445
0.435557612262977
0.43801894104806
0.432424423379521
0.428216045828269
0.433493731664789
0.429310216645052
0.428483456676277
0.430182791683527
0.427769530342778
0.425007463128326
0.422725197279896
0.420008319336353
0.423889304453405
0.418722467134422
0.417418562983444
0.413704273966434
0.415463996067156
0.417501247112799
0.415919840172559
0.410498497933506
0.413466493423899
0.40753302880161
0.405136011863078
0.403918605988874
0.401205128710469
0.397258218645656
0.393810008871956
0.391392580804362
0.391694757990001
0.388146323340395
0.386232485923572
0.383485199155126
0.380228096388731
0.380073363839841
0.381413888576593
0.378217405197942
0.374986619469782
0.374385356026978
0.373124829164635
0.371800359822849
0.374613167303827
0.368369422642111
0.370197603374473
0.371381915748221
0.369721636042602
0.367090183674381
0.366398434071654
0.366455833327166
0.362329805690277
0.359544575139482
0.35767177636927
0.352806499033805
0.347627809343869
0.346164105252507
0.338491348934428
0.333432991054442
0.33014276460349
0.326422608578791
0.322780190897896
0.31960456511227
0.319407263468807
0.315662708199295
0.317584630285433
0.317206796211228
0.320681392444814
0.324773175143673
0.329835255632629
0.334739459024291
0.343540786249279
0.352220461494208
0.36303312188724
0.369774234929612
0.383922680659329
0.396591452201513
0.409802415075336
0.425372611515344
0.439561370997414
0.456339945508566
0.474964070834866
0.487432536709692
0.500733320078459
0.523205201046792
0.542858750341965
0.55984341867414
0.578281744250705
0.59782089758865
0.615310525565122
0.635163792139147
0.649730247641329
0.669247270596187
0.68522563985826
0.708086135609529
0.718261058710778
0.732667251849376
0.754236954383228
0.761373317387057
0.764202980896555
0.780566036608718
0.787578859903017
0.790137860245456
0.800571341933429
0.799767586868906
0.796486758894016
0.793701980931782
0.794643518357203
0.799718969005491
0.791998852903054
0.786452409456737
0.785523704992711
0.78122460997418
0.772877735510612
0.780378002472177
0.767681442885509
0.769618242650086
0.77592509129288
0.769145906530521
0.77408121958543
0.775190130356841
0.773702438908449
0.780410408065537
0.784578710395305
0.786551622292236
0.794294723257619
0.805001668115297
0.81781360896661
0.815092276247667
0.829776912330024
0.842032239582008
0.846398896010929
0.860528542834367
0.871380297929035
0.87936429043132
0.894304217392323
0.897519980134636
0.898024553185273
0.919565713633498
0.915434723844478
0.92312880350048
0.923327268244999
0.92942808607815
0.923686714236925
0.922529394051995
0.916650703366721
0.926371601548435
0.914112624815133
0.918567219746094
0.916821670314557
0.923064302519494
0.931685786734975
0.924509345756013
0.927118495606853
0.962840732273143
0.949384644528961
0.960736835171183
0.975967775559916
0.979552134437017
1.00292123869483
1.00872479741095
1.01044385049142
1.02316243640409
1.0269679845668
1.04802554911165
1.06265165475364
1.08077107962014
1.08967022722242
1.10020242569777
1.10641021090492
1.1489281503303
1.15928658685363
1.18277672274235
1.21949071073164
1.21593404764304
1.24037343945917
1.28648461764878
1.28023041686639
1.33591559747419
1.37682784769253
1.33116389065179
1.37056788122606
1.42737696848629
1.43854164029522
1.43724282758694
1.42515285212457
1.4784329280541
1.48062031452951
1.43199613956373
1.4587689515941
1.44393900627004
1.44611833880777
1.42080855685883
1.46781258142331
1.46324178777202
1.42908103138294
1.46173631769732
1.48673410503238
1.4379223706237
1.42189115373241
1.43289372835394
1.43976959759462
1.46948629183861
1.49800195069865
1.4890814050424
1.50495696293147
1.50655932833987
1.51229485705912
1.54084899269829
1.53001427049807
1.60822018238571
1.58855381075677
1.55524122952
1.6758238962039
1.67769350512506
1.62690199057898
1.63086214180839
1.71228554489956
1.71225956058798
1.72551259537208
1.73077927625906
1.80316430813157
1.79119636483726
1.7610670283351
1.77033199970018
1.84830399705601
1.90889278783463
1.9499446642083
1.95886735174049
1.80519798458588
1.84446887562514
1.85785966604594
1.86234559399038
2.05043592720013
1.96032617759843
1.95302386341233
2.29072863293062
1.9726426164004
1.93629249637648
1.9464078877784
2.15359179401638
2.09396658387
2.11663975800545
2.02484747088998
2.03277541605168
2.18357516760959
2.20007393597536
2.02661972730411
2.0608559503388
2.07384156422699
2.0413089533998
1.92602642541363
1.89902222563351
1.84665910300934
1.75544281617911
1.70426333669478
1.792147843044
1.75651669828978
1.64935565289084
1.59711875899669
1.65180188647053
1.60872412585523
1.53375605927597
1.57464413103825
1.60038286020967
1.54456302576257
1.58271330343907
1.5116656921734
1.52477924569201
1.5172154342287
1.44656337910561
1.43417279713576
1.45003347986145
1.38281404114123
1.38987661648757
1.36773817074736
1.33488271470854
1.30790806205223
1.2600539935829
1.21911194624373
1.19605615207211
1.15940878212141
1.12573975203445
1.075534397763
1.0375825979068
0.98991898279204
0.935398435440977
0.901562402894096
0.871490976454518
0.83446468993274
0.792304067746851
0.753083443266936
0.719110681412866
0.690073461393895
0.667590001528781
0.640410052596059
0.618080321361535
0.599514940500874
0.576897497341431
0.556269554061418
0.552010152104439
0.541290723797008
0.520937589265703
0.508434773252062
0.508075185363718
0.498127712291627
0.48587630199703
0.479791688826391
0.47708588918777
0.470335207514968
0.471361687943999
0.469733451418549
0.461453496175909
0.464799862784713
0.469373719332606
0.465474444670199
0.464238750051666
0.46466635529738
0.472425240501818
0.47169583179111
0.468356364433586
0.476664077993081
0.48242150406864
0.480543108715496
0.488325593971935
0.491727940009785
0.48442475072386
0.482705370021723
0.48746332247107
0.491364875118571
0.487777626788721
0.483277545381064
0.481254162487144
0.482014394022362
0.486735410156635
0.487799659746036
0.487028722490983
0.493430226282907
0.49376360274826
0.485981336757987
0.493815238091035
0.498726909667045
0.500539874061234
0.49419508897587
0.495833001023308
0.49766725904405
0.502107060131462
0.503220040337145
0.506589197206033
0.504681059866572
0.508204693151195
0.506653185017672
0.504900598113135
0.507059667741392
0.504367342336604
0.498538701737084
0.506370231521402
0.501225383926062
0.499839964027153
0.498436904313402
0.497402187419606
0.510791957914504
0.500320750290745
0.495824338652696
0.511118648057163
0.511481574686603
0.512011761048033
0.514885539386722
0.530660039671916
0.539147678307397
0.547547589888806
0.547368969378752
0.562489687357738
0.585035943679094
0.592248912315045
0.595562426989434
0.611153024740865
0.60727562485885
0.598042360121097
0.601177817746036
0.60315066881328
0.610059992857325
0.590676525634944
0.578594282039601
0.579358212469915
0.576516018516874
0.571556544950071
0.556851124615925
0.549042681252134
0.536250408570978
0.551567934724522
0.552598992354929
0.546218864403617
0.555377993494157
0.555238935193386
0.557327764738681
0.564499322095087
0.560736726728736
0.552570692312482
0.545362084804189
0.556433577452319
0.556606730780076
0.549339805463966
0.542325638163533
0.545882238754214
0.54315488150529
0.543544100627548
0.539293116053011
0.543054115364299
0.54589568106722
0.532486138399419
0.526619844696096
0.533866184297583
0.534233096163336
0.540747469143498
0.543111862267372
0.534100505696661
0.537448561629615
0.53433227894236
0.521674191697615
0.529080597971812
0.532945880770382
0.534474424144679
0.535903587711039
0.527670996009477
0.535191175414834
0.539509738121217
0.530849509754403
0.536057179457015
0.530374639186598
0.53261747236628
0.531819845397983
0.514656649871597
0.520075894807792
0.531900327206437
0.513852196663774
0.514753503578095
0.518053126829263
0.529726802420651
0.526839409164663
0.506386728094977
0.513019643701567
0.493800837947426
0.496489013869411
0.512562525813085
0.514586973259524
0.508572807128197
0.496159468595128
0.506878659040983
0.508646089859447
0.506350459352108
0.505403603818148
0.508853865376122
0.510269584774568
0.505347311895984
0.512310847861442
0.520183034013354
0.503168230736414
0.512040401607371
0.530017848087015
0.536227180542998
0.536358727112866
0.52862604611908
0.516439479151767
0.527775584752503
0.533116248500186
0.544531086407093
0.547266235182446
0.542742272228334
0.554697422278815
0.551523269267062
0.55382704388907
0.564732979706486
0.572834594774589
0.573994405596357
0.582595392648115
0.599775409382583
0.584684239114903
0.607726531737671
0.616312741408335
0.612371748589905
0.637135912799792
0.639653197122093
0.647361297572973
0.684391990984887
0.683070708714388
0.6838816933826
0.696177125917315
0.697073443425687
0.710250416095301
0.762283118540171
0.782896771634358
0.753447612185103
0.798955477982071
0.798575632543041
0.757709206915915
0.764600543564816
0.784126007814039
0.77511724506092
0.763755310024481
0.802000988317723
0.804570943131327
0.780452755420026
0.768061529977456
0.753604879223576
0.773440192611552
0.770132695820461
0.803096186916799
0.812050404275865
0.763644934679298
0.790109723764999
0.828969873257928
0.811936958396766
0.814259947135963
0.817649831624063
0.790941717251053
0.764801043506393
0.813723157758641
0.757834078789506
0.779311084753882
0.830742750653351
0.750555995419409
0.771781647029286
0.791071326071634
0.771771648054554
0.817265599801452
0.805457865339745
0.786179597368716
0.843653951763632
0.801541052525815
0.777879692138812
0.772605227372482
0.783639223485004
0.777878855003664
0.715542661182002
0.808001063872634
0.811502998823893
0.795709637677191
0.771890162295336
0.755803412579195
0.773769009967616
0.764992644005842
0.772411726071131
0.802453765258498
0.789275927084218
0.731625765450403
0.791482534947261
0.781282271180861
0.766658110758437
0.795912117247673
0.838709448465672
0.831657588796461
0.728571921941423
0.887997980466377
0.874402738493684
0.789447884441753
0.776528569627075
0.810280989677851
0.847437419727852
0.867495831923859
0.793075126051098
0.961154952532317
0.86824186053618
0.847718133022267
0.881991919898825
0.849586017528561
0.843820683514645
0.915599302682729
0.858460936196596
0.830669122941873
0.901809902607788
0.975133809006033
0.928449896284117
0.941046110534163
0.953965994999236
0.995479448874837
0.974771446840572
0.995811336218917
0.916149238071053
0.939276999763631
0.994855671082936
1.07815081416498
0.942880293750353
1.05034304130505
1.01444390610799
0.947967686222399
0.853905154421204
0.926374420115009
1.1898147675139
0.982307238096863
0.906454750164374
1.17209774390342
1.04779954157508
1.07604302122837
0.933902583518973
1.12310296100546
0.975829305963908
0.846496211684777
0.831372530906764
0.953823082239025
0.837592791674126
0.991755762407799
0.98472214810794
1.28089312977737
1.07483497282921
1.17466797188554
1.07942887616181
0.921523325722718
1.00471563210962
1.35337681615628
0.838893920639896
0.858663703295227
1.09745018766081
1.27630405199623
0.81445841640862
0.833888724992407
0.926895415528691
1.14403072923996
0.88663415660236
1.0150360864099
1.41523371087125
1.24575458934082
0.705065010003502
1.43937599376303
1.25713264436962
2.49909382638327
5
1.62905554751304
1.1367730261791
5
0.801803812530567
2.1628797112874
5
5
2.14238011565186
1.0744799965512
0.494776108924308
0.935263625719009
0.935428064652937
1.08792658461606
