3596
4000.36533379555
650.420452594757
1
2
2
0.0703965092660766
0.067896448789318
0.0655241754815842
0.0735105400673945
0.0567993748714101
0.0769252375684739
0.0684595985436396
0.0725623652212171
0.0625079641547135
0.0673551786945622
0.0634140555028976
0.0717535157596734
0.0590961115302828
0.0721325498149738
0.0687087667973001
0.0806965947011994
0.076333048898866
0.0687884790698042
0.0494931230531767
0.0709258737550671
0.074638703023477
0.0679538863374964
0.0604184275259872
0.0679678132660043
0.0628176065029761
0.0755774520266157
0.0577128927766956
0.0647816603056263
0.065706029128711
0.0677264300392231
0.0638138684974098
0.0725030950854475
0.0623941070397835
0.071775626958797
0.0678894058544352
0.0772053939597624
0.0796644871751436
0.0780154613589033
0.0659746013838417
0.0742529326472961
0.0707149368818794
0.0736834034335939
0.0621438495782231
0.0786919094424584
0.0662686466937731
0.0646710763269541
0.0647864662093977
0.0744155687914852
0.0714386709955807
0.0696549318652395
0.0567115333235209
0.0685979726609577
0.0644175447833823
0.0712178434809971
0.0709539437149858
0.07725330707534
0.0685638636527296
0.0713555938941768
0.0517949495464906
0.0714498013645948
0.0636158132076059
0.0753779669454403
0.0697100884242731
0.0766961944377512
0.065275606792195
0.0691791084839221
0.0685314941269186
0.0713948500864494
0.0676914346877861
0.0667008965109595
0.0692056321029785
0.0678518449157319
0.0781943484715766
0.0663941665072149
0.0663879774350263
0.073730082609995
0.0655503647928981
0.0699234032753076
0.0594798999955751
0.0606797176732531
0.0685889939142655
0.071581794553689
0.0620074358952893
0.0593595568073398
0.0597273559435487
0.0663196965049532
0.0641399701525666
0.0624266153466187
0.0784224902438018
0.0632553530668024
0.0640056556760505
0.0768580783703087
0.0661577107567421
0.0703115910024538
0.0699972134996207
0.0700223507448251
0.0617453232586149
0.0655461384652836
0.0691560870264484
0.0680796836716472
0.072740153594948
0.0669829859136987
0.0701920895935301
0.0822117204489511
0.0639055669621313
0.0761812031055544
0.0499536860472834
0.0851855016330069
0.0747579557878125
0.0696133666264835
0.0600746351691961
0.0634619314431299
0.0596663066618617
0.0600478951343854
0.067022175320196
0.0628358312713003
0.0881438438749342
0.0672817938735881
0.0659903810913592
0.0622622087316756
0.0562518661629415
0.0645486205214163
0.0798482499464808
0.0651683851991821
0.0622620158128733
0.0659405869618504
0.064808856168411
0.0731957135429531
0.0746131913890715
0.065105363193695
0.0593435477952388
0.0713430928429814
0.0614800539122135
0.0603882208982565
0.0719446936671125
0.0671106971116844
0.0536038177372839
0.0717383485915516
0.0588472754331518
0.0867522813119793
0.0649564245057638
0.0616442444502142
0.0568838971550247
0.063636332628969
0.0910796162867209
0.0718607977709183
0.0571382900016932
0.070598981896163
0.0590237820770724
0.0597658272485799
0.058258402960287
0.0612957160973893
0.0818771509938673
0.0613208642213729
0.0553458780003786
0.0601001212727473
0.0884143900947646
0.0688418664188554
0.0692084852216313
0.0664213994663603
0.0468828204588106
0.0709793488905891
0.0531535121568435
0.0692771604919902
0.0548339122235044
0.06166558431079
0.0629011045584954
0.0827514575507884
0.0565547500003179
0.0599580454363408
0.0755277795460726
0.0676954072753307
0.0546930225982118
0.0823230197831018
0.0789520709505165
0.0608403999769998
0.0728653377381833
0.0676119363929566
0.0573388076966956
0.072408102563436
0.0643166583077346
0.0638803505457347
0.0559708930177264
0.0680135879537899
0.0594176939208718
0.0706460003097153
0.0691347418558871
0.0677236480937241
0.0598685056926841
0.06185074637162
0.0575151902466547
0.0793206200034049
0.0685824797371404
0.0684789099630691
0.0485208240798895
0.0596640203490533
0.0640909601601582
0.0954022537999153
0.0602270927788235
0.0619264956619368
0.0593501420686715
0.0610117587974889
0.0615083142372044
0.0651924502803986
0.0578954727539488
0.0591497865831713
0.047008683032361
0.0815306774805735
0.0499097408646763
0.0616534238275024
0.0602735198042858
0.0757506143522933
0.0711884068504188
0.0822032564824178
0.056746025301484
0.0628639779267651
0.0541384680822665
0.0759297336225997
0.0645914378203792
0.0607931391870879
0.0595287717333803
0.0651640730922623
0.0594414513465446
0.068069555843868
0.063686356286808
0.0714649222688655
0.0552428069098655
0.0612562702472962
0.0541905984231619
0.0658887632661236
0.0621938460621091
0.0662396425603398
0.0590476737709808
0.0640020280125873
0.0592664164308311
0.0699078172875472
0.0740188983416025
0.0667043782497825
0.054481031906504
0.068690852918322
0.061082378661559
0.0684771854813316
0.0605778642016508
0.0620718205912678
0.0506938240705988
0.0663173041135877
0.0646879507071329
0.0828194540198142
0.0512917654493487
0.072077993328517
0.0595218536456663
0.0811875362676142
0.0561448668854089
0.0617653012424117
0.0605588677235658
0.0692702914197026
0.055745070276807
0.0681779376099665
0.0646547063437182
0.0687006955925709
0.0570699864792524
0.0647794672721811
0.0564935811315767
0.0539813697346241
0.0591510126372913
0.0782015865622532
0.075451521786676
0.0716667464630243
0.0826672856587829
0.0756360607026315
0.0609135981142401
0.0649056056553881
0.0493834095282063
0.0746081678171956
0.0818274066549559
0.0582230700994885
0.0713709996126392
0.0687475832991184
0.067800359076901
0.0593417943417258
0.0675931111650144
0.0636304729157634
0.0770284720248093
0.0970350860627154
0.0678548588934839
0.0754366238681233
0.0661140261124028
0.0906632930345663
0.0621908509055849
0.0765389431510112
0.0680542087866718
0.0784364868805566
0.0662071102876171
0.0810208158581456
0.0731732124818773
0.0646185429435018
0.078721465438103
0.0863243077366872
0.0852726937431039
0.0701020269502154
0.0782963281212183
0.0748550041926527
0.0816955376948678
0.0713226405685752
0.0748740955296056
0.0798397016304453
0.0713212991787353
0.06279585109833
0.0855632663397276
0.0880847416913326
0.0854720211628176
0.0925165191325679
0.0929382771984557
0.0763663090180787
0.0882401159665145
0.0825545986348827
0.0885317090236456
0.0879132647927903
0.0936971636878609
0.0960173062464246
0.0986905996170704
0.0883811014283474
0.0966411786165024
0.0976956252505425
0.101718811864548
0.100587076583017
0.104996886684498
0.0973275261282418
0.102820937495834
0.103919481011096
0.119461581365741
0.106784066036399
0.113600121162456
0.116256787157633
0.128651281429632
0.117109458073265
0.108640817733811
0.115014534125298
0.116102089867221
0.132664098955808
0.132930761447831
0.135427463605153
0.127625646755224
0.148639240421213
0.145633446996428
0.148260595873837
0.155127302671812
0.185803409376683
0.161397678578625
0.16532810629624
0.14671651885445
0.160659921375478
0.161779235037888
0.178384462107578
0.178562214378698
0.177171291253552
0.185347558138313
0.17585569560497
0.196427678519166
0.193660320152258
0.205241787770589
0.210577776250172
0.217033259667113
0.201943603011449
0.218772661095774
0.222831175403625
0.224686964945562
0.224720829332375
0.245701398497006
0.242668985099565
0.240399759970164
0.236972897180451
0.242660827417491
0.25521690680822
0.287217625166239
0.271560658538413
0.269370369400834
0.297043181258374
0.283705624765683
0.288079754468788
0.286133852803563
0.293663296717142
0.289915505527348
0.30535801225579
0.322566746459203
0.315974560498198
0.304736395309778
0.320744775158896
0.32655100831354
0.329163629296513
0.33403992028795
0.338331244255136
0.34313832744609
0.355825402227311
0.335834659410144
0.358100239196037
0.36858031433869
0.415452711200975
0.391540133198901
0.369844505440776
0.379916297846631
0.375849312275694
0.384579910762429
0.372185129652026
0.406314524559833
0.409418833724964
0.424050955493567
0.431588627344053
0.422609571866818
0.423657646078627
0.417658355809766
0.425941345420868
0.434619756217649
0.43520377424005
0.45044505824904
0.448597308218595
0.443693049007786
0.454568914253983
0.466031891911202
0.450167893459718
0.481215403565228
0.464567306527194
0.47869490138729
0.449910818685473
0.488853026758999
0.486697056768646
0.492572495467817
0.496792776366464
0.497561494800748
0.484095244758305
0.499629101590741
0.505274327225348
0.520853258742689
0.519817183140543
0.537249426333178
0.520435697337397
0.526853408029965
0.538674012832656
0.538747850402138
0.553988419674559
0.58222923586427
0.57908347782395
0.616067665517839
0.577788225211049
0.562579702843349
0.569777177943712
0.578798853508802
0.571376507460608
0.627965668479031
0.588419502647479
0.620417843865584
0.586392555929028
0.62111038545982
0.598068268727017
0.632558687941983
0.63620708827978
0.66142425081157
0.625136029600241
0.626927239171795
0.639921174987075
0.631432639849035
0.650679980914568
0.715258368263901
0.689606120749103
0.74746385804928
0.657744507742527
0.68603351555068
0.651557533298724
0.691713321464959
0.670098597227773
0.730719621890693
0.689964782324226
0.719134718314816
0.691885248960283
0.717659834216856
0.676987929766158
0.753522754122791
0.7592720196305
0.762984462565576
0.732641952612852
0.725952333622434
0.755998650842016
0.784312046828766
0.73569880859874
0.763695285378083
0.736829755758096
0.77192886441964
0.826653329009117
0.803343573084164
0.786280882653809
0.790339272864784
0.756320721575067
0.837990142508059
0.806547211694631
0.82950267091067
0.758221386645863
0.854557118493501
0.871693157296391
0.861682039524459
0.798425979591156
0.863127452781075
0.863686810440541
0.898922738773621
0.863659716005317
0.856159087814977
0.836504461717239
0.877454648705895
0.846799224273072
0.890375604180423
0.8708179479576
0.931212035885238
0.910562792764475
0.95272787814899
0.890367186128925
0.87457743116735
0.869111250992524
0.976275380289624
0.939123796536849
0.990101703558018
1.00978592846429
1.02792919656781
0.982709606582054
1.03396039459517
1.02691344319882
0.986738074309343
0.954420233639422
1.01862910778489
0.931322824926938
0.948576260772027
0.977351075619439
1.02708882457598
0.951411092413792
0.976893970097999
0.975849383013617
1.09376704569015
0.978569094811506
1.00707008762994
0.967566567282787
1.08784390483097
1.08876712846442
1.18694164618434
0.956341920955694
1.09722198649755
1.03475581505896
1.07674026013143
1.01858638372948
1.14162846934174
1.04572976621792
1.09105640827333
1.10434385869238
1.22787706664469
1.0949648273994
1.31591737900709
1.06900617628186
1.26483086053641
1.0835961400701
1.04949351468208
1.03681632337968
1.17144554370157
1.19033932810243
1.19120302048384
1.11785694665068
1.20353494464414
1.16176146171292
1.29762114068414
1.15746198325278
1.11353077366497
1.07591668456165
1.20163347573997
1.21265659567166
1.21419596802039
1.07022390545401
1.28831575047286
1.22095171016163
1.22374826759573
1.23457894346613
1.31178533680217
1.25075674254056
1.19869594272132
1.24754537284675
1.16493045698079
1.26669572979743
1.49105359894266
1.19933403393499
1.34408186997813
1.21922885403908
1.27562418680826
1.27750227303203
1.32085387623157
1.21711946489329
1.5963375820459
1.24352051150938
1.25396634674437
1.34675681737415
1.61794603204986
1.27724300201328
1.27885141700153
1.24734923427403
1.52339730745989
1.3494327780473
1.32318968880238
1.31446882079051
1.36329301294942
1.27295376138914
1.34972977748184
1.30100134857395
1.46784043491138
1.28588343991882
1.49166157405915
1.40628414121105
1.51746659005584
1.27034020769725
1.64260887193269
1.34467497919386
1.57866561730609
1.61128192182115
1.3911200216837
1.35467656704515
1.53251434556316
1.36524716968227
1.5387660225862
1.29223399140639
1.54637283271623
1.41641085144268
1.58916636790877
1.4532718211389
1.59226329042437
1.39430495554472
1.35288172745328
1.58645492742282
1.65726851238068
1.38232622539366
1.61679567809358
1.28784714022757
1.78695637299964
1.35169816705841
1.55100157001309
1.5248429861753
1.59611719518083
1.55105955609475
1.63318283252182
1.49037355299285
1.49335983999851
1.49675018890007
1.65330793861355
1.51086700380641
5
1.35423800198037
1.56820767113234
1.6275037401851
1.71011337270443
1.4040483492234
1.80211927919404
1.44282651774322
2.12640726687595
1.37861930157491
1.63048802928766
1.6637714659261
1.57115855944396
1.67721493680092
2.3740411451256
1.4508407075562
1.64143437181804
1.51153784105535
1.91325305321155
1.58322090304588
1.64630431658228
1.48121202730275
1.76290122091418
1.64540226117246
1.72910729209312
1.48415443174315
1.79474090474837
1.56457835368071
1.63273285286144
1.43806213412719
1.75779491224925
1.6753243754513
2.32538542677718
1.61546810161142
1.95343130020447
1.7788290646728
1.89549712308708
1.80372698755928
2.14721943834271
1.6603179381387
1.8778204983568
1.6694484165046
2.1445807718128
1.71540378400251
1.66825761340784
1.58215019061302
1.72447359688505
1.50142637413502
1.83248039848294
1.59495109317973
2.00681222875278
1.6057013802043
2.001257353674
1.48666307037295
1.64733440326025
1.62420849342373
1.76563499387831
1.65659881364172
1.86512304823152
1.40920332710383
1.89318328812303
1.53190581160378
1.69222912496128
1.53816428620336
1.58121464434816
1.58075715135139
1.8593347422069
1.56951795904869
2.06285577933047
1.68981072148867
1.98402553782231
1.65790478310212
1.77359325265765
1.46965663912233
1.71499897389804
1.58802300827413
1.62402792791606
1.56239724081655
1.65929766988842
1.54289318665791
1.67105927926025
1.83864889113222
1.93559401184548
1.67772189721378
1.70703799492666
1.50378076846121
1.96281343104082
1.71627239629936
1.77026515877611
1.98041847497641
1.71593077399679
1.77068752739164
1.55308367314749
1.54932022120664
1.62871639273015
1.54626208915612
1.66109843962708
1.69303474128497
1.7631832980289
1.61654040071602
1.95191692098763
1.45418070635608
1.5955507345032
1.82521821481076
1.90102832488822
1.6519061413424
1.61533817623877
1.96721078230758
1.86333721983235
1.50814543901936
1.62084741257863
1.75921138008157
1.8590559786625
1.47651963117252
1.8120189113727
1.516133269476
2.00388197837076
1.58696871770871
1.92417571427935
1.80970268837243
1.7241043565695
1.58396668521679
1.63143596498409
1.56343220647918
1.59439469140742
1.61408919071106
1.81163455578269
1.4709825410426
1.64121210529616
1.69513313518847
1.76158345482319
1.45224235807461
1.99758156555263
1.41775938628602
1.72651950391606
1.54308845121193
1.80751585180729
1.52138848625632
2.32373969225245
1.69613684160441
1.56037844575856
1.60166394378168
1.66633164655198
1.6568834403127
1.60331180784288
1.64552827466023
1.6530511250037
1.72914406179278
1.73222688427449
1.66364144171249
1.64300794405716
1.61874773092334
1.69658876330798
1.5722320890337
1.50936283282675
1.66890680904944
1.79338941505489
1.54896991603241
1.5402163490018
1.61095747057518
1.59194479771111
1.57634007944961
1.7610800387116
1.65224736704317
1.91835797786062
1.6798619090927
1.83510696050402
1.57904601283106
1.69462423880321
1.64027330575191
1.71244866519216
1.79654567551933
1.6304975102803
1.57080053823097
1.58787791898409
1.7481236185456
1.49849549336442
1.47900784792301
1.72059718530939
1.72266841543919
1.80235200332179
1.58885640360237
1.75451504757727
1.60100898767995
1.58628214341835
1.5645980095791
1.75746553298849
1.78302372928206
1.54868575133318
1.67658544022926
1.72607246917914
1.4784936169154
1.61973937984159
1.57309348852827
1.87121759192137
1.54860451704532
1.54498573491985
1.56737697581196
1.5576772156176
1.58660137022573
1.57954152053146
1.49191037834471
1.59593811722785
1.59225874063428
1.60730729785978
1.4630170537521
1.573917899449
1.5215386827674
1.61856586585158
1.55961917229948
1.68325984708811
1.4918520967486
1.51154080032627
1.45370568822023
1.56703795382609
1.54490972803332
1.62299186663097
1.41534815399904
1.48766365744572
1.45513749673738
1.48570348400069
1.51041582800136
1.51931196057906
1.37364911386795
1.56944684953455
1.46178495743654
1.4926601469455
1.45144887471798
1.50249193473413
1.31323664230315
1.40431324178998
1.41676730136394
1.42146203191323
1.36823964880152
1.41070572739166
1.33897200339161
1.45773598108567
1.39237173688741
1.56877506307186
1.46028051394996
1.36431701798198
1.45677690976245
1.48356201694268
1.35392597352845
1.46127133593271
1.3658017838819
1.30723366432316
1.27844010754592
1.34060607452119
1.44094540985282
1.31430102939579
1.38133562785336
1.29498614857286
1.32522857713156
1.37113084328439
1.30111391702503
1.33568129803139
1.20711508636909
1.2373664448006
1.2316278162957
1.44056364518188
1.31485078996506
1.28623071417639
1.22151101857798
1.26609233205438
1.24730386602436
1.24013804868335
1.22794352130086
1.23946487989493
1.21696424603012
1.26912375777391
1.21265364567923
1.21093336571198
1.13563963783223
1.197003576248
1.12514271635801
1.23262866978862
1.18521372644338
1.15757668521838
1.1311153905531
1.16809657571492
1.15899225506308
1.21689220048248
1.12605831016364
1.14578646702083
1.09488621790433
1.12335395886973
1.07298425202511
1.13390270442105
1.09897844308549
1.12771476885246
1.05880920910227
1.11268918807829
1.03305361850743
1.06016533477859
1.03220940775732
1.05118267411035
1.03009348026951
1.01565587597899
1.00781583136803
1.0463047842646
1.00126441499155
1.02386446018615
0.996406859111122
1.04066529544148
0.990055300050585
1.00894759542614
0.985184964063383
1.00211005241579
0.931568530315417
1.00468562625396
0.968890306714027
0.989996187201257
0.919431671807556
0.944500614891156
0.937795107148878
0.966193259239504
0.914755624332365
0.94268039819849
0.919561397340484
0.91833193178101
0.900031832085106
0.923253228079658
0.86985098187774
0.880987580835955
0.904363609541897
0.900169550233047
0.866263654800947
0.86285715544943
0.843489682084767
0.851403020283788
0.824243764292074
0.857160809203923
0.822102573841779
0.846681498356485
0.828780343053307
0.850664829703929
0.815938388895642
0.824839681810476
0.803404945674688
0.80381315527254
0.7883145186912
0.800538646668766
0.776351487271575
0.789479424099559
0.774111127403143
0.770416771435279
0.772398259339228
0.777852586503455
0.761367905699586
0.772466678359131
0.724621686271351
0.757608178146314
0.742575930243708
0.752330798449308
0.737630301603894
0.735947137983334
0.720797704615088
0.745941030947628
0.705183184021193
0.723357645457956
0.69482087444304
0.71542403079118
0.686966951066995
0.695392612209012
0.67262218718259
0.69475966710988
0.653764074390384
0.68543315871123
0.659454885470634
0.673925533752148
0.657912224235288
0.665344738723754
0.656698718316118
0.652416265201462
0.63846301155037
0.6485567241014
0.636029381245473
0.634674309518461
0.619057150925739
0.648717883839409
0.624121367845587
0.612448609535465
0.607225276459624
0.612310152154464
0.58856977297634
0.618953492717613
0.599827981582088
0.604042029865553
0.586474806784238
0.590439346946239
0.584872181646294
0.592945429993902
0.573238602096714
0.578434532188817
0.565968637884429
0.578322465462931
0.547813947856084
0.565998888673164
0.539042194147687
0.557810536219507
0.549363037250152
0.556966607487865
0.537947145243005
0.550136185048487
0.534860909853953
0.537241376863776
0.525877898720526
0.523701092408221
0.519560573559787
0.523158757467954
0.51124882826613
0.520543732475758
0.504922027203695
0.521312415013702
0.509729161531351
0.505513898585508
0.497387082733081
0.500244883730293
0.496038249242665
0.505957478351625
0.485864356917177
0.497630078524941
0.472957993067502
0.488368308204002
0.479633440932657
0.492114779708723
0.460855464625731
0.471345106236432
0.46880925270095
0.470244092772154
0.465503128336441
0.466583266458125
0.452303161051192
0.466205443168153
0.455167165376937
0.474057887323505
0.434909445394723
0.459231891866647
0.451203769313569
0.455644720168568
0.452705954373261
0.449522465373634
0.439258822339385
0.444199379743547
0.445597311166018
0.442634359217135
0.433878793247587
0.438875485432978
0.429593481510599
0.441947933951803
0.4325527557852
0.442859795719585
0.426669943225282
0.436980291725222
0.425938050414189
0.43556231384266
0.424095345135951
0.429866953878482
0.42239746277951
0.425511834340538
0.420856282709519
0.431371167381531
0.416260570689581
0.426533417553728
0.418046309582359
0.425352089908423
0.421167829370331
0.431011516939913
0.406111331803084
0.425362670038602
0.405342540709308
0.412340243360922
0.421265998724627
0.422283314869201
0.416571742614232
0.431287624473548
0.415648893903137
0.424950731855599
0.424637864619645
0.425497628707389
0.420878014098768
0.428813675940244
0.424117648799044
0.427637434398874
0.430156529043779
0.424859002048538
0.420596855392491
0.43370838632972
0.432210341691169
0.433585084854081
0.421844381809139
0.427880415506477
0.428742777446245
0.433552595756364
0.429558992323213
0.430063756684088
0.424269872548043
0.425970002681082
0.418365997048637
0.425498246526629
0.411805744812691
0.427843974214459
0.41848474896435
0.424282281955286
0.422127319419815
0.423172523427071
0.416845658953006
0.411966181867543
0.404814627684664
0.408907718694276
0.405778619550549
0.406941039684867
0.403604914803502
0.405929873708155
0.397526723051269
0.405144762019896
0.393114713119694
0.394276892380733
0.390685157201892
0.402741361242513
0.389180243606065
0.394100607562715
0.387153561932576
0.392549593250146
0.380490795099781
0.386792376148827
0.378332344509801
0.388319211902599
0.375796068225279
0.383705134532056
0.37007907724233
0.383240904246501
0.376603694978541
0.382270248796813
0.375432667462731
0.383129872251513
0.371017428676081
0.374150426244647
0.380937826730114
0.380892471194876
0.371572302582441
0.371197757488241
0.360625267288589
0.367413010062213
0.359960901456468
0.367569173745495
0.367979003136003
0.375328100749491
0.364459506412594
0.367595106520097
0.354623654239678
0.362793530905095
0.364312404234364
0.355404314695474
0.348444914128963
0.359586090616938
0.349074879510855
0.354174648612775
0.348189536358157
0.341347395973081
0.341798455480599
0.344848755793466
0.331898325545151
0.339743360759512
0.33227524674399
0.340883651722328
0.333628626567785
0.33936635996647
0.323388928485374
0.32878114903904
0.321783937928062
0.328437859210394
0.320429949628777
0.32261383599996
0.314295566097513
0.321261527215956
0.306554331098591
0.317028857581401
0.305705762315963
0.314220191924935
0.306216404773419
0.30885352471899
0.29498823897754
0.296246040458365
0.29551203103058
0.300590452235294
0.287359975831758
0.294374443855434
0.294299835489884
0.28801477612995
0.288166558196669
0.291017683465238
0.288135260302772
0.28215849173592
0.280496816928633
0.287396560901016
0.270548530154497
0.283104757669139
0.278272988814629
0.279708422797133
0.272603756576923
0.278264153297797
0.268766488253045
0.272707103978576
0.264025152353024
0.264216637305773
0.262035819370349
0.261331974553254
0.259041293515962
0.266939199215323
0.250197152685165
0.260614835795445
0.260920633365341
0.253331381492736
0.247981339979978
0.251624419280788
0.246495517801319
0.25206286649833
0.236186401277225
0.248050613900179
0.249828728463563
0.246637622244142
0.239381435056492
0.241796271923513
0.236507363598806
0.238643994281785
0.23434638035939
0.23759003853397
0.234212793746248
0.236127993632703
0.23433158121163
0.233814857754792
0.232279484611321
0.233292313965822
0.224816032012081
0.23038374444884
0.222891707733579
0.228478555065369
0.221654639464954
0.228464826800055
0.218611522042816
0.225696001799929
0.219024274533862
0.224835000642029
0.214903738932341
0.217546007665092
0.221325266602376
0.217220370666491
0.216906846657001
0.216365839488927
0.21048699818059
0.214268098679516
0.211735368176923
0.215883073637634
0.202341194545323
0.20925408705841
0.207181207477523
0.206055376617087
0.210842651167232
0.211777252503751
0.206086928769109
0.204868285993221
0.201828089743182
0.208927888069142
0.197804516768106
0.204064929167883
0.201342776506606
0.200696315559544
0.202974190093357
0.201939738148027
0.194003885822112
0.196692216614161
0.197661574338994
0.198087381704155
0.188493965142817
0.199432486115774
0.188659434236722
0.194774885475696
0.187880785393501
0.197409785651116
0.188079661830046
0.192460737282403
0.190720774091231
0.194713553160791
0.185972917682119
0.193014428696511
0.185581157307635
0.191500052241991
0.187543275074209
0.188761654474627
0.188287812288743
0.186824525858483
0.185178650515605
0.185175612140216
0.183339441213916
0.187855192907353
0.17829213568612
0.185301285470892
0.180783034247805
0.181308284227291
0.180766594931146
0.184489296499734
0.1732818048386
0.179876582430755
0.169784265003932
0.17337738325835
0.17711058001452
0.177145424306047
0.177530432090546
0.176798065603812
0.169314525933522
0.177874804554583
0.175796721429388
0.174508645894532
0.167458160184557
0.175933964427834
0.171129259622674
0.171982471817861
0.176033559403493
0.177985821899098
0.169303204645577
0.172960330095603
0.171650934379592
0.175320259913004
0.168905421587925
0.170432841926408
0.164657943336176
0.166314602435353
0.165103809275289
0.171128979566106
0.16668490550991
0.165453557844541
0.164940005327581
0.167759921097529
0.163111894663375
0.164201372434866
0.162559083779404
0.164554315586574
0.158791991826851
0.163065350813932
0.157328264141677
0.165487898633114
0.159981081880852
0.165336310655122
0.153991784255559
0.159812574248352
0.156134893007473
0.160765723173387
0.153769024546772
0.159240041424147
0.158233788488871
0.162510963921046
0.153609594697555
0.157927881137382
0.149146970843354
0.156522728768099
0.153467125882527
0.153883739965963
0.152816839447967
0.150204692003999
0.148903910811938
0.14887141286257
0.145643121466583
0.151567620700959
0.15005666926713
0.149120714266097
0.148693439072317
0.153590334707289
0.144008355876347
0.145452317415495
0.146132020814149
0.145821779018952
0.143065613921792
0.146216161114403
0.145213865151356
0.144673462161245
0.141353157486559
0.148793466115736
0.147031465986236
0.143296109873892
0.138180103795044
0.144284712701814
0.141588341733687
0.141469042664688
0.136728903845401
0.138220133013151
0.135283179237005
0.140771076674229
0.138241193497648
0.137059106598378
0.133577993934225
0.138438178962347
0.135440891492577
0.140551939374066
0.133354450570048
0.135126503441275
0.131606105980663
0.134535108569797
0.130187591593216
0.131233946964121
0.131265206295541
0.13182946952714
0.133248232279408
0.135061530055221
0.128743926842052
0.133888073038067
0.130173092942649
0.129913839995507
0.124739887149874
0.127326532393948
0.123525333619038
0.124663042513651
0.12414087774005
0.12348509628549
0.123906781346625
0.125608377755235
0.119071997215333
0.126686248639873
0.12317639610322
0.126137240562645
0.124371677118905
0.123439644632588
0.120585420515811
0.125838644670773
0.121317056824795
0.123999641922177
0.116417841815614
0.119506900087815
0.117770287253268
0.120418779997702
0.118525464757555
0.123438011113265
0.114309372971401
0.112770696242361
0.118100346496899
0.120951434645302
0.117741401031524
0.120643807588419
0.117802600098429
0.116777688651542
0.121358252707438
0.117136590875138
0.110175276652348
0.11754013916489
0.10952297266833
0.114402128898661
0.112270233516655
0.112842509009305
0.113150112201071
0.114159928567175
0.110501165862386
0.115766453093242
0.111007679072297
0.112726750021382
0.11279904940683
0.112185555977029
0.113718537203432
0.113222206552828
0.108134275875174
0.111754535083801
0.111583081466502
0.107824999971663
0.108365087986955
0.111544861876614
0.10958442625358
0.113030451262085
0.108646921694891
0.111006173359871
0.109279292094648
0.109936537112271
0.103662882946796
0.111757210485728
0.106140809792049
0.11093555759381
0.110432822459553
0.111292717084518
0.107352980983323
0.107869525425788
0.106983839018517
0.105860042921983
0.109116362808151
0.112162973984277
0.10710436450736
0.108147483220631
0.105997710776534
0.110878361730008
0.106110463337806
0.107596277870643
0.108215565315855
0.110212168118357
0.10966984627249
0.110088444855873
0.103524553766832
0.105233099930687
0.105413444914915
0.106006694602934
0.103033970231122
0.112362755557483
0.108130141127057
0.108340817550928
0.103776313108727
0.108224222391369
0.105352644055831
0.108386565329291
0.103978751222606
0.105698864681278
0.104999767445638
0.109997634413196
0.103271150130868
0.103952875311633
0.102948415927236
0.107087018991194
0.105647146946461
0.107196618369628
0.106807900263666
0.105716488648557
0.102667637096331
0.106719393846859
0.104269935854128
0.108126192024124
0.102130996533009
0.105729474524734
0.0993877360299347
0.105693345317459
0.103519998520855
0.107386408465641
0.103802220587808
0.103155351134153
0.102118612439472
0.104934159227712
0.10216232403899
0.107688742557315
0.1018817088058
0.105075590184349
0.101778311591903
0.0995244695939287
0.104800118376917
0.103491166559834
0.102356069852471
0.105832563268565
0.0995927035132574
0.102221528364499
0.100747795576303
0.103439849550349
0.10299811068408
0.104039003771709
0.104128043177294
0.105368296443395
0.102258303762072
0.10551130033337
0.100968735364513
0.104385740818151
0.0996963641404676
0.10676744417286
0.101248060708204
0.104535764567019
0.101671890864019
0.101958309950385
0.102986563893389
0.1035017647409
0.0991751025306871
0.105433690225836
0.100325594443
0.104245805221767
0.102550557973028
0.103418250535412
0.101946488614779
0.102909866008473
0.103013623997136
0.102055701864768
0.102314305533855
0.10734037777548
0.102613406565758
0.103285189187707
0.10122423924156
0.104933683904524
0.0997023114586417
0.0989561350649418
0.102671202925595
0.102123414132417
0.0980393967202387
0.103756191104817
0.0987876873320461
0.1032376349319
0.099654138437633
0.100749778569773
0.100342753635613
0.102741526293022
0.100778547013139
0.0988551461888059
0.101072199868913
0.102941105355157
0.0996908431723578
0.101545656461895
0.0970773404831698
0.100624195044979
0.0992979453867955
0.102204955301474
0.099870996319132
0.103827370877121
0.100271442762379
0.103192797238519
0.100799492393456
0.102832135430881
0.0988734039390155
0.102114387572983
0.100490251999213
0.102173165980584
0.0975273077982416
0.102751024724601
0.0986963697811831
0.10095073754385
0.0970287343235667
0.098371518410709
0.0988371365387837
0.100400032254754
0.100688673059673
0.100059076368114
0.099411989215186
0.102769327184608
0.0968733448394227
0.100755566741673
0.0979924544683443
0.10041103052154
0.0995257978558185
0.101110747703166
0.0995569676900589
0.0991334876863466
0.0954369949643736
0.102526706780304
0.09991136556542
0.101121402737334
0.0975770912372204
0.103511566126562
0.099794958315201
0.101636112025875
0.0983154679015658
0.100171612521245
0.0965797259456953
0.101691701767952
0.0996229624922957
0.098622784515738
0.0973817493108505
0.102356149899866
0.0962929563770661
0.101660098736134
0.0995752106942882
0.0999554350706921
0.0961769090406913
0.0979553975835428
0.0963930638005038
0.100827197873666
0.0969363677460976
0.0999052181365778
0.0984896409310536
0.0990658165440682
0.100910178074986
0.102311233946029
0.0989618067401445
0.0980176124637368
0.0972477660637933
0.0994397995230535
0.0952589829428528
0.100202676907866
0.0975958645695948
0.10122323129832
0.0973035274282351
0.0976633960546025
0.0974610671483364
0.0987654216037422
0.100014408282894
0.101908550751622
0.101601540164527
0.101413562184723
0.0982769431909513
0.101334582914804
0.0982102549191941
0.103665375912424
0.102988037354604
0.0988697258386716
0.0964821055834288
0.100662881261479
0.0987743176068914
0.102433081203522
0.099051476989568
0.0999504048606472
0.0997688966404895
0.10370183945789
0.100434091754731
0.103803887649454
0.102279966450765
0.104036613679507
0.100967543486135
0.100833719742301
0.0992509628846013
0.105653693819688
0.100256105737727
0.10640893664439
0.10080233034275
0.101701472561326
0.100402771392683
0.0989820326150037
0.0953943468181982
0.101153187688891
0.1008944707939
0.111564627680427
0.100310613519855
0.0978290293783476
0.0998739795222465
0.102644241163077
0.0973639663855055
0.103612314290568
0.100179285241473
0.102295711600888
0.102357578755769
0.101322744823892
0.101897461436293
0.107285831239857
0.0956660618763742
0.104715311958528
0.100651262404492
0.100452353016218
0.105022356158239
0.103776041016188
0.102682524788635
0.106086729183827
0.104753003417046
0.102326978542328
0.102703629649643
0.104592423884366
0.099499001142781
0.10857229131481
0.0960715598512112
0.108162226912237
0.104321521874515
0.114341387314418
0.0985542759360525
0.111902872881914
0.094144412822739
0.111589645344907
0.0880553178241402
0.116004718415593
0.0940979547552403
0.127917294152817
0.0941282475401005
0.117906735724412
0.07495285841886
0.125750247853859
0.0859873241062421
0.134007194118304
0.0755435929236631
0.131477859582875
0.0771935388510309
0.142136817899402
0.0725280453327191
0.13406608010545
0.082843369587204
0.137966271149313
0.0819294037429713
0.124708586135796
0.0971799651211441
0.116169704634377
0.104331353326822
0.115034355261686
0.110174881247276
0.104713283804074
0.121326469506666
0.102350011710087
0.121918988825099
0.104743120296207
0.117307967682392
0.110442503973223
0.109526402421491
0.114191281980142
0.108506903555105
0.116338387300963
0.10864641232062
0.115541869720723
0.110447429216166
0.112833834784276
0.113672265872905
0.113272306536879
0.112809301517899
0.112352640500771
0.113266581585293
0.113140459292885
0.11645798560557
0.115785334189703
0.111771196770367
0.115382529941175
0.11399408593542
0.114677989877453
0.116265889011207
0.119850042425873
0.11475565522719
0.117426359341916
0.11635227399958
0.118875572630034
0.117446052152573
0.117349801622008
0.114785876091693
0.119396912200443
0.115015688873903
0.119018469461753
0.11913765135267
0.119380992377272
0.119365719377308
0.120525961860357
0.116562711599179
0.120051675895691
0.11848788062018
0.121733673615896
0.121512598178149
0.119031246020951
0.118485190369495
0.122078611962827
0.122112443057007
0.123782269129983
0.122156929789613
0.120754720584339
0.121251209969254
0.124125915929803
0.12093117999744
0.124194419752281
0.121706593122409
0.125352877990192
0.124463450550864
0.123757492422598
0.124005027309231
0.126056349563955
0.12451610908832
0.124653120223083
0.124592035790395
0.126312101135081
0.128131188588381
0.125652378537503
0.125878475027066
0.126363669362372
0.122916278947383
0.128733711981535
0.126754009235811
0.12404575850739
0.125176965465454
0.126854742384137
0.126384377284587
0.129572396404213
0.129496065124107
0.126584459471975
0.128395179650656
0.130710632986942
0.132638429594038
0.133097868519856
0.128941128389013
0.131323942346057
0.131157694661517
0.131844205458935
0.13076975467528
0.134385013891311
0.132125633762804
0.132812578821922
0.13149950418779
0.13226879682402
0.131669318166913
0.132218195600109
0.134645359089348
0.133534031339971
0.136078378517409
0.135129051322728
0.135285194110339
0.138255537490437
0.13765950370321
0.136821454983772
0.13777631175336
0.139094051420404
0.13815186549485
0.138653959126791
0.136997555458883
0.137133488454562
0.137999638835597
0.13962604539631
0.138906919552302
0.139323365340872
0.138953966578502
0.136942302200811
0.139564090842929
0.140429174072318
0.139968779433035
0.141334388545496
0.142075216480969
0.141056215025351
0.141338292230853
0.144430072797223
0.141679505539193
0.141933793924686
0.141979022721353
0.142668780779379
0.144629757240096
0.144528542797793
0.142947596968997
0.144769769137463
0.143154695345862
0.143064659741886
0.143893022926936
0.145628497221717
0.145283042151631
0.144049563766908
0.143403581589321
0.14728845930651
0.147875831889039
0.147196852384634
0.147013012948422
0.148426859234152
0.147036583981427
0.146776323638365
0.147395469532312
0.149818404941327
0.146656785523609
0.150229890649422
0.149818405632194
0.151505747319795
0.150674399599945
0.149847475978584
0.149174997740651
0.149746384756502
0.151640791305201
0.149091476250766
0.149473728175666
0.151635042636954
0.148900343556909
0.152205040178043
0.153179828719947
0.149751631058793
0.148999146685641
0.151955131712666
0.150603471424193
0.150087527583149
0.15185431656766
0.153967908482262
0.151464785884416
0.152261822733902
0.152549701541671
0.151450021743784
0.152023787639325
0.154305647811118
0.153006476032015
0.152205818667535
0.152896746421127
0.157869943515289
0.153843046818447
0.151384256388652
0.153297528142789
0.156087058377592
0.153837792427745
0.1551780644878
0.15358674134011
0.152304576503125
0.154982968072701
0.156925460641083
0.154232401935659
0.153722581360374
0.155504256083679
0.15422762333758
0.15435808049193
0.152346642314137
0.152098900012546
0.151583689123924
0.150756452235561
0.154096566865416
0.152800056550707
0.151864610399544
0.153365666179324
0.153506566286657
0.155974632541234
0.154131182615954
0.153301405873876
0.153843271188243
0.154726730022334
0.155129972152645
0.154468103465616
0.153715700155385
0.153661713415714
0.154309354198353
0.152992113600013
0.152653351948528
0.154931278286498
0.15346457846064
0.153362193651865
0.153415291020517
0.152872125390481
0.154903099380331
0.154603107327697
0.153961184381674
0.151488957479589
0.152049706882542
0.152665828737874
0.152002727074234
0.148834079007204
0.152629893625066
0.151948914257182
0.155180043403621
0.152573230360978
0.151694050857239
0.154393026130378
0.151995654135636
0.15323696417643
0.15414697837357
0.152576353264757
0.149252315119228
0.149253749765694
0.154371779204097
0.15190577275695
0.147488469472741
0.151364813846411
0.152463113606843
0.149855116691498
0.149476070794213
0.151243723870136
0.149021246531745
0.151780826852031
0.149591374943981
0.148848970677794
0.149675650331621
0.146465329250595
0.148403784079284
0.14701442935015
0.146366012980583
0.149285904988698
0.145913185286876
0.145272879600821
0.148213438204205
0.148176801197562
0.148262392770847
0.145000619388679
0.147875393273633
0.143624754045682
0.150999146686576
0.145230783883249
0.145060028153767
0.145760234843835
0.146381574586062
0.147168026741275
0.142806874962367
0.143778500707927
0.144319153223459
0.144064555948272
0.143575687377444
0.14238845558739
0.141312572348825
0.142436963850185
0.145002853004279
0.142133392543602
0.14208308150265
0.140964591180794
0.14348335746409
0.137433210091097
0.137920091192552
0.141666938519007
0.141172991389534
0.138871411884897
0.139325939820919
0.141690095388531
0.139300827294416
0.136029501937866
0.138352862462132
0.136272200999931
0.136314681177952
0.13690284196294
0.138334324130934
0.136812098888223
0.136941719460068
0.13484649107646
0.136480796329976
0.134615705913248
0.135150936546512
0.136502892166461
0.132345295299613
0.132730898564336
0.132260088839099
0.132230989917085
0.132721537048395
0.132549472806852
0.130320672091779
0.133810845643009
0.130046667416595
0.131050033343645
0.128907286388349
0.128131959747765
0.127764692226408
0.129561674899974
0.129995262118757
0.130873628059254
0.130693098081273
0.127611222451036
0.12764187921722
0.125598841452
0.125327372760035
0.125862067699369
0.12668378194532
0.127324903904838
0.125143844597995
0.125996847337266
0.123691927740504
0.122217956447072
0.122791636248836
0.125763409074802
0.122903969760707
0.122955426179091
0.127250598940502
0.126825613381048
0.123848642507699
0.123970325494237
0.123711028449554
0.123591026823627
0.122123985279172
0.119411898828465
0.119788485543696
0.118401870834709
0.123214838120925
0.121356968143887
0.120788400439222
0.116858873309506
0.118772239207292
0.118810109481571
0.119703567514769
0.119165522712336
0.117231552532947
0.118051212871535
0.119034698023803
0.118645954454775
0.119221626899075
0.117836815196739
0.117351859480071
0.118210850415307
0.116282493919371
0.117439935537604
0.11815385221959
0.116156948701914
0.115521174196783
0.116303392380885
0.113871338384955
0.113976633119302
0.115263301352555
0.113730415100448
0.115092645431789
0.114536759724307
0.110917985091954
0.112416290770004
0.113072044109807
0.112991292432184
0.108755706150155
0.110129716961418
0.112457147533003
0.112272462120706
0.111813164214223
0.112049069842732
0.113420354256239
0.113031839693331
0.113034840905049
0.108647792693861
0.108623587478727
0.112149901113766
0.108277268295889
0.112876433825702
0.108664876488895
0.112768009356116
0.106901835364235
0.108664434056657
0.110954813698347
0.108438005959046
0.106077755120651
0.107609468047543
0.107190814218007
0.108522140385903
0.106520936707783
0.110604664748835
0.10652773083594
0.109850802080475
0.107916066239653
0.109987994562827
0.106167497399543
0.108344334913968
0.107935869571025
0.110925397424517
0.106110594235462
0.111340722942679
0.102596765251211
0.11361061771791
0.108165821115337
0.108458186071152
0.107744643571423
0.106195415672996
0.106638537854423
0.106270739739727
0.110756967362598
0.102674593532575
0.107408030978241
0.105918598196612
0.107100095313877
0.103404782653751
0.106082397507764
0.10507780939626
0.106847571015987
0.105369714489522
0.103263385823474
0.104264849891027
0.104419247494618
0.104248632525536
0.104597078162572
0.10519901005753
0.103812582761219
0.102668513118903
0.105838114117366
0.104071863329924
0.104342601843842
0.10185251352242
0.108062201438678
0.102802118044223
0.107994622145658
0.102209114143968
0.107789398208667
0.100387746309746
0.103981722794108
0.100505987213476
0.103374659949553
0.1017198473131
0.104180158794077
0.104189886543288
0.105719004411202
0.104355139533576
0.104814229673291
0.104328339022987
0.101676310882212
0.104543787165372
0.101254575957214
0.104052861591921
0.102227725940343
0.106417268550646
0.103238686251924
0.105344879339727
0.109161675975716
0.105776940534162
0.111252867810173
0.102028217452446
0.109601352364647
0.102903725464496
0.105659913129543
0.1025437119894
0.107453282934001
0.102727916574451
0.110358564341966
0.103846134963554
0.107399559795193
0.103564531181639
0.107396458113523
0.104663999031783
0.108011739630266
0.102607373352227
0.107341919092837
0.101933857741321
0.109190384628665
0.0992137835705538
0.109579089912193
0.102066768535081
0.112105104095212
0.104694172732057
0.105065161998297
0.114123850140173
0.104309496041799
0.11293741946011
0.101138690366381
0.10967891764964
0.102578274873175
0.106136780269645
0.105424245706513
0.106334872774552
0.105682446168261
0.106679032063271
0.10403533488464
0.107551544896548
0.105847649010237
0.105344785246522
0.112655867794863
0.113289919980263
0.114974050466463
0.113257537459946
0.104260900003574
0.121169105445034
0.109903229639471
0.111727043654354
0.104996745044654
0.110824299537696
0.108482968079827
0.110899738660299
0.108657047491116
0.109534077899037
0.112252803284132
0.113062126487229
0.111377049024246
0.110714666410989
0.11086306270551
0.11107896172948
0.108259812632711
0.114914315753515
0.115595776004785
0.110735391116198
0.113472185054246
0.113804315954901
0.111109403715991
0.111060551322639
0.116468861530967
0.11293838754442
0.12084784591406
0.115263597112962
0.118715124265891
0.117007631057619
0.116558163578322
0.119376973243154
0.118205556078169
0.121230009595083
0.123599996885825
0.112133882857052
0.134285375405339
0.114122361811476
0.137791755097588
0.112525761728027
0.126808464507626
0.117028475065283
0.125107634677483
0.117770493345943
0.127542339103218
0.12598117854646
0.124290282410496
0.128590896422762
0.121645144926714
0.128352637202177
0.125267311219629
0.130970582348947
0.125765166758847
0.128713255123696
0.12524378732905
0.141490943769727
0.122736953720801
0.130981572272494
0.120743138734107
0.143774549737673
0.146677895818448
0.126507855122315
0.138494506282867
0.134339260333536
0.139396734774949
0.139031959731725
0.133891021958666
0.14299426035666
0.132262801300646
0.148506268271084
0.145721807175931
0.142173962154032
0.146191530277286
0.141497336975027
0.148374435334402
0.152195730068862
0.144287215950517
0.14590152163855
0.148891277471705
0.151499101569485
0.149701583921342
0.180266520108212
0.148383002547848
0.169419910563562
0.150725143628465
0.172702634852021
0.155211701138096
0.171094621288705
0.156631782545178
0.174715622473822
0.167459366683683
0.171666639203538
0.154830637160422
0.185549611036564
0.170346582460406
0.182835052344594
0.171954377960214
0.178306196244332
0.17524735640277
0.188768935834815
0.189704438317934
0.196999848475514
0.185416793366565
0.192285861622685
0.200656960806047
0.201422056987623
0.198739108403291
0.196313462243881
0.199573338333266
0.199238128443823
0.205628679892141
0.214327881140268
0.211889936480152
0.22208116932292
0.210850391444842
0.229405387907089
0.220908052473159
0.257836475827857
0.234997059593307
0.244107837181589
0.242649535725843
0.255096571921226
0.252161459000741
0.251326406905573
0.254280245020961
0.263945504087141
0.266638524846895
0.268115689692325
0.266361310225909
0.287843856786721
0.279290315271321
0.307709274947897
0.28691567724754
0.309550481118563
0.2877103002777
0.321984739084277
0.364275731689982
0.334953451848739
0.340540367197573
0.322077971204709
0.359452874354916
0.361044033042607
0.361243248463133
0.361404962643724
0.361901601754963
0.36406788377791
0.381072706537537
0.391821851941306
0.392356160382319
0.407625120452616
0.402689354123742
0.405008250940662
0.432557351856938
0.468900352435325
0.465902040637387
0.450048134413884
0.452815278419226
0.459830752745655
0.478664355368443
0.473337557975579
0.490321897577844
0.475529462540963
0.507210533516038
0.520761709950042
0.529783166854363
0.517895204951686
0.540562028246696
0.552919544415072
0.534527672868617
0.585995532129535
0.566279361204872
0.585826821010902
0.581483362748947
0.60158595990099
0.592852075450965
0.598291024895025
0.614758359941462
0.622686420583638
0.634022900397224
0.639526040499887
0.643976415092496
0.650804145767127
0.671130110804077
0.671912467850226
0.6656112300401
0.721332661916617
0.704281523446592
0.867431172465777
0.707387823674233
0.71044629591127
0.700627393221163
0.709774811691025
0.723437047453955
0.722305852137769
0.745940394093403
0.742941054185255
0.736668790782391
0.751983383994339
0.748120358275688
0.736562145195795
0.747245937157214
0.757122233326775
0.759209183591501
0.788150629762007
0.747666637156069
0.812804280148791
0.771823570462087
0.740261936714049
0.735191262823722
0.758239236418604
0.720015234614937
0.760721398248162
0.725084062981282
0.74809347752083
0.7450464801851
0.737987458841997
0.705675348444159
0.695222853256204
0.723209074113321
0.71286220996516
0.688894252142504
0.693692592519102
0.671907235234119
0.667639997593922
0.632618785253214
0.665248863541777
0.683812173955662
0.639695150875311
0.621270003322474
0.634799889200394
0.604871777552259
0.605973110260226
0.580817065165645
0.585593585504558
0.577205359790257
0.571794558270875
0.558184667758036
0.552083432693351
0.544442355032148
0.536314028477193
0.53604519860128
0.529275530607042
0.516165708727964
0.506959162510519
0.496911196895531
0.497328506114873
0.494455132106061
0.482451940161504
0.484449250517186
0.475353468706061
0.472247931005346
0.457788755245317
0.458693069783399
0.45818108069463
0.448441988005079
0.439885936487839
0.44156020310292
0.432927704679822
0.430715769748812
0.425741397971256
0.42466595854903
0.421489169959473
0.415611950995697
0.409274426386271
0.408730214097049
0.398473732399759
0.402253239397063
0.388240832888807
0.380229350622627
0.454869209459572
0.391534187962758
0.393834010830765
0.371470361843803
0.386655228661336
0.37180765381701
0.369383838122407
0.401614441053724
0.381467613492138
0.368607832661182
0.365775548106994
0.355978496656303
0.36806993750676
0.35888656582734
0.363978621503649
0.354029891618878
0.335803786458984
0.381287799867797
0.332804770534013
0.404833315370573
0.36192295717428
0.363569828807597
0.327087583008303
0.355757342579036
0.347916886396833
0.335463053721209
0.327964666911884
0.30925055818046
0.350449850215481
0.327012928464513
0.328734163316814
0.315533760344673
0.315171957960518
0.334080842958866
0.33283071810242
0.30455689321764
0.327624312553342
0.321606755286599
0.319600303626665
0.320370960980976
0.341382775792953
0.313850936304556
0.305706277420652
0.30706263935131
0.292681436446232
0.300748378744931
0.328216638033676
0.296831264598003
0.3147664084281
0.288518066195951
0.299314998086397
0.288162743551725
0.311798922219128
0.283870129986942
0.298492826440554
0.304567538246819
0.284462960146819
0.298930726996468
0.287716110252088
0.312778432006816
0.303216412262577
0.295757609410446
0.269655186019392
0.302846373793591
0.297984205206004
0.287653202159752
0.295345617552944
0.275924276933872
0.2905614296393
0.295350874704947
0.274154002401873
0.287138753706915
0.278970279838103
0.290621760932967
0.295239912990252
0.291717169409012
0.310202856673998
0.280066074164665
0.283509116543852
0.27925032878536
0.277933970235456
0.282976227052619
0.265715256380919
0.311348876908808
0.270797832371283
0.284357242527378
0.299006964922897
0.286091580107249
0.28464962452315
0.285092627960952
0.278227441667428
0.285454574778536
0.286666388089423
0.305196843645408
0.281681583616502
0.304215288375826
0.291785993664299
0.295136116130434
0.290807838250438
0.294886782913399
0.293975206260804
0.294618255417108
0.305671462778136
0.298162613165395
0.302553990457368
0.30703275733208
0.298355564533441
0.320857503890985
0.320131180660995
0.303942174525263
0.33669947518603
0.312398832077051
0.36209704540753
0.333939518752775
0.34423956886104
0.335825422265012
0.342960944422855
0.350450181779765
0.333634416959373
0.358203174525618
0.36380142193444
0.350610603902166
0.364480562369608
0.353027236817029
0.369060797480515
0.356639638334122
0.396877190533529
0.349205181311505
0.422728236528161
0.389586839637087
0.392939940460168
0.374129680078006
0.371196728273976
0.379504283156322
0.377365709078256
0.37692140629984
0.373280006638513
0.376233655556173
0.391132751874919
0.376213789188367
0.387872039418846
0.37671863603622
0.386895640525476
0.377807194068677
0.381956512436234
0.389087316995745
0.383027999795207
0.39117529435819
0.382104878864133
0.379648391856143
0.441351355651088
0.391212534648945
0.401806878128768
0.385280173634483
0.407344657163611
0.39212130637805
0.405054680515113
0.419086631052717
0.408196908952741
0.402508973675508
0.406312508087897
0.401721129034169
0.404908193866983
0.406432876794543
0.421604693483959
0.402450117462423
0.421398795250194
0.387114695229431
0.451206080653445
0.411958233565525
0.420784193383867
0.409897710153434
0.413193677868513
0.41016992556534
0.414271261698644
0.406946249319849
0.411577473583287
0.407486230138548
0.407326880592053
0.415631567197169
0.405659382651322
0.411472847242656
0.403027851659444
0.398470166633831
0.41959530494625
0.403608122617338
0.400910360131798
0.399038037078015
0.404457334837855
0.388614603554246
0.413490926991186
0.396507028381153
0.395771825068261
0.392550035702927
0.395872785567987
0.393954176287411
0.400371961329595
0.393013486524163
0.402336070074528
0.38753552950949
0.404989006125007
0.387888545513187
0.405352230003218
0.416980789246105
0.408704514193576
0.402174182405758
0.402353983692082
0.408054231165474
0.409455749850606
0.415042624011463
0.414867950284704
0.417975250705637
0.419641737176238
0.426573212348762
0.425398105642189
0.423494967372012
0.431608587461207
0.435552392613008
0.434384231268386
0.425215335432963
0.429056861339993
0.421535453200986
0.43882159997436
0.433318408626784
0.437190604271106
0.424816898147701
0.431901931291209
0.430805330707683
0.424294418423292
0.436304154238237
0.429425326827289
0.436316890385392
0.427223229407609
0.427946176885424
0.425996717253161
0.424019307157657
0.420418782480106
0.418287469683937
0.419519880892033
0.420766201757044
0.418921760201559
0.415979625566756
0.415634320221098
0.414703823996014
0.41524057413531
0.414222770616173
0.419361615002633
0.411421708389816
0.413799959559384
0.40697223860222
0.407220828791911
0.414622182116527
0.402844529807451
0.410874978504215
0.408508107536757
0.413270669698589
0.402150349418194
0.411059957994556
0.407627723487991
0.402528582327465
0.408936552577253
0.404116210595133
0.399415079729815
0.405283910035063
0.402055155189761
0.396942219183149
0.39767760910324
0.394338010224098
0.399897751092412
0.393329567511556
0.394414747786328
0.387204027033332
0.397456248662001
0.387459086447543
0.390338510936116
0.380085889046409
0.385949275463512
0.384241779311146
0.389234627411132
0.380608570353276
0.381063891873873
0.38314513474803
0.382041330970915
0.380788729540225
0.382218045944436
0.379545631031674
0.379619448698704
0.374399257870552
0.379074285633517
0.37832627937788
0.38103999549054
0.374114894641558
0.378267669740677
0.378074036798621
0.376003411328398
0.369672483837751
0.371892872480844
0.366288578035292
0.371950281518646
0.367634708027667
0.364950315195692
0.364028312974331
0.368901094590075
0.363439130287166
0.361921401268867
0.362015873761354
0.359570909771533
0.357282311537803
0.35685374509853
0.355486767555621
0.3589066707692
0.357297251691394
0.35874879616633
0.353225865417438
0.357950899888768
0.3562107502954
0.352964937534992
0.353432941474071
0.353883903375147
0.350524912576708
0.353103363910761
0.352304374874671
0.354977285344953
0.356403030307639
0.353089671854225
0.352127107679714
0.353932222825534
0.356301685877633
0.349926940892668
0.356239713988708
0.35323389796495
0.354891258454234
0.356219184777245
0.357971973701974
0.361629904535849
0.360352377809815
0.358993809693603
0.360033572026971
0.362055710969581
0.358815518229423
0.360323542116992
0.361761915792059
0.357823997634832
0.362399992502523
0.36275467575135
0.358106260199375
0.364088917668898
0.359031103235367
0.356945479954482
0.357452984836433
0.357577920432153
0.355293645183742
0.360808453305931
0.355570789589054
0.353958389227218
0.354931847255242
0.358494044823439
0.355250256420401
0.355124847737711
0.353681630203363
0.355695279698444
0.352794407751173
0.351337130978172
0.349118937139779
0.3536162918272
0.349279376767873
0.35043967313278
0.350153754953089
0.349785684721699
0.344389813527931
0.345863872993579
0.343791942114904
0.344488017923147
0.342319057143824
0.343615960463765
0.340677054835474
0.341383698495899
0.340301655092699
0.339426508118958
0.333270651115338
0.331107889488575
0.332752763044043
0.33163773051663
0.328760670787477
0.329549168334363
0.32778137501709
0.32760059731537
0.328016354659333
0.32316198495717
0.324797159869133
0.327742622153264
0.327071473018274
0.32662763925315
0.324943760078458
0.324783074579432
0.326910556619931
0.327753182462541
0.323569303433499
0.327840965687257
0.327252555270195
0.327076449199384
0.325702577801315
0.326057875316157
0.322115501730818
0.322430450128906
0.320748898212982
0.320388606721544
0.317169944206909
0.314719718776209
0.310607545376207
0.310912512278562
0.308354300270893
0.303638792243012
0.301835353519147
0.300342697568196
0.29838168581943
0.297570480436614
0.295726360964093
0.297130125529211
0.299737726963653
0.298029846630039
0.295507682030106
0.300675937252488
0.301884604767446
0.300097023530395
0.304834329126703
0.309104472978982
0.3096459441096
0.311552145275235
0.320530356954001
0.324702250297917
0.332075243126969
0.336301790442721
0.342283635695727
0.351649248784592
0.360549782979014
0.368499440496268
0.378343290240065
0.389433785414532
0.399911117628407
0.413710915677316
0.427994794825991
0.446473849454905
0.458000334627786
0.473469314399878
0.494024514686235
0.509041683923831
0.522162519781838
0.536711873471334
0.553629727572362
0.564402466406058
0.576714729048561
0.587117065971419
0.598231453234295
0.608504506298831
0.614989727311722
0.61516556201661
0.617361846849757
0.621961536861709
0.614379082492528
0.610284272416092
0.607274756139303
0.600426784877942
0.601508816184205
0.588897993179191
0.583402047273693
0.577341668265802
0.569777409232216
0.562781518815338
0.556524419756418
0.549133842001298
0.544662196945259
0.543735665321487
0.539638116392611
0.538715825204012
0.539741158709044
0.541358807246461
0.53920791146817
0.540845587070047
0.545530559416766
0.54616667147598
0.551517939670632
0.556759951660483
0.565698440444099
0.567651578186099
0.577013501436903
0.579517752303137
0.584903129232427
0.590993914430735
0.590897592012507
0.594429033921641
0.602312475189457
0.603488673008633
0.609050944161346
0.612896327520313
0.612963250805166
0.612973254010596
0.615882896470007
0.620263578023852
0.621382328618843
0.624407015117624
0.621149689193422
0.630705235130246
0.635650685998515
0.637419445841188
0.634673339784184
0.634102210871495
0.636424774757332
0.641054733393033
0.639570443209439
0.651361694212833
0.654498980818817
0.655645608588312
0.656742384482329
0.64585589889399
0.651964305882487
0.651965657805366
0.659657349840801
0.66456039735511
0.66421816534711
0.669503667082222
0.688712069940818
0.694386561929138
0.708875661869113
0.717773051315827
0.742553355936919
0.758332334932185
0.779690047833264
0.798950029903935
0.821709876507717
0.829655001680159
0.858266001858869
0.881851311307774
0.877984550274895
0.894563119351287
0.910292943231311
0.917333432248205
0.904157848011196
0.902628882333511
0.894987489069482
0.891543449682653
0.889025305983721
0.874732892524436
0.861191657351062
0.848096084918701
0.850811777427652
0.842026519165314
0.827733737349429
0.820973532168763
0.822302207091796
0.816788268879673
0.821248942307021
0.830220957336545
0.833008078420768
0.849959627364272
0.849066522199409
0.857572330503308
0.869504126304839
0.871533914933718
0.88940846800798
0.892807242175021
0.907590467555422
0.921725514079921
0.928755301662081
0.930856180957033
0.940988105551015
0.954751038517445
0.968565234033988
0.992826919286273
0.982630194432145
0.991365314311397
1.00908277807751
1.0238960399668
1.04641461285369
1.05513947753059
1.06527889901028
1.08401035734618
1.10988845366331
1.1062951662885
1.08030886232994
1.10581582964449
1.13240737724288
1.13673670327438
1.12672452932134
1.15233991714112
1.18520976047995
1.18883555592679
1.17928927941393
1.18057992271199
1.23692907781522
1.20923214251379
1.21432237792642
1.22846583618933
1.20811785469914
1.22447505498525
1.24054301570729
1.24074537760843
1.23267509388002
1.23532085888694
1.22916621124251
1.23865682549278
1.20099632878644
1.16447632532663
1.18843787405576
1.15017823313664
1.14017230233642
1.11605702908192
1.08485034515018
1.07672948046901
1.06859542121627
1.04084717725559
1.02033892109455
0.998012921368426
0.989142725731738
0.963308612289129
0.948733544691678
0.941368138219389
0.941504992057576
0.922685742760354
0.918671679788188
0.916783876915046
0.904759607689415
0.890458203279959
0.874211202581179
0.866413534089951
0.856702987526289
0.839928540752891
0.834226429623744
0.825052384392548
0.813489255322636
0.795531380767141
0.778356594004804
0.755679087612624
0.731871173625417
0.705125748894295
0.681358180974545
0.661880613759834
0.640356290790564
0.61800917312839
0.601467948935387
0.593225604838334
0.571735683139526
0.549918097237224
0.540916914590529
0.531461690086573
0.521827352486512
0.510172337954382
0.501461250515569
0.496288744524951
0.488355384521298
0.481367800168502
0.479004241304234
0.468125661485283
0.458999528734434
0.458002275289306
0.457874313649776
0.451991711327519
0.448965468025761
0.445582538220835
0.448370659021541
0.442394821908077
0.438814610108072
0.444988598187331
0.445757527763968
0.44576443483559
0.446311958544226
0.440538944847779
0.441920764196395
0.44763722429976
0.447510262014684
0.448023183551008
0.449714476552603
0.446368244903645
0.449827015912111
0.45408685759326
0.458552968497442
0.458268900454956
0.462260113142713
0.465150285643067
0.46967407205038
0.474415745947109
0.483783849326993
0.473947187401636
0.478568424875383
0.48052724200042
0.492356276419798
0.498767232707168
0.488841692804197
0.4914527625486
0.498270719966241
0.494341961770957
0.499644433709496
0.510163638788597
0.509679628241221
0.502144825436447
0.511990960999804
0.519206600246171
0.523809815384958
0.520087234125773
0.51895541187574
0.518833843376286
0.525215669019237
0.527348047858241
0.524441397742036
0.528123429610499
0.538173347330486
0.527824132494971
0.523261462219818
0.529711849869958
0.533528681152024
0.530844162714365
0.531916867242915
0.525320292691108
0.529766368079004
0.52952319266127
0.530264271013086
0.535787098860851
0.534415100646074
0.535065491686025
0.541520548377877
0.53861562227374
0.544858064591028
0.55088090836482
0.553135833635658
0.543311064148733
0.552245569990074
0.550845348837775
0.563261291739633
0.562394271674851
0.568461165587132
0.583263447041075
0.57143618376658
0.585140030684021
0.59348438138859
0.576131538840897
0.586737017222857
0.593374551999181
0.585137643342938
0.582369742753176
0.59723264801274
0.589684571773705
0.586720648456205
0.597180428880612
0.587889159079637
0.585959976729603
0.598344529707893
0.607584180938262
0.600606161814371
0.609533295557835
0.620837278674473
0.602511834635182
0.610440548412714
0.62471464028613
0.630833173583521
0.625781332695239
0.626404081061388
0.636592656471142
0.641143787746533
0.631324071649506
0.644427996574168
0.640820155687068
0.645235626429746
0.658606337009947
0.666883885229157
0.67064761116684
0.683417415280684
0.676056793645464
0.676291326919005
0.678009435440038
0.694689444956773
0.699305162599289
0.693086338719089
0.69476140510087
0.695983606144919
0.693980988922931
0.699560092997265
0.692924479350774
0.709109565330625
0.732005047162437
0.737599271260038
0.724866804861725
0.72867282821253
0.745070790159032
0.750884871599553
0.745616562043438
0.746034382728717
0.742333403039857
0.739839238761892
0.753073886100674
0.76232882761193
0.748957731884082
0.752662130011834
0.745322294210672
0.750308408429748
0.77108824739311
0.795016758416067
0.805038000790066
0.788101175631969
0.756900736066221
0.774244583452342
0.811996680476994
0.778635192153977
0.76503256024731
0.802115799451369
0.815162738870404
0.813737080618083
0.834802887008839
0.808672706207186
0.815337970390232
0.85879750632837
0.833661568528948
0.813685639096868
0.847409787715998
0.84647693013847
0.798365436972682
0.838817133521401
0.848944162984255
0.859446461650373
0.828356199587255
0.833998772185332
0.865289125304596
0.85687397869863
0.875309904364556
0.893761852306082
0.883928582354426
0.897310633494828
0.892572343082165
0.909023688355072
0.908854883422481
0.92448188536741
0.897314282298639
0.901252836449648
0.979666126931354
0.924186993441811
0.941236548577635
1.00629162248019
0.924983902074729
0.917303614640339
0.939731104841896
0.946501921863157
0.934846372436327
0.930919819487028
1.01565661397321
1.03713435585386
0.95220421421162
1.00644531880921
0.988113004546824
0.958125552643557
1.02867326926412
0.998067067209383
0.99470974486037
1.00506976278356
1.02329685494937
1.06495239930977
1.03778864240666
0.97797174277974
1.05551195820544
1.1154846358345
1.04135049629406
1.05288984192152
1.09982633126621
1.06880966137952
1.09843720367993
1.15397019980771
1.12317055693864
1.13768114963094
1.08274579045288
1.10294553008273
1.10759971016479
1.12244032511065
1.14620187597436
1.11658567666746
1.1571276309793
1.1894496968711
1.10361460888246
1.04651728302472
1.11224074989289
1.14548174389218
1.17565773251603
1.14616490438856
1.17900209736113
1.22457352682348
1.31131417523711
1.09849676977164
1.12024137758206
1.22691440271766
1.11664849972189
1.31831616289442
1.21196082790284
1.1228836145334
1.32790834945566
1.3066301915419
1.15396299052552
1.07268304084978
1.1308926147602
1.15766871212312
1.2644188184967
1.23837051035102
1.25159544330975
1.33634998067555
1.31483162504828
1.40450953994055
1.44581879823673
1.23939853171278
1.16232767204132
1.20995289613073
1.12130485264553
1.07755237035655
1.17488414077321
1.10297237805938
1.04814333930565
1.32088957381202
1.46719284194354
1.222088321361
1.42438867042105
1.33342441456031
1.39615839769177
1.48363684880746
1.35197412185862
1.23479892114575
1.23580626160996
1.23732590469398
1.22640467196644
1.52507080269494
1.33120825758643
1.50642908344879
1.59489705296461
1.50916136567852
1.5928227836864
1.16064389286748
1.28231069707438
1.42288699549569
1.46324864581991
1.44549075904276
1.24147636660346
1.16771096929512
1.41099701948566
1.33855288393639
1.5523579314409
1.34159182028021
1.64501176846041
1.40550182781857
1.27565163250778
1.40758464613563
5
2.66921479501408
1.56574720228037
1.53744701615293
5
1.32895568186032
1.56541816937301
5
2.16820347815459
1.68236299998996
1.53920215752169
1.22586916690089
2.33244718142854
1.22215828542739
1.86361214388986
1.31824448026917
1.42951431023493
5
5
1.83941588406377
1.87925486037413
1.50922102651583
2.54952235208781
5
5
1.46851029207014
1.14691276290692
2.05221012403597
5
1.51413922196551
2.22471016262881
5
1.02361068046466
1.03659117396679
2.41211243516707
0.975875207438685
0.790786849974332
2.37427377593257
0.919222758865238
1.86874688297131
5
0.838198506830017
5
0.833881910543223
0.878374452241965
1.06330396249752
5
1.05152372078928
1.0343335191844
2.4061220885362
2.08926926077643
