3596
4000.36533379555
650.420452594757
1
2
2
0.0424381168910165
0.0482505311300372
0.0452382419179003
0.0528018281921695
0.0354485949881294
0.0535720050558226
0.045051143631122
0.0524851649513608
0.0315693526239354
0.0452442997824545
0.0385659259056894
0.0519736598336572
0.0378321365605515
0.047227132124562
0.0443393575313928
0.058571903744962
0.0434107288511587
0.0555875347989565
0.0327995917747106
0.048675273775448
0.0438226131446678
0.0500847904089818
0.0362026911276518
0.0496262573136574
0.0298470992465859
0.0483098875196722
0.0392035596238076
0.0439320840192667
0.0350969136208325
0.052262433890682
0.0333814469092842
0.0538006053957518
0.0374715326686005
0.0525230498830737
0.0427452789634718
0.0507769484765782
0.0423407151332075
0.0541895024143264
0.0421619289686812
0.0483808517359975
0.0411180823970878
0.0542979305759
0.0409674744266956
0.058567350147885
0.0342640142389568
0.0437628226101572
0.0436012415672081
0.0473469894998571
0.0431987568283504
0.042790175685898
0.0399422006404863
0.0508929945622596
0.0352338031317644
0.0448447076323934
0.0371116664371291
0.0568553484973917
0.04336866260272
0.0445212793739283
0.0301372575320343
0.038152097709931
0.0413882803185312
0.0564688248038457
0.0443693724562969
0.0613310190461188
0.0306167914079669
0.0430668071522995
0.0427669640873281
0.0498227974656211
0.035598507415191
0.0482292142967854
0.0425837217836275
0.0425239756725072
0.0512241379520378
0.0463773505500683
0.0358259937513869
0.0504923507266658
0.0427036861952879
0.0541661291257628
0.0346887219753448
0.0494352738361489
0.040382923804805
0.043956814226923
0.0385805836540527
0.0340324023492185
0.0310747506038087
0.0522104473512845
0.0380328383615546
0.0396445021004467
0.0513555056753362
0.0398167939707125
0.0311695485764339
0.0452788539049858
0.034111163686804
0.037193431112866
0.0348254114798173
0.0490797318181036
0.0381593587294556
0.0471810513878907
0.0394727702517816
0.0405110389060013
0.0351272620056006
0.0288914323511415
0.0543089071643324
0.0496504474836502
0.046943461814626
0.0574135897687015
0.0208987243742618
0.0750424320341681
0.0499355397218151
0.0510772427333306
0.032682618888668
0.0459868669210742
0.0379032712560095
0.0431174255858792
0.0297264713710203
0.0418426574004825
0.0604286368819746
0.0468111167696251
0.0383795417273696
0.039517603334121
0.0208178128489657
0.043074960008636
0.0566390117471409
0.0347320205758907
0.0407692584577426
0.0417349247066626
0.0307745207954181
0.0659179386889219
0.0603765742980891
0.042757688723668
0.0329149800543346
0.0383498512110423
0.0391217158237306
0.0265068175677794
0.0399490299964266
0.0492358881420064
0.0338703381434524
0.0384125018937362
0.0277673267095459
0.0734293809591739
0.0406862681312322
0.0409508220145977
0.0193761923268457
0.0317478584683012
0.0621432726118572
0.0510498105168952
0.0292851291915992
0.0441876583433928
0.0396540758428246
0.0364785091216299
0.0369765726792228
0.0300465001465491
0.0417519587275885
0.0445458638246569
0.0177778538884493
0.0224355950132745
0.0687766871230399
0.0343904251700209
0.065939048791654
0.04272606490992
0.0309552192492638
0.0433146098111909
0.0237969596940762
0.0407503847162374
0.0350000592371949
0.040481923927297
0.0362545725489141
0.0660541390462289
0.0279545211602454
0.0377076598052684
0.0452218136401945
0.042391112044503
0.0163181574048527
0.0795127288100017
0.058508438478447
0.0249305798216409
0.0461416040850721
0.052034036729322
0.0333055977845112
0.0397418718165302
0.0485779822485852
0.0394507519056419
0.0265308835704974
0.0412040314169516
0.032352490326329
0.0521648849379932
0.042222354776945
0.043551205899259
0.0390930175710319
0.0287116629432694
0.0317348892186081
0.0556066058539309
0.0469178622987981
0.0455969110483224
0.0311359702164988
0.0213785191988102
0.0412447205316292
0.0681671291754464
0.0356793786341208
0.0413071631069711
0.0368187818198962
0.0413376509499208
0.0386824289430838
0.0415830877888443
0.0306243865341503
0.0296168660184734
0.0462198708475259
0.0631177696012441
0.0264096926825382
0.037608922784777
0.0289090139000147
0.0400912492139798
0.0483921828856714
0.0646198987635346
0.0315285987499051
0.0470418172512945
0.0245077028571365
0.0524960956930155
0.0470497295924689
0.0394682883760075
0.0322313305080858
0.0423254786659442
0.0313176543742545
0.0392335643592393
0.0373236944458792
0.0458520503070102
0.0268386251911618
0.0406993369294921
0.0358879890762275
0.0417568658421887
0.0325191513884428
0.0462992488738444
0.0303811803529618
0.0358773807274479
0.0300315648455483
0.0388941409885356
0.0528751459822665
0.0457955724266244
0.0374275330309577
0.0449827065559079
0.0324650608650907
0.0401690862961841
0.0346310148502446
0.0389073300271151
0.0260353946252102
0.0306217040795547
0.0542875605308213
0.0564027889966448
0.0330167396512579
0.0410819833987481
0.0287367429079519
0.0601402854920208
0.0304974141162971
0.0442367201055465
0.0315871119893562
0.0374475935417941
0.0216732250646992
0.0528949160575733
0.044372873395416
0.0425086591082134
0.0267401551305715
0.0426876433413179
0.0336738143280493
0.0407371582263007
0.020593373713846
0.0606922571117403
0.0481502071622051
0.0377429093016819
0.065848798178652
0.0607690003156675
0.0377035760263142
0.0364026265251037
0.00611711233097532
0.0596402760361502
0.0587087300427362
0.0405344783736995
0.0368341068433205
0.0469024534490651
0.0450545151172586
0.0352181135500995
0.0289333979864218
0.0384302408312908
0.0573886952787251
0.0714200788571938
0.0615334627110824
0.0455134878169071
0.0405064927495518
0.0661579365538388
0.0295267552561102
0.0550701224922556
0.0374920427327853
0.047845824945568
0.0405771829771979
0.0554782809878153
0.0407807843560047
0.0460374473853291
0.0374088745913285
0.0584133722001647
0.0490514377176364
0.0457998075340962
0.0403485928552907
0.0451451993871867
0.041652397113929
0.0403229340695693
0.0430163740086812
0.0522058885550976
0.0367514790835642
0.0341080605370549
0.0610918253653307
0.052529700921406
0.0399867957153985
0.0647552727223169
0.0485448910950042
0.0463100274187117
0.0489474596253884
0.0485735329541683
0.0452784414580766
0.0481692570452772
0.0389360264163366
0.0577851584303184
0.0574599718283143
0.048556056337474
0.047656690951191
0.0491964114059149
0.0477133542625763
0.0485376398973484
0.0537104340546008
0.0518524058641559
0.0442080955950622
0.0431512431462229
0.0587938760760656
0.0591088491006124
0.0428063560697857
0.0630174847616165
0.0756003262325949
0.0530329380413137
0.0464110047426015
0.0493197277384441
0.0480016867497941
0.0583923821555527
0.0541756104474052
0.0565036699979157
0.0548212798747497
0.069324545019411
0.0635036474661266
0.0576557064531244
0.0522435106812156
0.0905863880791402
0.0891056884827127
0.0802618613360596
0.051408984028125
0.0626202719552351
0.0575435999479446
0.0800683735678532
0.0595569328715373
0.0836791871008671
0.0705472050987173
0.0694475787616132
0.0767005261708515
0.0728105966527564
0.0758832491029977
0.0755811618036277
0.0771873807056547
0.073739244117736
0.0721345935812724
0.079061126692478
0.0768562850952945
0.0791406816714159
0.103047784302399
0.0947552172611164
0.0834023685321044
0.0867317702962896
0.081024810607802
0.0853434435042229
0.105170114097679
0.0932497746400896
0.113866180907166
0.110341710335907
0.109282019942311
0.110564877314104
0.102384535547679
0.102772388880401
0.0992529409103046
0.113898419735426
0.111977111613775
0.115154502478267
0.101932401062941
0.116244062599404
0.113476516575393
0.127518531499895
0.126763932491289
0.12318834462585
0.12182600909201
0.137354629246705
0.116179816222962
0.125445712459443
0.127815266720746
0.181866271872241
0.152064759639194
0.14840714950711
0.142475631553714
0.144886919837232
0.142061944406562
0.144423746411895
0.14261553365163
0.158309563659419
0.154772491892876
0.171359009437265
0.171468879050586
0.162863403158997
0.161234073064304
0.171302193776272
0.170962308662023
0.18438107980502
0.177126869323445
0.19509556471105
0.178576736908037
0.175791614924127
0.184153485307392
0.199377622247138
0.185637588243943
0.189959665165026
0.190467328734548
0.183405390237033
0.199266806012625
0.204674097162911
0.192901813128904
0.210405220175157
0.216554700656231
0.209874760575838
0.222534111403679
0.217098964550034
0.227267349134475
0.237483339572701
0.218816185615826
0.233678727411841
0.233066571504956
0.245528541780259
0.230740602474559
0.242502991879955
0.252355990724628
0.252765291390654
0.256167922779718
0.262077644787779
0.255600973442895
0.244688678373649
0.262667359306164
0.26246121372972
0.280734827423606
0.26966009525646
0.265281404289293
0.275658724823719
0.277507705133307
0.288329038576945
0.295339218022594
0.299423220612556
0.30364549257455
0.299933632653245
0.28962374816888
0.299894645170733
0.297908263710871
0.313109075582784
0.33566709883288
0.347422731172823
0.346855148350192
0.325140476739461
0.313442273203958
0.332096009967615
0.330471867858615
0.317925901567211
0.363941983768118
0.359516381260506
0.353165056619803
0.345258456802494
0.356712212343121
0.350965337356808
0.347042780939521
0.350064171715371
0.380031282716859
0.389341145605567
0.386346061177296
0.385357501660732
0.395526508842646
0.394572380284045
0.393677635753607
0.370531029634984
0.376870497707203
0.402140939356538
0.401156958850888
0.397570033557047
0.408068571084757
0.411003387797492
0.409462927336772
0.422533120616502
0.442766364862021
0.421355871232068
0.435904132164071
0.453531660586574
0.434471249117627
0.435907066874305
0.46551071569457
0.463167578941894
0.451055522423794
0.481628909775032
0.479015667184203
0.471766593893389
0.479423292244582
0.479091974946439
0.499092694681707
0.488975522140861
0.496993467216186
0.52229410069825
0.526365386930096
0.524957146331133
0.520966234729651
0.508370489069603
0.520300103351021
0.518794348686455
0.535788726783198
0.531697787911062
0.545252798496765
0.544880305654563
0.552665566197082
0.525861566788357
0.549772713624696
0.554861557662975
0.530994045243814
0.543382881976092
0.576019853291365
0.584896262067415
0.598136436914083
0.580147068996416
0.578506499306355
0.584904212787615
0.603923565103053
0.57829640115133
0.620968292256106
0.591480068298773
0.613874405890361
0.635137372270793
0.58799426105639
0.578860315037114
0.623454974142773
0.646117111776478
0.634785321401501
0.654975750113773
0.666242843297052
0.64372809422593
0.638574518431871
0.624284895500144
0.647182621167082
0.666170889370555
0.687523471557457
0.66757734475523
0.706951712059125
0.692941562262537
0.681401996150049
0.685329656637513
0.730952088131441
0.713099592807284
0.726271734517776
0.713091950368057
0.706076002366076
0.677883007557082
0.728123295062426
0.697602406679404
0.769287643068273
0.721858100134377
0.692552486887927
0.732893603744
0.759159291899969
0.731336445727393
0.748003134353079
0.779724652929614
0.769353489632496
0.759335563200318
0.79072959651833
0.753528958351623
0.767165054749384
0.784324225298936
0.83957690489739
0.784702498630611
0.811768782628909
0.772023155267147
0.754398806563319
0.800404482401467
0.834989672882314
0.799541734762524
0.790991479526873
0.796778948805824
0.839060261378271
0.829886825710079
0.896414591222321
0.842958843033014
0.839446739877843
0.859707751838658
0.831510755069206
0.809394805489439
0.868269792843469
0.887711161330676
0.836208832721701
0.828623174912262
0.885662524476239
0.845749975746155
0.911136600247016
0.874620548386358
0.878406200715283
0.923375294256443
0.899863936877605
0.860663313031952
0.916840792165562
0.984908694666201
0.955384039921882
0.84085120335103
0.916847259107835
0.940947304532148
0.951983381691253
0.909017248791269
0.948460881055759
0.941726520858586
0.951494303565097
0.92166271287721
0.980780655310509
0.947977388203543
0.934263293197202
0.911730075058005
0.9857633670458
0.970263230050997
0.977506187555876
0.905371828126638
0.956755262013245
0.95845643646405
0.961688445599902
0.927080061222611
1.03006117933491
0.937861008264977
0.987131310589314
0.957258052101742
0.994948975059661
0.966109161272546
0.96786527892674
0.937535925789172
0.995682880319669
0.970656280146364
1.05282085678886
0.986339325681218
1.00675891028312
1.03008193598951
1.07372669460125
1.04493494776986
1.08384494566093
1.03817502300624
1.03705052672737
1.00970693956735
1.14524935697338
1.06501088862624
1.05090572868295
1.00666281011118
1.04468903772339
1.06907264687574
1.05382038815625
1.07143012508285
1.07117168724875
1.03039742378466
1.07019605381263
1.04973400015662
1.09292443687939
1.05538369607228
1.06481140129547
1.05410023037786
1.11762384445776
1.06169350945734
1.05931438604723
1.07169592425377
1.06270455615373
1.02720285152312
1.15887459942637
1.11751883237424
1.06643233238141
1.10107641501092
1.14696986444102
1.18456801353356
1.15131703410757
1.05177762019154
1.13539773626969
1.05477251556034
1.05269383379152
1.06608048869399
1.17037069311495
1.07196861659169
1.20398179016954
1.07448988180899
1.0964247961081
1.07372594485496
1.23287216168712
1.11753890471121
1.19921166252354
1.09814966829234
1.19399825617665
1.09459996094424
1.07858211361699
1.0914252386595
1.14932688949557
1.1384449589369
1.18480119434132
1.07771569625643
1.16756679367216
1.14785158827738
1.19911489165345
1.08894011252361
1.13152524147823
1.10684236995663
1.15138060445219
1.12797552227705
1.12110725264485
1.05808500493594
1.19509475883319
1.1562041757553
1.13055315609309
1.13088933783687
1.18862516450119
1.13305701042734
1.16054068662092
1.14668278940826
1.20876234276144
1.15588144792938
1.19850743421155
1.07834885581711
1.12066131529836
1.09111540028461
1.14945291357856
1.0561074244661
1.16690900947227
1.14013204691226
1.1590279324881
1.14920646657762
1.17291240320483
1.10991663242101
1.22244301559435
1.07475500838726
1.09650873981343
1.1403878525734
1.1662218985668
1.14463099981707
1.166732567794
1.08408827490936
1.13960956831851
1.09378959836537
1.18212718151715
1.15247277945481
1.22989622389931
1.132924255961
1.16707018499458
1.1279064330611
1.17386495706764
1.1882043991738
1.20241629395643
1.16627439256221
1.24794168599726
1.10540964961245
1.18499854819248
1.10623294702648
1.10246922271537
1.1583011301673
1.22900159032983
1.14216082945644
1.13505809404409
1.13997958964529
1.1359266056668
1.09136359404513
1.12887072201078
1.08486069113235
1.15297384264293
1.15388995601657
1.11995371859289
1.09822327015769
1.13990130744058
1.18073310965959
1.16915055944498
1.14263523140557
1.13946088184206
1.22298731038294
1.15553931273553
1.0812122576225
1.15189394699469
1.10554009107669
1.18653172993743
1.15408869957087
1.15911239951208
1.13092667711678
1.13151277334353
1.12281590646379
1.17428930470108
1.08376700856799
1.14610414910356
1.09407117842055
1.09809963346219
1.11118872958569
1.12641823785212
1.1122749395927
1.09249002232782
1.10284998764845
1.09936356667822
1.03469067305268
1.11055847997624
1.07826912385757
1.108989256471
1.07318196315125
1.2030352131312
1.10231450189457
1.14139795375139
1.06969422372383
1.07089477283427
1.09502225970444
1.08564315013131
1.04908184614862
1.09531311163685
1.06437521320858
1.10556652139771
1.07079724626882
1.0532054146325
1.04593243398959
1.0572645388119
1.07916238880775
1.11633929759409
1.05609406922003
1.06982282498903
1.00266394547714
1.06750778918754
1.00887440115638
1.03431542212335
1.02324603476188
1.06036846062506
1.00994972478074
1.10716895711072
1.04832181052337
1.05563819572237
0.976395837892948
0.999855767032575
1.0115640987174
1.01908093237007
0.986292558305932
1.06171284798886
0.990462765376588
1.05596474666837
1.02764499993655
1.02856751594573
0.98577345886762
1.0715754887683
0.986382757204856
0.989636383543665
0.968031166514617
1.01234509542606
1.00604581012923
1.01194523749235
0.957020502451225
0.980177585717134
0.941497779497078
0.969024415080275
0.943226705427061
0.935145221026355
0.929608229181189
0.974682978613179
0.963953140836322
0.967448473474702
0.923489309481656
0.936529385178
0.92719400708715
0.959802221796906
0.932003975557329
0.932499136477001
0.911958191363805
0.929588219766696
0.905529215832769
0.929686093437112
0.930155668040834
0.915599436960095
0.888576807886346
0.909852321797105
0.839285755994765
0.909681834237298
0.863904073970127
0.882715473637972
0.857869465007801
0.866215869428507
0.835582450273512
0.905239462436315
0.869097509309424
0.840995085751345
0.818665198950665
0.865065575635952
0.842220633330994
0.849141254599539
0.81368102982408
0.839713860819009
0.812955168885794
0.855707759452385
0.805103316246928
0.837244855028441
0.813032777924941
0.809821151652117
0.810689096144051
0.788005330304373
0.771169945383066
0.818761489491587
0.761886931766069
0.81852774796399
0.781322481469324
0.768827459061274
0.770832418572171
0.784645102826864
0.754900658961409
0.789568870796152
0.760330981328322
0.7490198156493
0.749144451545515
0.758216678569993
0.752305998786061
0.761667841929148
0.724631763550621
0.741795476878405
0.716102670056381
0.72680706345653
0.72362902278707
0.717634494233001
0.715988157514895
0.727152014536578
0.717247781296419
0.715737086688715
0.69490681269114
0.710848762124124
0.688282361896634
0.682809184493597
0.682253111015253
0.691080802908085
0.66936833593878
0.701652157990388
0.68611473143982
0.677428254367284
0.648471798063539
0.674519908249345
0.661943784063445
0.659135423708335
0.632040005005898
0.662942142705384
0.637236024383613
0.650449985198638
0.639212908361169
0.657522765644099
0.63507979508967
0.641139893658754
0.618736959066038
0.622239033441073
0.609178931441342
0.620144731720754
0.605208535216889
0.607070064526567
0.602774241144502
0.600021548177701
0.583640199663761
0.588513940800239
0.585231836456212
0.592072955821509
0.579931307830585
0.593040355554812
0.563576843921871
0.581933205291366
0.571467406975333
0.574256411172402
0.557083315114493
0.58398122222039
0.558533954377354
0.572366364222486
0.549248900866071
0.564915479471007
0.538209639822427
0.55429551339711
0.542144649255629
0.544126743909645
0.529141375591638
0.536477897524407
0.521491413059783
0.524464975439015
0.530648200570327
0.538428806920664
0.515703835641686
0.529717161486612
0.51110367640196
0.518117867444883
0.496463792353327
0.511720069143304
0.507132076733727
0.505488338239281
0.495807903467186
0.497805686523096
0.493963424668828
0.499026874410442
0.483501679236643
0.494609643192525
0.474803333911103
0.492325029869132
0.474342542762214
0.475597050968572
0.46080144243675
0.467442348351624
0.465456590402234
0.461195132015766
0.45068556395652
0.454719756694736
0.447358744988266
0.458982153948003
0.451698483434378
0.446537087509937
0.44321128425281
0.445544909294289
0.442122743307334
0.448652922257225
0.439760757116943
0.449575030743474
0.421896643051196
0.433681877144856
0.425349879710187
0.423064017975127
0.42046666673924
0.418255665412433
0.406094803385649
0.407131255297479
0.395691804854408
0.415806991998327
0.396407724730767
0.408964396992153
0.395020048900802
0.407308478680961
0.392941764492339
0.398659024490383
0.381654359975991
0.402482674116877
0.380043843936651
0.388256125433955
0.373068235750535
0.389398145019785
0.373368488399997
0.387433968626212
0.380048434987907
0.375034042686895
0.364085352455538
0.363904152531698
0.365376442578475
0.366673486165061
0.361046210069088
0.361860675729176
0.362697788012771
0.360811479492563
0.347050884742263
0.351154390022254
0.352883343595832
0.346246928667793
0.352797371880209
0.349851148619858
0.33874323139897
0.341028474289328
0.337249868976782
0.339916464756609
0.340245377882212
0.34753934450623
0.329190127107472
0.337385250263714
0.328058054746385
0.337321151656137
0.327998594280655
0.334993987407937
0.321252979357071
0.331452896491104
0.330052812405537
0.329076378649906
0.31953959856642
0.328537017748528
0.323816566610759
0.323706592351875
0.31596320825982
0.324184719943674
0.320144828571238
0.335904990998462
0.323258019261209
0.326700183814896
0.324499140953041
0.333088012244089
0.321985386924076
0.33086981961014
0.327077518428852
0.327271294356127
0.328594978469746
0.330197139198047
0.337669187065262
0.329871363827131
0.326488530009647
0.342974813248148
0.329194206369491
0.333946020341466
0.334138112320376
0.336490669303098
0.341058728054143
0.34496353753659
0.336449039620614
0.35092155695288
0.343995268462991
0.352475304702687
0.355732164264234
0.355673467031101
0.361575675964429
0.360395780239616
0.359620798822428
0.361314344935633
0.361695248870973
0.363919776203886
0.368035201172474
0.380008641672654
0.365856457685309
0.383583134221278
0.376369943954117
0.386007034505714
0.374398357515935
0.383763947311667
0.378467599547662
0.395055449956577
0.389755695856613
0.386786416145572
0.391803574086934
0.398500393142151
0.391416269713716
0.396491180469067
0.410383145000093
0.421588522522197
0.402579600607957
0.421974489651847
0.421080465149722
0.431683349053663
0.42203347518209
0.4315264144779
0.427192533001034
0.422447534310608
0.433988235281022
0.42958255115893
0.416815277813864
0.443109507770422
0.432398880807728
0.442685195849343
0.441002253977649
0.444964996533526
0.437366544240662
0.452877299041332
0.4437384806936
0.456727379713961
0.444090554621232
0.445352165547844
0.433279541987733
0.450442149452753
0.446105013605345
0.449235866201929
0.437453549996127
0.444077191598341
0.439003965686494
0.450949213214082
0.433496480770268
0.437385249290805
0.428454348743989
0.443974221684724
0.432750529374752
0.444583577687742
0.43883746451849
0.452829006277885
0.429070634254343
0.432983728382793
0.437334083670834
0.444398604472708
0.441212206123767
0.445133797784769
0.435978270634658
0.434666739437996
0.436390659222462
0.449495173769741
0.430277236979911
0.447523488831716
0.432003916345037
0.449969387027975
0.440674691563845
0.445254803727141
0.430414055170918
0.444673660175531
0.432328797876669
0.443556805737378
0.437501903001466
0.4451845020403
0.434306329591799
0.447250240754837
0.432684267858879
0.431659418085135
0.438975313440237
0.432570350348349
0.439346157881391
0.439751563186961
0.435205087407561
0.44088042691654
0.4204383862662
0.441277316026428
0.425607646469385
0.423469632296754
0.42627383993146
0.423775947256334
0.42769427835123
0.418637601207377
0.40691368053554
0.409705985782392
0.411217239146698
0.411924828681168
0.40274615275413
0.410286749889859
0.402126903133486
0.400985957345526
0.383119922181444
0.395701796807794
0.38752864325257
0.394023197558692
0.371742546606266
0.374051267220994
0.369838777957349
0.37206870706289
0.367387077565674
0.369775296243329
0.358939500200241
0.369096631041391
0.356893282520748
0.353322413169761
0.343060602746998
0.34710480535085
0.341256771814287
0.346769741933578
0.330245842313626
0.350508188376839
0.334282369814261
0.33454334044641
0.323972239769397
0.326803574467498
0.321085336739948
0.326239835435436
0.3155197113221
0.315402630674368
0.311842524628828
0.321033607088718
0.313453139375844
0.302694387544799
0.300946425821055
0.30916245379136
0.291439726728491
0.302393018952143
0.297299263931641
0.304764037243668
0.296461562045073
0.293588446579541
0.288753096802652
0.293822365637607
0.282570262702269
0.28544561603519
0.278340973663157
0.282018129710909
0.277300473919291
0.277732575656953
0.278092733890201
0.281605692647447
0.272145629009116
0.275272237776962
0.258211426431547
0.269486313166133
0.26694453529234
0.276266589734779
0.260562949984506
0.274458088611435
0.25871367762563
0.271602430181094
0.261068703075241
0.262480992116492
0.253195270422542
0.25924720129164
0.250545182297807
0.253525872093743
0.254382820203801
0.25304540207292
0.248494119071385
0.249156506542414
0.249591904397692
0.248528449920871
0.244459845996496
0.244553690546472
0.243926436117896
0.245663648119308
0.246453805749226
0.240199226074268
0.229864745761516
0.24315559802364
0.236910446142403
0.237777327992222
0.231416146173554
0.237767017305369
0.233493401861902
0.238642905603407
0.231117053303711
0.237850404781978
0.229064393136617
0.230381356379465
0.227445002424545
0.232129042299132
0.225885755028554
0.232250486840817
0.226279634003495
0.230110987979363
0.219240243166429
0.22599715078494
0.215161258397676
0.225283358992629
0.221892374094043
0.225180012139804
0.217057138728298
0.221099247314749
0.216457783772328
0.216883521044247
0.209811923960066
0.219342547374411
0.214679131669993
0.216294673822143
0.214604893247136
0.220816052185506
0.208633239211442
0.218709064079223
0.213249220750573
0.209986192475861
0.209949241171592
0.216114223397292
0.208148823797348
0.211528831501715
0.208653342699083
0.20940632893003
0.204529123712743
0.21261138790346
0.199660561330152
0.207550661932072
0.20177298411397
0.204670313601217
0.20226896628055
0.206653758990838
0.20031747817221
0.205320541566814
0.197812669508566
0.201205769055493
0.198637319074156
0.197690496699969
0.199581405742946
0.200152271039783
0.197819182539213
0.200571097282177
0.196805919986227
0.204585033480605
0.195923248999923
0.203332039732016
0.195595935460438
0.200523026779231
0.197295666140132
0.197961582679646
0.193703789333877
0.201950365976008
0.191935275568551
0.197257987850796
0.194800634417225
0.198275774731619
0.193662811337281
0.194681701730789
0.187583672945328
0.195417158352209
0.18897227893455
0.192664412839227
0.189469965163354
0.192187159450094
0.187137522006204
0.194404120916471
0.189212001616608
0.194086831114856
0.183642553557917
0.189284510603662
0.18160046303658
0.187788985360612
0.184634632432841
0.188919292681088
0.18034948245142
0.182102457767433
0.178266209920145
0.186038067272318
0.176629370058798
0.183847874504928
0.179836502491198
0.180646138933223
0.174925542332447
0.184866830165485
0.17450987820311
0.18045083886525
0.181640147706087
0.181529903411805
0.174649000021072
0.173468235473692
0.174411082860732
0.175745063455766
0.169668799786608
0.17584260313784
0.176459609899262
0.172016084846281
0.175635273126285
0.176909695899413
0.166466169939325
0.171371777426337
0.170526200328189
0.170234751813878
0.167184471406888
0.16730943539121
0.165596043551464
0.165959629955108
0.164227513644608
0.167736365990789
0.165636785644558
0.163602014727067
0.154330544249663
0.161706756241449
0.161802242484059
0.16514086692863
0.156118438232494
0.161024946179906
0.159214792162701
0.159146811898781
0.158536003258993
0.15947652379832
0.150597004482727
0.156704109292
0.151236092934971
0.154231093464577
0.150869730983907
0.151498020834292
0.150301792972616
0.151349807221119
0.147667547815042
0.150050982735752
0.150195436138966
0.150322934382382
0.147213459454867
0.149795953303181
0.146495422155095
0.148523628258218
0.14429307083904
0.148424759109099
0.139461865803796
0.142208302383403
0.137129032544804
0.140835368465549
0.135333795128372
0.141013432265781
0.138469973386432
0.140695056791003
0.134820537420617
0.140485017097424
0.136438624441148
0.137941095623431
0.134775495289641
0.13781665317584
0.131011820055104
0.134595612138872
0.130299259265355
0.133097301715975
0.128199753969437
0.130845874388911
0.128145537129798
0.129862110965294
0.128100788690366
0.133568872897719
0.128309540593469
0.123349119279414
0.12298418111846
0.130279358805174
0.126885038594071
0.128225641998279
0.124184692921419
0.124490179522051
0.124048105732844
0.126187142031297
0.121805908619328
0.127810645966276
0.119485291097058
0.122884552973549
0.12001989751447
0.119502856192597
0.117977346298225
0.120200570143023
0.112354147118453
0.120345527874273
0.115988027490316
0.119487292218066
0.114894651962759
0.115766416334721
0.11354102808689
0.118305768870996
0.114285935157874
0.11829664340572
0.113600275436292
0.113391696767388
0.111286633727121
0.11566265341347
0.111669597182704
0.115010344583223
0.113512635138252
0.111616507353364
0.10932516789871
0.11297492572179
0.109521560368886
0.113729164986955
0.107383219523462
0.108165223412712
0.109212615393427
0.111065899450131
0.107962523735669
0.109895416465662
0.104555250248379
0.107607207874791
0.105602155644105
0.106234709614719
0.103161078958395
0.10819846961059
0.104386371387415
0.10989252355671
0.10533058835385
0.105651181209914
0.105065405075507
0.107763894545053
0.103355112739179
0.107479777528961
0.104817788658356
0.102161010451563
0.100337913085795
0.105540126481847
0.101357719111394
0.106710109913338
0.103379566351538
0.103842045820393
0.101976760613373
0.103295388051319
0.0993942703982235
0.102081145018995
0.100401324969796
0.0996786597680244
0.102424548489896
0.104572468007664
0.100739053369974
0.10165745364499
0.0964723909791072
0.10065200394598
0.0965896705267822
0.103029638906306
0.0995886415998815
0.102910910338119
0.101936182266053
0.0994545357125457
0.100379782677129
0.101050532674078
0.0952603650275462
0.0977645151307415
0.0938484182764309
0.0962493872450332
0.0966614632567731
0.0987266555434691
0.0977497742361691
0.0971635421895252
0.0941307728022973
0.0986386501879765
0.0939503240171468
0.0997146825182629
0.0920926556974299
0.0931622170632933
0.0935602415470481
0.0926892172392758
0.093611928963928
0.0927780689418869
0.0951501467494385
0.0954904504025345
0.0898974009673742
0.0937932531278935
0.0914455166721185
0.0901763118672822
0.0907823552745644
0.0944968451947837
0.091857840227841
0.0910595923148791
0.0909460175380515
0.0941651677460269
0.0853933931089944
0.0908382180143056
0.0850245590050403
0.0909120486256954
0.0879296574644942
0.091139658157332
0.0878793783024828
0.0906788607942289
0.0891150020238624
0.0906016437745856
0.0871893035595422
0.088177980526414
0.0857620256059879
0.0879767662484539
0.0875183209390268
0.0898372459803381
0.0881632060199493
0.089247118016242
0.0839843853176904
0.0858484182865823
0.0855945291726542
0.0884064395548762
0.0854728560747157
0.0836445032630264
0.0827122028392162
0.090081328581129
0.0862764612860238
0.0862766242478442
0.0858481085711695
0.0855772749194953
0.0822917221446543
0.0829819556896875
0.0806337511942765
0.0821072112903134
0.08064828012945
0.0831124375453856
0.0801123217748796
0.080517473210844
0.0783002745278464
0.0790256529861994
0.0791972531433703
0.0814842073046663
0.079528683728186
0.0807416097392517
0.0791478164015696
0.078604192160792
0.0761115218662429
0.0800910896186801
0.0757361627723124
0.0784210734151906
0.0737256164740589
0.0818180208807339
0.0774700843728904
0.0782424386050571
0.074070171658543
0.0772826864210113
0.0750059093645948
0.076544651677195
0.0725683629551515
0.0757509575891833
0.0737743774856171
0.0758401030089617
0.0720993525952014
0.0707650301381584
0.0687504181000479
0.073958582474093
0.0714896772298187
0.071329890883243
0.0722934785469422
0.0727625394687073
0.0692432668694103
0.0738783850849229
0.0697774842729846
0.0688061271155656
0.069811869955121
0.0719843127865355
0.0700995292186999
0.0684586792919318
0.0663209961834294
0.0712390190792847
0.0692021769476675
0.0703263223164473
0.0670627832401515
0.0691259675105946
0.0673309937852971
0.0693102872013441
0.0664594024843709
0.066323350404948
0.0648843894490256
0.0672427044817019
0.0655936438782977
0.0670838118147685
0.0652561647208559
0.0672276149391553
0.0630269379951909
0.0669596912382426
0.0647751965873473
0.0658191324610199
0.0623435731555756
0.0647366851722158
0.0609268414821276
0.0668849688146401
0.0622421506008327
0.065994254588457
0.0625460044317785
0.0617821923543553
0.0630866932579819
0.0653844828589371
0.0597347599623984
0.0593737451278883
0.0619536494621401
0.0622713326757165
0.0585784223332378
0.0611933632966403
0.0599146248187249
0.0633132676740903
0.059464799164586
0.0586477721939859
0.0582358998514643
0.0590882783070455
0.0603673846301767
0.0604672254338181
0.0602533096189228
0.0602553513095843
0.0564373014971281
0.0592651852619623
0.0565481274648225
0.0594915517946762
0.058355042923001
0.0598344464494468
0.059365076355793
0.0577574512922608
0.056488105421332
0.0583706537007975
0.0548517428778805
0.0598140264931322
0.0579354577417781
0.0605029357882016
0.0587553120581247
0.0594526029905886
0.05683398969534
0.0583414472620643
0.0543188299233945
0.0554607381444864
0.0553319455455032
0.0589499274354244
0.0554117373288792
0.0590783737670503
0.0576303034344222
0.0537992953050766
0.0545830198023172
0.0521775903723461
0.0449367665278264
0.0512157855300124
0.0564471099567255
0.0613477783245135
0.052168738632987
0.0509428479373167
0.0539774695503617
0.0526138704310959
0.046273206137052
0.0540432487032391
0.0552062081858929
0.0520994837258064
0.0535489372602828
0.0543863519850449
0.0528196749639155
0.0514944363289502
0.0450506967288683
0.0581549174540636
0.0576654976515786
0.0503182323314704
0.0601577600304267
0.0552262753722343
0.0564718888721797
0.0530851664785701
0.0540998766123817
0.0501834177822597
0.0549010770575904
0.0521804625238118
0.0512967808284272
0.0528537095119678
0.0473449961309234
0.0525801594579867
0.0522688774176648
0.0569258408917592
0.0486190657995573
0.0542728173752546
0.0465171419165244
0.0529997215384541
0.0387238387428641
0.060254696002411
0.0452808292453525
0.0671895511677094
0.0441467615687138
0.0638213928148037
0.0244159061408151
0.0700087897829123
0.0315415900025507
0.0754380484885705
0.0188839874035345
0.0759696270905256
0.0186802401433139
0.0912324631995433
0.0117418280128391
0.0837384506751397
0.0172798999523789
0.0877605526041003
0.0164421523360066
0.076585307210379
0.0295362131446568
0.0669015835641277
0.0361836024960435
0.0648729908902446
0.0457006425790527
0.0501512627885344
0.0579684757833877
0.0438019965534932
0.0596594658701805
0.0443145761044179
0.0549656952621717
0.0467003659522862
0.0479549981454124
0.053801078503676
0.0476297436780238
0.0564084270241786
0.0436756446421194
0.0551670833002673
0.0486172472572495
0.0543040279397702
0.047972472723824
0.0497304180336544
0.0491204951429688
0.0513629078150423
0.0491088023267267
0.0503730687254114
0.0500410255844
0.0519130350640287
0.0484960558318512
0.0531840172195163
0.048091621078766
0.0512646690943407
0.0481154055660116
0.0516837072204656
0.0490890208707583
0.0542441321676478
0.0491945277800107
0.0519664203433113
0.0495335160944827
0.0532689144996453
0.0470300529366733
0.052331374336492
0.0477946560694592
0.0509503319914018
0.0494923969714095
0.0532863533288581
0.0509837154683694
0.0517425859453173
0.0452348822675168
0.0511984592117467
0.0468130083968301
0.0515092570532522
0.0496982177722394
0.0511326619220601
0.0485277117132076
0.0513314762412382
0.0479422869062219
0.0531710874450735
0.0503398480395249
0.0503646227043064
0.0485937295327272
0.0533617392165136
0.0487831266040418
0.0512533229960792
0.0466272130104908
0.0554605851534802
0.0508881395560851
0.0502989805284828
0.0524842631594545
0.0538847889079216
0.0505817258178831
0.0517499466600378
0.0485368664671016
0.0509811806151313
0.0498877731630499
0.0507723771514681
0.0500922300019552
0.0521103672412297
0.0491784864479596
0.0534595871970995
0.0504451315030252
0.053208156911577
0.0512290047399619
0.0531295492123475
0.0499238912395411
0.0512413858089346
0.052283982060107
0.0516037397956724
0.0496402978697948
0.0496728679220412
0.0547258086670526
0.0559400622761504
0.0495355669870656
0.05338683037617
0.0516940128064713
0.0535895555665718
0.0522688928867391
0.0555338002961188
0.0506905594451262
0.0523319615522273
0.0493583324642303
0.0523747414076203
0.0504659060286443
0.0510810042973021
0.0503230337559007
0.0535309695440857
0.0560536745912494
0.0533000468023215
0.0515018529966068
0.0541669336702619
0.0536441135895661
0.0538276769372859
0.05522004883008
0.0557572377917547
0.0516635487078872
0.0560759638996295
0.0548387871027908
0.0539865815424631
0.0505574924614542
0.0548481296848368
0.0535623880491969
0.0542525943066762
0.055993153032703
0.0537513444261111
0.0525409888744347
0.0548868365468927
0.0543358528538955
0.0561588922567922
0.0548361131606312
0.0551884924880759
0.0533772929636356
0.0569096387879951
0.0548853994560552
0.0546204889668399
0.0536995063760416
0.0571059129848419
0.0551969450724304
0.0553551360397319
0.054528740466597
0.0572979833398907
0.0529746154422257
0.0544017339713648
0.0551504155291471
0.0551951266372285
0.055595358928795
0.055487127315284
0.0538023948760006
0.0570465528006123
0.0559334536019596
0.0554433291272174
0.0552584298958951
0.0576700608316614
0.0544599326874484
0.0580414439336937
0.0563417368128328
0.0601430602202472
0.0562355523130579
0.0561949342263157
0.0551187364050892
0.0598397365064582
0.0564584891524944
0.0566408613430092
0.0567938289785827
0.0596175643650186
0.0562168676518231
0.0558529947429829
0.056047902249676
0.0578110962387824
0.0553005369464687
0.0578119196692821
0.0575039681635685
0.0561767537930006
0.0570784226607823
0.059004452538374
0.0561013542154706
0.0571694053081493
0.0592622607863138
0.0597105229149453
0.057080524332958
0.05734876306995
0.0567748248523748
0.0584019504576935
0.0572504831662524
0.0608398519627601
0.0594716417965424
0.05679256724762
0.0564840913344787
0.0599518779807638
0.0540433470469877
0.0570172750919609
0.0575144260650117
0.0588997650619518
0.0552108325547041
0.0571676378715217
0.0588862850582086
0.0569800419227028
0.0577953635983172
0.0578407554188238
0.0552698742870456
0.0585356752744694
0.0555303340501222
0.0561366444266051
0.0529665327211521
0.0548372920417765
0.0549974153979467
0.0565125609560162
0.0560210298634156
0.0563536796723373
0.0529541292508032
0.0538940948756398
0.0556702916123898
0.0556203252355108
0.0562708642295324
0.055482439224074
0.0531544917939272
0.0560481854984709
0.0534030213881301
0.0569871956679643
0.054259617149299
0.0553327903761014
0.051527529968557
0.054852528376157
0.0565160687631881
0.0561864248799485
0.0558617411517671
0.0563496128467527
0.053962824597711
0.0554753498795289
0.0545424859819475
0.0558210768999987
0.0564902640563191
0.0559287073056189
0.0534705699560379
0.0530833551034849
0.0528922978838296
0.0542802145752164
0.0503244933396879
0.0560475074658775
0.0526441399765853
0.0543142825268176
0.0524371167332528
0.0513150410098409
0.051819817745783
0.055715340382721
0.0529032838062158
0.0534768695600554
0.0538183925990004
0.0520215040305722
0.0509639910365928
0.0534923321880024
0.0512416806669682
0.0516318873630773
0.0529706952294972
0.0548047318914987
0.0547091405169079
0.0538858472475777
0.0553248791016535
0.0526371940131766
0.0526558413336212
0.0539927397488207
0.0508467611095139
0.0525568943072059
0.052664616073959
0.0520710587417193
0.050903793615495
0.0513982575599704
0.0528668272508215
0.0527097370294644
0.0486699494364624
0.0524222507169124
0.0519394108462576
0.0527221329414492
0.0479373721871087
0.0544820857913707
0.0508259767838845
0.0541225750226866
0.0521552729373834
0.05234630687196
0.0495429693526311
0.0519984344460936
0.0499459573299186
0.0501346184508226
0.049649842355818
0.0489440360210293
0.0503009705476258
0.0496215453650613
0.0502653652350121
0.0509136564398836
0.0512732955434476
0.0519576009034593
0.051274588748859
0.0507881384324847
0.0486999622962906
0.0535664892957587
0.0479422932538642
0.0496254009201231
0.0497037277860893
0.0499063479553788
0.0489645148774279
0.0491009683990091
0.0514822774213883
0.0503812145771657
0.0480683624082276
0.0502904726823504
0.0463648314320792
0.0458041319891327
0.0481129488939522
0.0505103037537986
0.0488194777714342
0.0486235718034282
0.0462030515887241
0.0483255291075179
0.0459654476016488
0.0479955543012594
0.0462784119012909
0.0472376722191367
0.0459920648667478
0.0459901893214591
0.0490457557860048
0.0479872843004369
0.0486613911205917
0.0455810620889405
0.0481634401368467
0.0461442549123796
0.0438769285694623
0.0452709122337411
0.0439423050934753
0.0448786826329715
0.0454562036530637
0.04482115846482
0.0440407229045176
0.0447409524964918
0.0431206604776367
0.0457289908297703
0.0449777513409208
0.0442264992867406
0.0421964650697359
0.0428407954976349
0.0430531577652581
0.0419154043116427
0.0432435488355451
0.0422601678794857
0.0419778124568209
0.0429798769387142
0.0443040068379855
0.0402931768757271
0.0407483613848537
0.0472086681287794
0.0456753518185297
0.0421712194170494
0.0422083441896909
0.044546950741007
0.0406297794681634
0.0445572438330109
0.0422691769670638
0.0425882976111559
0.0405211390703248
0.0441015272567942
0.0409419156723171
0.0429527138535827
0.038387846926083
0.0416465531826991
0.0392581668490894
0.0424446462488742
0.0412967878567208
0.0427357552276039
0.0414090574743534
0.0415967749370366
0.0413708520727768
0.0431698105046757
0.0407821003536864
0.0398185369119205
0.0396705634928523
0.0416905210657557
0.0423737804670964
0.0436450484607031
0.0401652630524469
0.0419133185343396
0.0387448274839788
0.0386254495803623
0.0375324658272889
0.0403630706603041
0.0381876401468103
0.0402647105276195
0.0407661703030627
0.0404680357571927
0.0368145457463184
0.0390319617725984
0.0394698428543705
0.0381263968497619
0.0366624050384179
0.040301679562808
0.0388977163544973
0.0385443310504583
0.0377718363255074
0.0400474856815196
0.0358761926226505
0.0393369552968772
0.0362613893055349
0.0375570320541741
0.0397302257030117
0.0391227336544109
0.0443936806469539
0.0370628700088774
0.0398617645364827
0.0330650651469459
0.0375499411008445
0.0357289398470254
0.0374768053459764
0.0378984791028775
0.0368212297702071
0.0352701783972938
0.0378279626695197
0.0380558376851306
0.0371440558308424
0.0364605328693717
0.0414189952970375
0.0361576255320252
0.0379388673855351
0.0352679612353598
0.0364093404920754
0.0354685369679071
0.042398368424963
0.0394131051352627
0.041779652930888
0.0344529087137871
0.0445854878725375
0.0365284289657132
0.042780526344327
0.0367005368714477
0.0371410395151739
0.037478841520556
0.0365560175287429
0.03813952997429
0.0346104867470948
0.0375827798052732
0.036343964502256
0.0426288674582385
0.037379490040843
0.0403095947021637
0.037099509298296
0.0392242206992141
0.0369367630119987
0.0376444065106494
0.035754856446865
0.0361719663028282
0.0370517046047769
0.0369794171015387
0.0380112178230844
0.0370318533757688
0.0363249533455569
0.0377183193453999
0.03936651380328
0.0394863268782786
0.0357508821489322
0.037321792252153
0.032045478959094
0.0389213281145799
0.0335486580363729
0.0425205135085089
0.0327396585589344
0.0389065626339387
0.0341602403754768
0.0401918739549517
0.0351233021034184
0.0372468155910086
0.035698982249987
0.0365242412839116
0.0316614671130016
0.036068878569969
0.0362386552172276
0.0363682232792606
0.0401629056224973
0.0336513094268847
0.0372823910719969
0.0361516927941074
0.0390519498706065
0.0356219909166336
0.036094592462756
0.0400538539862585
0.0425031404473117
0.0457464457485938
0.034527611953723
0.0423143456803449
0.0356406016054781
0.0424903243437309
0.0364629747172877
0.0409923540679347
0.0358468516883061
0.0413332482034573
0.0364181917303755
0.0380348505045642
0.0335918095796929
0.0391027307484694
0.0346867663304193
0.0405605759412088
0.0320585754911835
0.0374586023466909
0.0330431413802875
0.0405898986476817
0.0311625323608582
0.0434742803093632
0.0377667933041066
0.0449075974098826
0.034969104407847
0.0384142622031814
0.0395099493415798
0.0447776797153824
0.0471549676848684
0.0335207457147529
0.0415608703502342
0.0378385734304189
0.0381252575160386
0.0370509883753004
0.0396719596579612
0.0395055694416887
0.0381873081935096
0.0351653827158526
0.0387084065690154
0.0367280956620324
0.0365675452684838
0.0445016879919769
0.045917754924084
0.0486038933164828
0.0412157612842302
0.0344234515111523
0.0499236124777364
0.0429930489064052
0.0440854318383454
0.0362672818414399
0.0423528197525488
0.0383438667096455
0.0393159439671541
0.0381626742833842
0.0386185277247058
0.0411986500666775
0.0395650519598896
0.0415523994923842
0.0368023248201646
0.0396193882491626
0.0391891862968992
0.039308369288397
0.0413789418723977
0.0452432438779506
0.0411969274835398
0.0405995135468152
0.0428864023369443
0.0424728775247369
0.0390039787928265
0.0418996506280288
0.0381426779360125
0.0473034644327593
0.0419473697973264
0.0470155247873306
0.0451979638187018
0.0453663631602926
0.0427486892007801
0.0395275309495511
0.0469200288151709
0.0473859198009461
0.0370390209380491
0.0554757585929333
0.0393619750525565
0.0666094190243527
0.037042596165978
0.0526044198814488
0.0358895817215261
0.0512583148619917
0.0347152018195465
0.0526563574602538
0.0442686043365462
0.0498902139192482
0.0440887993687815
0.0440309413040887
0.0468566893549806
0.0478050102706108
0.051637867762851
0.0471013833724034
0.0455182518576618
0.0447603024946201
0.0593020892347705
0.042123945669206
0.0519229403226481
0.0381823742821986
0.0632351595254592
0.0668543669329731
0.045434067895239
0.0544479413255969
0.0472030024076165
0.0600966819426379
0.0499849667124246
0.0471302530157722
0.0527423944917904
0.0437546103292125
0.0568322530211594
0.056371262839876
0.0530666069682716
0.0560027490087056
0.047789943047076
0.0570544466583411
0.0587935443728914
0.0568479811524807
0.0521431005609349
0.0581235167822557
0.0521143767980597
0.0554870344384103
0.0824067972665641
0.0529897315145801
0.0769939505808667
0.0535598986074094
0.0754579340226678
0.0580745283927402
0.0708949617972112
0.0549536074765514
0.0719897956089263
0.0667131405756822
0.0700611650850953
0.0532841749496634
0.0787435026446989
0.0624309344052275
0.0766657123900981
0.0637027190547335
0.0683398804639929
0.0608655744137779
0.0812545767192068
0.0796568406502982
0.0868114074338678
0.0709002167502449
0.0790139485801035
0.0781369867578574
0.082482938999677
0.076390840294601
0.0761528162118118
0.075761283504211
0.0774076492580084
0.0760925946150901
0.0839058946767798
0.0807966991894614
0.0930456900951381
0.079525485540582
0.0912113557408491
0.077594846787475
0.110148374844957
0.0910920714336891
0.100222407673128
0.0916460461857163
0.106885983180739
0.103929595677259
0.0943419066489362
0.0985249361380812
0.10056178588525
0.105099911785058
0.105098915432713
0.100797761426767
0.113066592525669
0.105255241269247
0.132695007569878
0.104841689004663
0.128780572505386
0.0938974254815181
0.132386551496736
0.146894805453896
0.142664811940972
0.138037430799228
0.122455752843375
0.152649381343284
0.152117043755915
0.157043543077761
0.148619361165209
0.158941659802381
0.155499177917007
0.165409373282065
0.170919086230555
0.176859123731672
0.186885438005671
0.183269687946921
0.180601666478179
0.204792215927496
0.21806670370057
0.244243254021955
0.219453314182306
0.222273711321546
0.221465998630119
0.236291776608802
0.232524753498014
0.249866919666684
0.231403215972298
0.275089764521482
0.268672514146238
0.287515934656345
0.266675261342087
0.289215077733531
0.290943674315696
0.295373387905268
0.32236758190027
0.315789924996933
0.32500852566059
0.311295131065469
0.339062348184216
0.322891834522332
0.339756625405365
0.347888835757646
0.359776427347254
0.35204410898586
0.360793409489934
0.36842222792497
0.360146084169002
0.372746384744016
0.379353617866526
0.377601504947884
0.384542192568998
0.399581314060195
0.525347661180934
0.405663985975872
0.409815910977304
0.377989285046974
0.412168571275272
0.396688523120336
0.396897978612195
0.432607381553962
0.402685290821642
0.406359901630055
0.401970509030947
0.405700813907407
0.404237760722661
0.410889990238622
0.407053203940336
0.394713544300138
0.417628656311762
0.387807791497085
0.466712830993497
0.417032919748974
0.413016231555393
0.388655769965067
0.408955002936618
0.391775415314967
0.411944299832645
0.386704537343708
0.41662939129682
0.392704888558868
0.392224665058221
0.37550448893756
0.37488511862686
0.381415857446345
0.390700872810494
0.375345680723717
0.366155937198929
0.361035015157003
0.375674176228694
0.341138225459967
0.39033413516718
0.352693102110465
0.360294610360165
0.340886558317256
0.34196114836312
0.334685346145269
0.339940717074923
0.329553553121711
0.345900935815108
0.322188252806179
0.322959032859595
0.324710505318918
0.324453566149231
0.316267800212084
0.322514740181017
0.321430559936662
0.317235793752361
0.316855838051171
0.312910561052686
0.312830188981918
0.31494356315573
0.309111781627407
0.310002362582953
0.309451728779856
0.300540103185416
0.30999471925191
0.303815666405215
0.303667885521264
0.307851739914078
0.309428537379261
0.301264948616125
0.297564609087539
0.300292199990505
0.302375394806628
0.298178287167408
0.297220944660595
0.295362589357564
0.305490041960511
0.298374909903387
0.296858039306283
0.292850646802375
0.297109035515179
0.290432122865366
0.278904745266852
0.325617423124918
0.288805214509265
0.299049922046684
0.274655779155965
0.29733302030308
0.280245693693064
0.283462075570183
0.293007134365228
0.289578106418532
0.280237315465928
0.275919629070432
0.267717252116641
0.291018885037462
0.267807955929276
0.276582795584531
0.264055193155133
0.251951574071732
0.284955012708981
0.246556578882169
0.329099004160531
0.283386051148197
0.278727958518862
0.243826300944753
0.27259112694821
0.259938489155201
0.259213456467382
0.247693665589379
0.240465558036818
0.272580663198833
0.249722139842288
0.253419962546977
0.239424995760024
0.237464450567755
0.259885799094583
0.261737634823371
0.234702748549345
0.258589699280162
0.242770832814771
0.241650870801721
0.261158964769956
0.273362692948863
0.237053625023647
0.225967274052185
0.228538825973917
0.216447833142882
0.220239422384746
0.236758428269668
0.218106364654206
0.23014976685627
0.211247362165781
0.219892231869892
0.203679031268331
0.225581902646376
0.193045634766981
0.220969695318512
0.218173204922903
0.196225169665222
0.215004518232132
0.190700642148917
0.235356327462375
0.21792983014805
0.206980782331524
0.178920606327349
0.218807545139002
0.202791600667941
0.201055463947712
0.198558431903326
0.182124462317672
0.191693368683821
0.191519503061035
0.175392706096347
0.194321397428076
0.184255178883873
0.191728644516077
0.189201153119968
0.204836557984613
0.2063668148502
0.176372768814704
0.176581515539083
0.176852452666375
0.179067219877826
0.180162196376516
0.164186813222769
0.208965016941285
0.169015440352945
0.180318197678167
0.195829321007084
0.182828144326118
0.181551713592449
0.184883228585755
0.180609984392451
0.18529571979734
0.18551104086393
0.212744846231331
0.182445451764133
0.210724730340826
0.202764144192476
0.2019236039257
0.197443637359404
0.207765383195102
0.204200797170421
0.210614411776156
0.218107995489148
0.220327208332468
0.220729595677828
0.233932851485711
0.222828250251568
0.258328101228111
0.247449267651691
0.244849629459662
0.278787468209962
0.257154086904399
0.309137909759928
0.268796408373621
0.279451842811029
0.275703629524108
0.285474065899084
0.29639580268706
0.284552039171394
0.303977648212604
0.31503507237776
0.305662851210903
0.317839900135079
0.307115264155462
0.323759006488377
0.308710061035663
0.354039419326369
0.301560911010461
0.390992435570862
0.330289913814045
0.357564236387752
0.33770794542575
0.339194901174021
0.340841470207343
0.3442019224498
0.346174844630607
0.347412437894024
0.346024778969379
0.367075371853292
0.347721693489239
0.361910836541644
0.344665275837183
0.358120905526531
0.358854885031015
0.364048973213639
0.368860583802209
0.370636777489826
0.374302830921443
0.364226904416668
0.36816200907191
0.437879625664208
0.379666836794028
0.390544055769168
0.374329831303734
0.402182284299828
0.385836688666541
0.397562453294589
0.408537932956795
0.405530557430682
0.405789293339663
0.406775340829052
0.410726567351676
0.409664587749126
0.411939947647855
0.432930855119127
0.408987290452123
0.436662295158415
0.400784804037354
0.476799623043778
0.430584155306311
0.446953377092156
0.431522158285925
0.440792299463411
0.436568922508503
0.441227268687282
0.434165379825767
0.443038095044638
0.441827468394699
0.447005066779833
0.445736397582131
0.438153490131097
0.445909899558547
0.440147009951028
0.437980724188105
0.453134350240333
0.436247946891061
0.4464649696852
0.432974877819303
0.442094436098694
0.426626192097541
0.453871500169843
0.436978284802388
0.440094616448361
0.429262263862712
0.440397773617825
0.436807524777652
0.445395292424083
0.429489516630364
0.440979272136633
0.426720014256934
0.448771709222865
0.430586532469052
0.44765668232583
0.451369588994457
0.447535291266536
0.441713001440875
0.44474423065393
0.449674552344219
0.453717798277749
0.450740839170919
0.454869860421156
0.453868567703513
0.455850618598088
0.462673995286171
0.456910470726782
0.458311926092377
0.468075714299077
0.469025828799594
0.473108638127658
0.456991082203026
0.45482049565064
0.444796423327389
0.457628416140074
0.449200493684142
0.450075980673223
0.44032714475901
0.442487727995874
0.432045217465177
0.434196177914994
0.445425748398377
0.426850898232808
0.435864225131299
0.415791704987443
0.416402111570182
0.413931358503094
0.415501638438219
0.413800303268966
0.397423745718127
0.405607830988294
0.400187535832054
0.399512697058112
0.398229934037771
0.395287037590933
0.39561221559364
0.397011729204605
0.391043730086791
0.391535286977588
0.386815861591182
0.392290861308592
0.389107518026789
0.387720528425766
0.388311551270972
0.386711877784999
0.399996264877152
0.3916129158319
0.401101005838593
0.387740209600548
0.392986442523827
0.392613780939625
0.386453864378721
0.388243515591874
0.385458141889948
0.384992595807367
0.386325883602038
0.385930880342019
0.383891286662691
0.384241989149524
0.378773426958149
0.385370970514077
0.380100611505526
0.384823582226332
0.379237040626864
0.379461644485883
0.377624874490998
0.381888707433665
0.377098620580311
0.385210904218766
0.380445973283822
0.381719536719159
0.379928918415815
0.379909740367047
0.376317657966828
0.376275911515455
0.382314328414204
0.378151851201528
0.379601481767522
0.380244223106205
0.375888014025098
0.379153263148158
0.375213643411382
0.378196623001579
0.374395902226513
0.37155135820938
0.373292895570271
0.366639828666135
0.363938842404499
0.366524047531313
0.362468601490522
0.36022389892949
0.355625867897863
0.353558894440515
0.346846249537135
0.350896896686365
0.34130897648652
0.342382255872555
0.337174280924171
0.337717903005192
0.331492651129574
0.331291078091109
0.329410779480464
0.330603033364588
0.331280654926236
0.327955137728129
0.323707380290075
0.328211087474877
0.325863361501835
0.322297487664719
0.32253943391726
0.328133950637679
0.32421046757167
0.323194863965012
0.328099456105738
0.328747077259024
0.326978336142468
0.3263938035351
0.331732836718158
0.33036614221889
0.329690434233632
0.330415470099844
0.334496533777992
0.339667190278309
0.338283743392599
0.338751235893879
0.337793921070669
0.341977076958889
0.345814691210158
0.34804323801982
0.343635539027282
0.345223997948449
0.344595156308707
0.345329641618063
0.349924461541415
0.347075976882499
0.348628335677971
0.350026045258339
0.34694235916044
0.348116377101424
0.348808303260547
0.345786115720805
0.341475770550851
0.345384521459911
0.345506398555008
0.342109400161211
0.340403144367855
0.342760324868288
0.336938277073837
0.340495638744731
0.336451618385556
0.333236652802063
0.333396680279325
0.330442886155454
0.330813754924612
0.330035705294686
0.326008829428144
0.327685375578683
0.325528421937272
0.327284427278171
0.323108549984725
0.326624228445818
0.320801908457225
0.321315566744733
0.319039787092757
0.318550031618117
0.31729783303679
0.320467591355342
0.313747766460692
0.313676368434037
0.31398979767573
0.314513785614655
0.30978426992579
0.307503501469534
0.306300824273163
0.305789673142433
0.306411667809548
0.303886970762493
0.301852961507781
0.301036768593071
0.298819164445483
0.293920202403147
0.290418769585476
0.291319491610911
0.287644069941534
0.28921678049183
0.283856276696972
0.282370958099664
0.281563826142348
0.28124572114045
0.277461654238418
0.278342717774699
0.275647284631307
0.278289318433359
0.278016181586034
0.276299666671603
0.276832975596739
0.278754778434065
0.273773278488519
0.273046546521961
0.270647664234812
0.268262358734771
0.265497181626671
0.262935277054968
0.260859940819337
0.257830053330915
0.25480518559811
0.251123465954431
0.245505867595665
0.247720036183853
0.24270556329812
0.245151917076132
0.243105037234812
0.244259845430715
0.24593762171359
0.2480595423344
0.25301208658542
0.259401043163581
0.267960242924556
0.274899073427844
0.282248009524623
0.292975103608064
0.303261013233177
0.314148195101461
0.328433998676668
0.340139273851391
0.35540223138322
0.368816717680962
0.380655968951125
0.394909376508901
0.403593978605305
0.421011981524802
0.433942995818414
0.444862920252548
0.459182518318443
0.473942315464682
0.487371560275976
0.498680166842339
0.512179931058753
0.525046125502863
0.533955174982075
0.543880470989159
0.55131184113334
0.564924981556645
0.569303992402472
0.5781055613464
0.581134275853794
0.586834409306342
0.588696590426084
0.597919731021097
0.597416304676554
0.603248098231793
0.603422477730145
0.602031184288361
0.604890899232196
0.606078034477291
0.600157299655696
0.601426231355207
0.599044901402108
0.602312190675922
0.604474999143631
0.605062473934233
0.605495864502852
0.60794522694327
0.613272872580264
0.616290767684019
0.621522573604841
0.622893880019642
0.626905804905521
0.633707535214375
0.634949455401976
0.643417517068787
0.65116100426515
0.654640224145817
0.66508241513732
0.669970680544635
0.680966883684052
0.688895572345958
0.69630352125048
0.710043509282733
0.71798345677491
0.732314313145321
0.738149987141432
0.743874525083197
0.752857990351613
0.758653750265481
0.759455921216799
0.761521802528407
0.772492092127643
0.76694404461002
0.762981612514054
0.768473470045418
0.761093813898246
0.763098977021307
0.758074234241394
0.758070274327286
0.756744737256633
0.757108067283355
0.760289453528427
0.769281994728462
0.76835955662023
0.778511322104846
0.790226309965076
0.797055243092753
0.808475577758243
0.820158137991059
0.837584040584498
0.845859512880111
0.849287647578647
0.881448473937613
0.88565787178499
0.898797866721679
0.910170520849357
0.917873451582679
0.942401929065628
0.948717652921706
0.961785302720988
0.989261072005294
0.995230874866569
1.01804873626323
1.03454762734199
1.0439203485823
1.0618042098289
1.08840064706079
1.11115518747254
1.12977328620568
1.14100342273713
1.15916879686953
1.18980318323481
1.1897841822777
1.20454044739931
1.23142844225556
1.2567639578243
1.24703705582886
1.25910228893723
1.27132342354635
1.30341936757266
1.29203814878551
1.30226592785526
1.32525775067856
1.32152251378368
1.29627404515717
1.30929334677138
1.27697943722877
1.25316700581166
1.27488272473226
1.29892754537465
1.27474245694512
1.25562535992942
1.25086462604478
1.27342116200238
1.26461824048542
1.2706299154911
1.28468514119417
1.28670559906077
1.30957444819071
1.31839557433171
1.37122162119211
1.35998980697819
1.31114317702659
1.32905207754935
1.35204962693986
1.4403044486889
1.40407896837101
1.44611134716008
1.40130681281574
1.42355211252905
1.41208898262631
1.44298203026791
1.46157425291816
1.48508978964402
1.44573932969413
1.47687842092192
1.43296990168623
1.49396401255568
1.51709516187584
1.53756209398204
1.56540284568313
1.45986101017195
1.54036218756565
1.5574522856516
1.53300075063554
1.53698172604357
1.53362259976613
1.5480119887061
1.53039394159445
1.53871529103226
1.53698692077214
1.48240626088527
1.48171930673296
1.46571238807047
1.45577863148118
1.48909823306945
1.50288189325896
1.45318397764329
1.38063770984344
1.37771501491621
1.36029044271904
1.30184789079469
1.24292481160824
1.23323386214968
1.18392500131615
1.14095655779637
1.08930041514276
1.04209703217522
0.990501404117482
0.970299278617943
0.939060393698469
0.910147688169223
0.899724424040237
0.886075722721229
0.874531978178971
0.86562413177076
0.853704152883173
0.848350919985858
0.836170842251741
0.821220123754505
0.830375814615826
0.825866082543535
0.801279041418812
0.791059695341616
0.781027304084209
0.768208961868756
0.746267548458074
0.739550122195412
0.724537335967563
0.694367168213235
0.679451465663935
0.661222814922364
0.636082325220283
0.611553125140516
0.596323845494698
0.569107263774526
0.540416110562133
0.528283940243463
0.498020530597104
0.476735632470414
0.456721907314264
0.432748349549425
0.409874120648959
0.388031452776698
0.376336365008013
0.361821377920515
0.34490204317661
0.328127248438714
0.318575987554903
0.306011286604198
0.296130446381719
0.286707229857787
0.277490369908649
0.270747924451357
0.261888029874503
0.260417877202923
0.255827355218459
0.248301693075519
0.248062379624463
0.24949150500741
0.252230652383507
0.249671077205496
0.244685211336869
0.246619726048458
0.248504096833902
0.247461473774453
0.245484865324568
0.251208762693348
0.251341147024324
0.253244102014514
0.255205014882451
0.257036499660938
0.259522818615154
0.257364931603883
0.253401196439982
0.256431219569909
0.25695677147206
0.253839994372905
0.250847383523332
0.250736084156838
0.247475570809577
0.247166142749989
0.249573719283483
0.247074275777559
0.243934470701664
0.242899983132904
0.24609685875117
0.245321485263235
0.248823436039467
0.246373919814136
0.244948535216421
0.25417547317019
0.255607721798686
0.262077475484923
0.260935742181743
0.260181938157562
0.263042705810286
0.268027791654858
0.270821293205744
0.271208859495913
0.271095998873764
0.273784110674626
0.274520262208287
0.272958005748881
0.275842704269841
0.278826117958664
0.279994423914071
0.279525753587478
0.280085025408876
0.284248819671845
0.279943000037991
0.284408849270919
0.288771229079761
0.286493425244053
0.289097894815593
0.290758312108904
0.295978831811035
0.301029494441684
0.307700403558508
0.315862947108455
0.321074557845109
0.328454105320915
0.335360526006418
0.346452954023798
0.360946394673414
0.373747796427551
0.379374222943114
0.379889963623995
0.379318166394102
0.392701276914573
0.387820450214155
0.385558900875116
0.382337901274437
0.377904986628995
0.369833040081716
0.359568768403479
0.362394919519882
0.353130034015943
0.340970369667551
0.34607695549579
0.344430155760668
0.344502966375883
0.342883434125358
0.342154862200754
0.342371388851282
0.337699691182363
0.33871646622219
0.338605308644883
0.343993850096721
0.348317908475179
0.337211596554707
0.339948607351909
0.335223700519723
0.326061393741017
0.317073091528693
0.32494884163306
0.321784128068511
0.321297888718347
0.313068379541513
0.316774285225451
0.313436938480793
0.303874859579742
0.303560102242358
0.307942109206825
0.302207176088575
0.299069279013818
0.296569240009071
0.302950325979847
0.29664056130548
0.302381585530107
0.296049114602606
0.291778772297019
0.294855686706002
0.294442489358039
0.288428997657407
0.293951787304844
0.288741775297546
0.285414404483771
0.286416888830723
0.289170892960965
0.282395651091015
0.291008084408934
0.285457463028766
0.284259926418246
0.285566970351994
0.284143137817237
0.28186982517573
0.2714895222273
0.274690250418651
0.281451649731797
0.279935506975668
0.276928860260707
0.278184725836147
0.270445615500705
0.27418118126291
0.282871528628875
0.272854626000421
0.278475996720458
0.265963916374396
0.279058906141773
0.285617097052656
0.277110775883484
0.279799975256055
0.280726070790556
0.28402321706503
0.287309895044501
0.274148722081073
0.28098088883999
0.27721146488184
0.283464744571348
0.291513162965663
0.29688876536388
0.293106051974218
0.290856617791611
0.299096960977191
0.297452378915699
0.285959365560586
0.291375519221258
0.301581597378022
0.309874248602081
0.299749295233779
0.309998285197941
0.312807207525749
0.317829507078139
0.330114696913729
0.331019010795975
0.329841186031573
0.336993507531197
0.343630351937462
0.356292241304891
0.356461213068689
0.369535668224083
0.373941097656831
0.379055946019153
0.393060579698773
0.401884419272494
0.411140143323675
0.420224945875431
0.437309485087159
0.462060620311293
0.459861939254201
0.481901924611642
0.459437818423657
0.471542241455554
0.477925865880349
0.486599506066343
0.496136817001491
0.508076684756573
0.50115758988584
0.484167767014718
0.485250231397907
0.502652111727488
0.497477614768505
0.502443598554952
0.490422836741011
0.471035540138222
0.482125838512676
0.495468485986487
0.473006350128691
0.493048903840996
0.465104160668353
0.463613399851405
0.484171321608104
0.486377505408294
0.479538387071485
0.476938291914888
0.463658278843324
0.474773613379354
0.488622783045928
0.469992328049188
0.448523527531678
0.438669560251298
0.427604973209891
0.435884478992046
0.440977471105596
0.439801047450907
0.444198588230574
0.439390345987664
0.430196717141843
0.446678970458051
0.435814711537126
0.441310097745348
0.459547619755027
0.451996543144025
0.44368795435275
0.456636234612216
0.415660739016082
0.426163870284751
0.444306058308775
0.469328257624492
0.445801822105554
0.43793463925169
0.46366847440982
0.462919604960288
0.461471764648721
0.439080639152532
0.437082333006925
0.450515159474647
0.455834708787115
0.450546074905232
0.45271995961108
0.47559582776307
0.454679145174386
0.443144853589086
0.47068382897512
0.491683641100293
0.474377805111918
0.420977982864852
0.462918453579037
0.494972571641141
0.493374644301349
0.511476771926898
0.482881878407747
0.469932364573319
0.488720742360309
0.502513131072602
0.497979515867191
0.483309956320619
0.539767454027203
0.542094269851674
0.505462351114158
0.553258880860316
0.559341720478228
0.589962090566254
0.587730733741169
0.591474797127421
0.589763159347634
0.612500619609338
0.616246426857643
0.626467996966444
0.660779902472119
0.679805296812449
0.604380718118203
0.557232248549025
0.667235697249595
0.615921923156366
0.633193668810305
0.699080719353558
0.570814736432508
0.572127136028226
0.620832044612994
0.578520011169096
0.607253715536808
0.646890325351342
0.628262285892802
0.652836246929822
0.609728325322421
0.597462427679758
0.593526178597058
0.564332266211185
0.576854962729354
0.552046102442461
0.444010006337134
0.60234842947823
0.504211585977119
0.478038570516198
0.552601344756454
0.511938229398418
0.561154150085234
0.510574851210439
0.629965281729266
0.689025870495684
0.544773110814596
0.557857977546571
0.651190528439955
0.546471298326663
0.546756582815013
0.570037871009597
0.50548816955657
0.804313960276246
1.11308707982752
0.62235655286601
0.585456542703337
0.572341812515527
0.467105600417328
0.752073695865909
0.690485760710863
0.809794782059518
0.744483164362806
0.826362915112976
0.847998602075318
0.570493731419937
0.537169573518329
0.604966139124478
0.72786808941555
0.59158126993609
0.74648308767559
0.630415696392452
0.990307046819548
0.608508019028043
0.605261502009946
