3596
4000.36533379555
650.420452594757
1
2
2
0.0434451787150755
0.0519307184477753
0.0496422749495107
0.0615348742959301
0.041209279677952
0.0622436388421418
0.0440269869720818
0.0563588307984726
0.0393190105023199
0.0635366597766721
0.0422053596453699
0.0586452560845414
0.0453841686267682
0.0549642391809764
0.0488847871590167
0.0711413151277843
0.0448501366519122
0.056295241842248
0.03943453212639
0.0538302112975844
0.0483305527140368
0.0598089270173262
0.0348047332999385
0.0529894831472225
0.0353703707893396
0.0535097205709062
0.0454023917791137
0.0540341232224644
0.0476726529180002
0.0590985402431179
0.0487502157279727
0.0505340918143893
0.0391124619579364
0.0570630330300285
0.0450793371338391
0.0597535058137442
0.0540543444476083
0.0679752008448786
0.0486991979523055
0.0584417094753133
0.047527729241865
0.062340424708864
0.0444921674697122
0.0612426340159936
0.0450855246552383
0.0511719398964115
0.0423504487570957
0.0561822736998452
0.051555696137676
0.0556529141284241
0.0382988983582219
0.0544980219104761
0.0424222549087636
0.053925232526145
0.0464909910705212
0.0612638480067001
0.0444762682024544
0.0530025065308034
0.0390164630989503
0.052408428424131
0.0438072614867749
0.064518397705493
0.0489600832207243
0.0679160298244007
0.0341121482116365
0.0507327977376066
0.0434489430162366
0.0584060320333456
0.0447542084721351
0.0631178722574638
0.0444714841033904
0.056354691094285
0.0622249676428077
0.0540394886169184
0.044391917606339
0.0549222320301819
0.0438474565111311
0.0621426366804741
0.0377872695097681
0.0587398645519875
0.0499765858204021
0.0544447410568835
0.0369848483352393
0.0472823180222431
0.0367912356489432
0.0527241567123891
0.0443196174729107
0.0491182996664663
0.060203269721919
0.0561891311733208
0.0356226264069969
0.0585854722037587
0.0357725900561275
0.0457582813347202
0.0407224099751258
0.0626481382065215
0.043134961589554
0.0549001189778934
0.0426265321489944
0.0515683208994736
0.0355880982333489
0.0399303582598851
0.0653208464853645
0.0484859836573035
0.060369081741291
0.0634991579162486
0.0228856818766937
0.0804509600737548
0.0520741436449122
0.056666350073208
0.0414573172733877
0.0557161584233155
0.0472900457401159
0.0640737119563619
0.03459052552316
0.0477178934641723
0.0645572662964608
0.0523912808480803
0.0434177798839676
0.0524831781178655
0.0244338448325398
0.0500939075420618
0.0699162210925582
0.054659670007111
0.0553319772428537
0.0469900690850555
0.0356217721287051
0.0698080516071314
0.0604268290680115
0.05166265931585
0.0402433946919408
0.0443127008194138
0.0363962109373578
0.0395499712861765
0.0529931273541816
0.0567889794696548
0.0447355497040287
0.0380497742135478
0.0344453312860038
0.0932583342063582
0.0526233961559581
0.0524304851320946
0.0354405059126946
0.0372815990228205
0.0763861862409976
0.0704049977613125
0.0329476647213892
0.0629888320487521
0.0529606239493741
0.0489399103258031
0.0451947233420843
0.0339629977573519
0.0544568699638057
0.0629377060687803
0.0204848053896759
0.0444948980731527
0.0873032615043425
0.0371968904329443
0.0721024178309022
0.0543447044823406
0.0440291186106307
0.0494046163935672
0.0367052153617394
0.0456870103649767
0.0406155081740064
0.050261069964563
0.0415451021013805
0.0663501175335091
0.0291900957525953
0.0464709332563368
0.0514329714510989
0.0568227293644461
0.0215776329076349
0.0861319073774022
0.0643195149273077
0.0362285657232326
0.0570042187534555
0.059808601418745
0.0387676855249852
0.0481250713552399
0.053963326986942
0.0455018890653585
0.0377994574634006
0.0524177949583388
0.0338536592964906
0.0571974396370945
0.0547713563683913
0.0497039925744646
0.0416210753738386
0.0364534156433192
0.0457586527851848
0.0656976608171171
0.0617268442455734
0.0490654933166145
0.0326135247097154
0.0293071951941564
0.0461891630995457
0.0777704383634834
0.0437812619691338
0.0530577033067359
0.0467646018498892
0.0506971820541805
0.0410720250778264
0.0509226598307404
0.0355857692938029
0.034077086980947
0.0518652584542346
0.0693579824469853
0.0385322585013136
0.0440852176973316
0.037332492459242
0.0477054275801852
0.0498073984386383
0.0715455007899244
0.0415094472670435
0.0576056116109776
0.0329827345016964
0.0627134061278672
0.0534205687560933
0.0468321763414327
0.0473352324142019
0.0487482751617501
0.0438955379457382
0.0578784710429851
0.0429679112061555
0.0502673412928667
0.0388022857718649
0.0481341247244872
0.037760359322965
0.0511040484925313
0.0458876132082967
0.0553884574489065
0.041971349066124
0.046882593565634
0.0378649154210251
0.0544378331669215
0.0647251808410745
0.0507803581769199
0.0435017780871411
0.051219393196113
0.0436881379385247
0.0546881043627567
0.0393708077632387
0.0447555633249753
0.0374074870927304
0.0421274461548157
0.0648735098682208
0.064499065590308
0.0427526058203502
0.0516519189000511
0.0472822917117955
0.0622063056946709
0.0382305841981869
0.0483388890590905
0.0391115604046852
0.0499178106394788
0.0302083927889983
0.0583303437262637
0.0490669615790166
0.0543975691800115
0.0458690532802902
0.053501550413368
0.0400712179003826
0.0425574529572294
0.0131759027032407
0.0886077043995028
0.0508362830476126
0.0369495051437939
0.0840535584303066
0.0713024624622154
0.049522385295273
0.0514691363323867
0.0140786624286923
0.080617730752459
0.0680530290715587
0.0490420401662224
0.0519038688179488
0.06047563146237
0.0484793223775964
0.0456652252501482
0.0377552036791345
0.0423181977256839
0.0591297155588444
0.0793281933439096
0.0804384515238561
0.0482259348354265
0.0426667572873916
0.0743056265346942
0.0430894013501534
0.0603507200628905
0.0447133192453146
0.0580559572804118
0.0578632795063719
0.0665953375254822
0.0532228202363527
0.0567444240279368
0.0435650573236346
0.0768328063672514
0.055950244212275
0.0531106424011225
0.0486301717932249
0.0631612263012026
0.0509961658063266
0.0514721483199714
0.0472437044784208
0.0593681926986944
0.0474101288397245
0.0399791098340175
0.0710982312355146
0.0668871716261777
0.0482668514195047
0.0756156049958895
0.0596841028874375
0.0519337840220443
0.054139810118418
0.0575475918878332
0.0513845202517119
0.0557608341654931
0.0451557822593205
0.0757886363299992
0.0635915667869643
0.0578330795646625
0.0589096453741228
0.0542404617244083
0.05582920943165
0.0663077399427531
0.0644666303301834
0.0612417397329371
0.0542524069045458
0.0541380591837995
0.0678898434428098
0.0754851331103697
0.0451923933515537
0.0801634254154341
0.0880580228263142
0.0626497682345606
0.0567725275699063
0.0548212849564776
0.0556707843305777
0.0733138593462307
0.0650707307796422
0.0675562680927439
0.0678164261002357
0.0818517892749285
0.0765696825363617
0.0699413190046284
0.0662519233875482
0.0964475958999941
0.0918497473177381
0.0922280691440913
0.0703477668854246
0.0683192299249422
0.0721110765908986
0.101845068866043
0.0742151128031853
0.0977207040626332
0.0774994929596801
0.0828974823612891
0.0855186562350318
0.0832151774115757
0.0890876607549913
0.0939717788189644
0.0879325762934972
0.0847470591494034
0.0863611384243529
0.0981150526843928
0.0866519770716591
0.0896146561658125
0.11881511484672
0.11474818013617
0.103923876699156
0.100306684553323
0.0885904730887589
0.104734179571111
0.12680673568771
0.116329416590979
0.125552611097445
0.134320178734803
0.137906752041287
0.128411417421317
0.120742781097189
0.117291202651554
0.112398604474234
0.129161760135988
0.132936869876227
0.130327168238326
0.116255595873833
0.136759510579597
0.135666061429204
0.137578870069114
0.13704983593737
0.145236035582155
0.144864663490427
0.151762055719764
0.135630919067303
0.136661118262627
0.133086931880331
0.201491273897031
0.172202112053712
0.167967873789609
0.159071749112757
0.168138864865526
0.160772623693739
0.165066780422541
0.163413868176612
0.183013711912571
0.171412718255394
0.184763913507597
0.189534704774296
0.197307492964649
0.18572600020867
0.183599857782094
0.190164829377047
0.204408826944616
0.200359841382906
0.2125783614746
0.196732915956243
0.202504306201054
0.203096357118167
0.213045103672241
0.205719807416423
0.221724023322903
0.215424768317926
0.210840038591775
0.210438736496316
0.225743306795819
0.218014502676153
0.227935895602255
0.235241270326422
0.239442380107583
0.237754104459665
0.24522974350821
0.250220311019192
0.270079325774723
0.249646674465971
0.242138207597344
0.257424998603967
0.272067370936024
0.255266521408141
0.256850812758532
0.274338828446015
0.303550681965388
0.269505670774528
0.276545064116691
0.26773955245782
0.269449039485669
0.282521207513128
0.294910225441978
0.293346527400907
0.288210022864336
0.295791575050033
0.300835101076164
0.30127700577035
0.313313239563749
0.316651676659115
0.333494174492698
0.332453878736097
0.325655337051959
0.325851250342104
0.324085351473632
0.316577398246826
0.33604003161317
0.343400481348248
0.367590333916254
0.363357804849281
0.348998775922968
0.341430642457402
0.352127873670719
0.346940349595401
0.363160527202848
0.373836823967611
0.377094705651008
0.394809724718187
0.379722429618327
0.392693685945856
0.385974144718841
0.392514422231265
0.391136494710087
0.378396857770249
0.39671420595338
0.396644124740909
0.416583425721992
0.428258379716862
0.412361715397775
0.447254695095686
0.44668391240987
0.418689732317641
0.435707412205256
0.435922732593587
0.438197306668657
0.431575161772789
0.446037187721492
0.446748424623929
0.442417593182449
0.448652269180311
0.446709915038175
0.456179128824554
0.485855983668028
0.472537356942898
0.485642210610773
0.495623984594153
0.489541913335596
0.476311293075378
0.494786589467181
0.497191042122182
0.501190885851977
0.526552087842626
0.515762703806267
0.506008252411876
0.521410695233239
0.547139356432809
0.534416258341326
0.536217945722194
0.527188104712753
0.539216849541165
0.545843101457132
0.552985771516598
0.568810003950469
0.56968881989795
0.561392239095277
0.565600664784719
0.574821708071166
0.596867177420395
0.602250318299237
0.580347635184459
0.595946676400008
0.593225331245859
0.568948594494817
0.608371783354892
0.588974465884013
0.589732153058471
0.596379832928144
0.61593755968307
0.641827298888928
0.630217641108588
0.650968661078918
0.63962501317368
0.608950967011311
0.627087092712593
0.670192620481575
0.690454311110532
0.661184775855339
0.646434106879113
0.665750461949911
0.677324425003779
0.679018356960612
0.693160984055803
0.650990872923607
0.6459173361052
0.68501210141802
0.692047545894474
0.691762522874025
0.705689784775439
0.717325532084751
0.710801722152172
0.693935388349629
0.734173147588691
0.708603679367921
0.720230518702098
0.734066140909176
0.727990016169227
0.739255635572891
0.753096843647833
0.740140101527508
0.789020308271196
0.742763060856031
0.753586667862924
0.759588139129378
0.748532244855171
0.767653653078242
0.801356937884978
0.74926543889372
0.757263456178338
0.811020534639766
0.842033424679872
0.807634571604766
0.812744809734947
0.803777527722033
0.824929987086165
0.817827681773417
0.856103807385145
0.843728185730939
0.845722956962725
0.85800244715363
0.873216027218324
0.82276684122945
0.836704884045731
0.851294014841356
0.840143438249531
0.813841733124194
0.881040196562314
0.830628242872569
0.847326872282012
0.954944478600268
0.933355882659404
0.839678021268739
0.85056340003649
0.890648286417978
0.919695103262137
0.868765334258797
0.928415487739313
0.892564113716895
0.878832033655048
0.863814348755617
0.89760125653623
0.891657152962618
0.909911947961577
0.89428063190802
0.903990300967618
0.919828401254773
0.953552045933599
0.973391742606418
0.958825792374377
0.955521629980026
1.00117980781905
0.953540597418874
0.952818760699718
0.951744960223145
0.961337845135288
0.980048765051265
0.965015994367937
0.955187517314882
0.998030386010077
0.994932719635336
0.996402674625852
1.00633373582741
1.014559144962
0.956901591197567
0.998610059423663
1.000889822808
1.00434666162143
1.01582658171013
1.04688228371048
1.00707255064332
1.02094658462131
0.951002263794845
1.03557932001001
1.02295797499766
1.00940980523498
0.999269324973294
0.992074179246854
1.07328314892234
1.03226192619654
1.03221638505279
1.16055840952664
1.03086606270566
1.08249119262256
1.12034955371669
1.10860084687336
1.03565205187901
1.03888332404432
1.04562094977231
1.06626236560244
1.06416508016494
1.10489823450369
1.10069579037197
1.06078686254022
1.0480243748788
1.17194580145261
1.05981103606335
1.08256128500933
1.11033530226996
1.19661386194285
1.0652144027127
1.10008456554072
1.08421757880453
1.1269756418706
1.11661464874352
1.08728326950521
1.03831318094109
1.09172350875873
1.14719710197711
1.15736096698652
1.07534440488408
1.12370860946934
1.05640616537738
1.08969444102538
1.10459355306937
1.10530007117717
1.16432959599029
1.22420834123526
1.14378423975588
1.13238728166745
1.19859226354557
1.20969750931704
1.17248816996447
1.12512557052072
1.21818422929218
1.20283146571416
1.18449066425652
1.2772893227666
1.22604599138543
1.15368510904143
1.1104466564116
1.21283498243945
1.17747681486146
1.07521617482329
1.08193811098653
1.13308220563505
1.19779868781381
1.11447887120955
1.19785811433716
1.19357302533369
1.10399021870002
1.17660908497038
1.22734474829016
1.17254391281053
1.11267601356103
1.19759520923148
1.143272647715
1.15144190776107
1.17310766051318
1.16788365979109
1.18846349533355
1.27555768525349
1.19814698710895
1.10816947973676
1.12747526768185
1.18351877174728
1.11533896762279
1.10825079085356
1.14136511502446
1.18882410607281
1.16725368553546
1.28798688220082
1.21981976306962
1.16822266133889
1.17191262288642
1.1675883714291
1.15877501319427
1.14640223043956
1.15006790495599
1.26863338205945
1.23869757111412
1.2448126056366
1.15158501824049
1.27911493356905
1.21902460362854
1.19175532402282
1.13418005148844
1.17621500773612
1.27296044336236
1.2063025546697
1.16907259381508
1.26464563183268
1.14303455824852
1.20914010712544
1.20041247627486
1.23452453695609
1.18571059545656
1.15966869984766
1.1506945479765
1.15234019231434
1.1501324183897
1.30789620207775
1.16718867395151
1.16754264544075
1.16174261354646
1.2356632599083
1.20717252096151
1.19218142638576
1.14019725169782
1.22714344204612
1.15470775766299
1.22043190488851
1.15851534614761
1.16414406045498
1.20874651730328
1.18847316622165
1.19471006303646
1.19063613799679
1.19133748917077
1.24151738392887
1.17719154486121
1.14816996127323
1.16542612764608
1.20502670257121
1.24780784267252
1.29323111743246
1.10784886967772
1.15270396821632
1.16812056659838
1.22317010677064
1.21261927928718
1.20827265682898
1.20133797970251
1.20810644129181
1.0849119930296
1.1547902241143
1.13944874177381
1.20091548336411
1.14119723582457
1.11711604469382
1.12869092977308
1.20144630871534
1.13550047333786
1.14803147481706
1.14990978347176
1.15983158278587
1.08619070078329
1.1157276521213
1.11179662075653
1.14232626703693
1.10661237900689
1.10056992048471
1.07908257749534
1.1288286306693
1.12791090590432
1.19897999154942
1.10021940408635
1.06558357352961
1.13152286708227
1.22469859888266
1.10553887166951
1.14339564812278
1.05102829153425
1.1525179895901
1.07416375098532
1.08863037553259
1.06953587301116
1.12678476046185
1.12835321124681
1.13734953583507
1.08653877822456
1.09390887939533
1.07823933698564
1.08301789978361
1.11825657693139
1.08779562533706
1.0402462149767
1.06743467347226
1.03708126787689
1.10484147425888
1.07878832592948
1.11699077568968
1.05098301350115
1.10932022554089
1.01901538462352
1.08876183670718
1.06224140049047
1.03985356750329
1.00900511801259
1.0756481550084
1.03355287014088
1.07403262048194
1.09330463417376
1.05371785881803
0.998923625823171
1.04606838390174
1.00824677881794
1.03039045751289
1.04236613123963
1.00802159899481
0.997458368397429
1.01678873936257
0.973637877546415
0.993305234499912
1.02824355047159
1.03578376098539
0.993878218580383
1.00716739300003
0.996226333824555
1.0005498627593
0.93796463700287
0.973531142035876
0.968909604887372
0.961299482666215
0.953154968971203
0.966141833424277
0.969292902930873
0.945201797189043
0.964328168565958
0.976475167890934
0.957682105715964
0.956011241389462
0.977510338991467
0.9654465080682
0.925761641501662
0.947650800629208
0.907255179650747
0.951911102772605
0.937613943487965
0.923782938161067
0.949835156479806
0.938556484457258
0.898318768328726
0.917732233500741
0.870772996738024
0.916974401257349
0.906412657380297
0.856059500436708
0.882330739248877
0.882794276238613
0.865358095262094
0.85493368795398
0.870561156762244
0.868882004967948
0.871726692848271
0.868560190845582
0.821711254666243
0.873439857071436
0.843975283257937
0.833519191125577
0.83937698639937
0.848108486011128
0.803285326076459
0.821088952997027
0.827688207314526
0.836081612177408
0.795394853024571
0.820333627336223
0.811918004165804
0.806813190588552
0.795173423367068
0.780739697991458
0.787882324775407
0.808089475072672
0.761865805970868
0.797815905301268
0.771762224366314
0.769390421354305
0.76433183716687
0.760442068375138
0.768333627659012
0.765911463471123
0.753003053763936
0.772371296001354
0.729277248352275
0.749143448524707
0.74859514390022
0.760474070591068
0.728650927429757
0.72391658097531
0.724738264542173
0.730948743021019
0.700298596624733
0.73225093289143
0.706109546654875
0.709018243046883
0.704394859916173
0.714404159050964
0.689235192588241
0.69809627253357
0.687442068423727
0.670187195016856
0.688285681867316
0.683595269970916
0.675922640665425
0.678698087919807
0.657520850323139
0.678277449518665
0.67120297560329
0.656162773068549
0.654968900584482
0.65792535001036
0.645413293008287
0.647678219618012
0.633866358496148
0.641588509951051
0.631043516091907
0.642336682244395
0.630043585187022
0.629536668296677
0.61718491573933
0.636955471085063
0.60869604018274
0.614576982427802
0.606624951448559
0.611097305839008
0.594586567345207
0.622268712804603
0.599771668722184
0.60434623820252
0.594164366085306
0.600408261490282
0.581568025889581
0.602602949116296
0.593879761133557
0.601586301520252
0.579370903897192
0.568884607597451
0.545331114487448
0.583969538927269
0.568140634411581
0.56345844203777
0.553426483035181
0.555408489218264
0.550574984935374
0.560970502667459
0.545840751366713
0.547445257919475
0.547111474881245
0.546538369665761
0.536481746454306
0.555436489197129
0.528585281885782
0.541187056342922
0.529914550862181
0.542056394761478
0.528205732221698
0.53052357083891
0.521732275939202
0.527207388109934
0.50659951373017
0.521191148107073
0.507136852371794
0.505523610835203
0.504210666118011
0.515371241445986
0.490750173578924
0.499201990522528
0.484888578733232
0.502938124415117
0.487772830667558
0.491680837656255
0.475274217589674
0.483968547750958
0.481557506787059
0.485171908972112
0.46984402652643
0.483241951597338
0.450022152286506
0.465237674431906
0.464588308510467
0.460463480006174
0.451832848876525
0.461416831973088
0.440669413618539
0.459035871231641
0.448963993599983
0.449602438921874
0.447931060649048
0.452053769997253
0.434650204922583
0.438420351573128
0.433681009909462
0.437322817033349
0.417429788275261
0.427475997661823
0.426754711234708
0.432795798761925
0.415840176124575
0.423738122905218
0.408452139988309
0.418556100066828
0.408121091541316
0.408816791372551
0.405216753631572
0.412256774132667
0.404865247158803
0.399659436029381
0.404861474143928
0.405065827118398
0.393366511400085
0.391856210281178
0.386890083380689
0.399740841447865
0.383099999230587
0.390142553560494
0.382926831180567
0.388153670898952
0.377100155506172
0.381525421234658
0.376291629392852
0.377905709261702
0.372077474141138
0.385000911387436
0.365739907813153
0.375975537503974
0.373570925237185
0.383248154289626
0.371692916893207
0.371973969914557
0.365101054802678
0.374331652786451
0.367951112491799
0.372024227643299
0.368017924890922
0.375966913843428
0.358643671708825
0.364436001899026
0.360147616124682
0.362592911531869
0.359123383834911
0.375583378786462
0.3734904888337
0.380737863337785
0.358250634748595
0.377544777564073
0.3621042251474
0.373829129140239
0.367956523674254
0.378815082033734
0.371180932680402
0.376615867219432
0.365144706003187
0.376765703444076
0.381583741876845
0.38611377085929
0.377046124370705
0.389679622874597
0.380311682315227
0.389531331847927
0.379244600759647
0.395085891188305
0.400114303944192
0.402127406872776
0.395519299070688
0.404629748227143
0.400625214242871
0.414387585407343
0.402629628137975
0.409634672565834
0.408853378288417
0.415224109622968
0.411142387352939
0.421941842377513
0.405744501876497
0.416747557258652
0.417118674540796
0.433952761684264
0.415980863139249
0.428417368152191
0.424988986161283
0.436340047452081
0.429405087837551
0.446776248685202
0.435588911732829
0.446885863646317
0.430907140369003
0.458711299773916
0.440271061273925
0.457541184064143
0.450892731451955
0.466493928357863
0.463213971549775
0.463070031562503
0.466473045416562
0.478411713623713
0.467569335122488
0.48768407144094
0.475038812802812
0.487800292679346
0.48307717288933
0.49862108967328
0.485220234461272
0.497316822386103
0.490031487879206
0.501268286173208
0.49278568639999
0.502766085159136
0.495721479038605
0.494284487122849
0.495688020878932
0.505438927088323
0.495519573754745
0.495223412213026
0.495924673473355
0.511172038037345
0.484886086816538
0.50392829528618
0.488352715475379
0.503450426595631
0.482296574939557
0.484361205635367
0.487358324447977
0.498510175957854
0.475962608032442
0.494844090060755
0.489832833624779
0.493667659729768
0.479756240192241
0.48936392242871
0.484159553985199
0.494325476114132
0.475001292725367
0.487585152511493
0.480291750212091
0.491068991631353
0.485062397291832
0.488719936292168
0.479012803224231
0.49499160584001
0.473095830920526
0.480215109888737
0.489165653175847
0.489896586964096
0.47952403609397
0.487853117027522
0.478827824019778
0.490530348316259
0.48044316485453
0.491335278063359
0.482372453831033
0.487343710813528
0.484867995722411
0.490691286142985
0.470588344298688
0.495406069683825
0.479959697985905
0.480299745931978
0.481121054508051
0.482696690550427
0.462489867281896
0.477680601027941
0.463678104736329
0.466650466238244
0.471718772473733
0.475056220565842
0.463721456323192
0.466656203206691
0.46751707476209
0.47173764354405
0.461162671908547
0.455140318745454
0.450699476599215
0.451038561860673
0.451392413249806
0.458139476202777
0.438311428375137
0.434116775403279
0.428766532003605
0.434605326972515
0.424363660759997
0.428039441509239
0.411745235401123
0.426663832061354
0.414615562452764
0.41771502121278
0.405375332512307
0.40889222302165
0.407200251794804
0.410693132045979
0.390220339529559
0.396442411516395
0.379228757368123
0.391715963710033
0.380720910523376
0.3851811758142
0.384107541409808
0.377981237516212
0.373220327768844
0.370472310872525
0.362995036935554
0.363128837214148
0.361025678719364
0.365709861271912
0.35662859538971
0.358790355131119
0.350579239362776
0.353355618431778
0.341918372213246
0.348811390624651
0.337402513640733
0.352198696173218
0.332823565438893
0.345326704632882
0.335744447929252
0.33377916847672
0.328365927738146
0.332955582232372
0.321119662429447
0.328317345342316
0.31903567551272
0.329359288847612
0.320345445032668
0.313782497412912
0.313046746409292
0.321100127550079
0.313201378810076
0.316482876461924
0.30812285845357
0.305949126083099
0.302136249594041
0.3110698632678
0.30404416354354
0.308818413019836
0.297745989251678
0.304413127465307
0.300925850629073
0.297258856096616
0.289483364112944
0.295959689411022
0.293923169318242
0.299580383526091
0.286194733584531
0.302565314554211
0.282175627755906
0.291176788993615
0.28321730939843
0.285622690749119
0.284422470236119
0.286020346054474
0.278102045949381
0.282192024709252
0.280509059713023
0.285726316233678
0.274092746836908
0.276494127491956
0.274253313860517
0.275272027743924
0.274416278750034
0.273951279391389
0.272432741044805
0.264330531447813
0.270372019329114
0.269241312429088
0.266708460850191
0.26986842523943
0.269828736209567
0.274629977120851
0.264164765556291
0.263248314698603
0.262906975988922
0.264102512697868
0.259092249514885
0.264224286051135
0.252466046652755
0.261932515700602
0.256393705088498
0.256097556432802
0.24650718503731
0.256234447015854
0.247383731464651
0.258011562776696
0.248288551087307
0.253849789615879
0.251153073971825
0.255397397762843
0.247500033859863
0.250784661432949
0.245729998173486
0.253625594110775
0.247499080240265
0.249776654851686
0.243973411405235
0.243733573059378
0.246784402051186
0.246965021868209
0.24251903809974
0.246876439482229
0.240617839485781
0.248104096211433
0.241887876830161
0.244667802618882
0.240584033753588
0.241482369954401
0.24103512310024
0.247399562740328
0.235347559706718
0.242479164044892
0.227458807669867
0.238103849050225
0.233630689073153
0.231692932835354
0.233849955949546
0.231009723500248
0.232285467308664
0.234394551518932
0.231796165093585
0.235609164096883
0.230489930350624
0.234230568471706
0.226325811540102
0.233754037238121
0.231923760781269
0.230845444675124
0.228480066767248
0.232596652920849
0.228881704376854
0.236348884740099
0.226525662145864
0.232491973485521
0.225808517667483
0.227936165991425
0.223554542507714
0.228577540688835
0.228338756305753
0.226197213570442
0.221382381581253
0.224612171615935
0.219838217446561
0.226113661305672
0.220685982252034
0.223454945048477
0.215538658968586
0.223626765688555
0.21813294243135
0.222532562733549
0.213284957014372
0.222944669963845
0.213114658342743
0.219537189326755
0.212985174709811
0.21887689035116
0.21558768775095
0.222822178539017
0.212562719409753
0.213564396355711
0.212274174607664
0.220262432301205
0.205273472241349
0.216711765535261
0.209263825628716
0.212683651518986
0.207562691408971
0.206615925390866
0.203846952392371
0.206882858375655
0.205640761148755
0.210214893253318
0.205136019693951
0.207494449100757
0.20006403489742
0.206352430733633
0.201397827495384
0.19928680123815
0.197859149574721
0.203548897036854
0.199085761154981
0.19896024545872
0.195285553940662
0.197895404943979
0.194993351953676
0.197207159123002
0.193876582046355
0.200419705181977
0.188484006765343
0.196932491551825
0.195589961990552
0.198149864301864
0.185666753085074
0.196430371801319
0.188462248345133
0.193921957148614
0.187659836414336
0.189942196791473
0.187573747767694
0.188811374620799
0.18274901515258
0.188284012797854
0.183983282923787
0.185663569267013
0.18149896049015
0.18190637594729
0.173294337744308
0.181293721043732
0.180350885060323
0.181405050410431
0.180728797314927
0.17970013804941
0.173246592264746
0.179585240680056
0.170563883782776
0.175682377550281
0.16749595596526
0.175013973630243
0.168795548408417
0.169666021691999
0.168805850028621
0.16889536731979
0.164389779665518
0.164637464084629
0.164605606901402
0.168030581723386
0.161801968609639
0.164057902733701
0.164742522114827
0.167726128041814
0.160250551299369
0.167060322082592
0.159847766573349
0.162958330541298
0.155992451703904
0.156821871104168
0.154226747280968
0.159784376738193
0.156454354258894
0.163887638229006
0.153441426445002
0.153277689766826
0.156404671916569
0.156808206177828
0.153690372595164
0.152571959829253
0.151701069735118
0.152034230565006
0.15277535014232
0.150554935002335
0.149408751804626
0.149326885288365
0.150642855187736
0.150243667556234
0.147570465307516
0.147804045300541
0.141071910544171
0.148607052849547
0.144115281441721
0.143623112856307
0.142953556450202
0.144347770511279
0.141244700735226
0.147524173655864
0.141732436773866
0.142727873919782
0.139948679129174
0.144309791651986
0.139929481041552
0.138060126163867
0.140547064613996
0.140912036149264
0.135879187109001
0.141864370538174
0.140487186180273
0.1400021097072
0.136028884719604
0.134885245583091
0.133227254533797
0.138358374088861
0.13195371206363
0.135103380070677
0.134841443409381
0.133019236995555
0.131848894419565
0.136395565606263
0.132042158136781
0.134464038047701
0.133832033953844
0.135536451577052
0.129299233395303
0.130127284544025
0.129320941024835
0.135461170745499
0.132067882640458
0.129522509478883
0.128754970025515
0.1325280548418
0.129654139696448
0.131685011460229
0.126218235551556
0.127357566091361
0.128629469391533
0.130288064614328
0.124320842623229
0.134675795245507
0.128648756551897
0.1310033378013
0.124170726066612
0.128260628845052
0.123887568835892
0.128293248675437
0.123831815184918
0.123285590034749
0.123846082999724
0.128593478693818
0.123900830267533
0.12532857807542
0.122373336454591
0.123291498920103
0.120732324354019
0.125418597286157
0.125676625515495
0.123183103537072
0.123321717429087
0.124458053441951
0.123727255132346
0.125537388512603
0.116706241259652
0.122452682188737
0.117164563318671
0.119483051170408
0.117922103562911
0.12433280787363
0.120767185696718
0.122249305293891
0.120347532817532
0.124482840904807
0.118420234708803
0.119935897406345
0.114981634188298
0.117972240884507
0.115997926762086
0.116142281114929
0.11872014494954
0.115639267576056
0.113277376785889
0.117414323786016
0.112058633064273
0.116790503263241
0.114813988359919
0.115328200923947
0.114355368516465
0.115097849991481
0.114120875305991
0.115513927717956
0.113109126382282
0.115642205396579
0.109682613988341
0.114305026170992
0.110043101355892
0.116563466690984
0.109774943054334
0.113202739532203
0.110908525691993
0.113155584165385
0.111991560263706
0.11310359549618
0.10870171762602
0.111989536365075
0.108544325693443
0.108337050029892
0.108679984609625
0.112307516517017
0.107738239617238
0.109948205512773
0.105790757436228
0.107429261825551
0.108262954617865
0.107332270687436
0.104114610014387
0.109605665592486
0.105567605789634
0.107041905452679
0.106633511991894
0.108911003177155
0.105485981925343
0.105294295715202
0.100048808069751
0.101779301382117
0.100314969682772
0.105669644698795
0.103751295257821
0.105573125828353
0.0996888441346411
0.10340596341074
0.100677419516358
0.0984081881561801
0.0993734647713061
0.10147622059109
0.0993623873333866
0.102397599454151
0.0979628649271576
0.0997883302235036
0.0968346662921997
0.100423495087962
0.0979239351220394
0.0976314865202174
0.0932983174219806
0.102339902372858
0.0979713682313059
0.0973847850275859
0.09249575066243
0.0980198450480593
0.0950100354756012
0.0948402286900297
0.0929157393380837
0.0950088837766946
0.0918374156724918
0.0937290152676428
0.0894534935451932
0.0914069440744752
0.0878390554058099
0.0923022606984471
0.0923991207363523
0.0919117815964619
0.0882165817106749
0.0904185570696072
0.087583241476897
0.0916085587892956
0.089012628062513
0.0905542690596772
0.0855078695592275
0.086661623860194
0.0844567927803273
0.0872560308394635
0.0845470314687013
0.0878719115578064
0.0871209763309467
0.0880645498347756
0.0855755049191618
0.0893920374797425
0.0839010965292741
0.0876163746874086
0.0861498044615964
0.0839796734368559
0.0818850311157813
0.087199243390094
0.080834286510999
0.0818917277254085
0.0796111990707828
0.0845813133511289
0.0797227948516894
0.0833322935112919
0.080836255893893
0.0840206523741337
0.0806680107577824
0.081207028629459
0.0756578866487305
0.079625524106545
0.0770837166185223
0.0808866431894601
0.0786267226593552
0.078176611649312
0.0798678422367884
0.0787605094808432
0.0772908890408022
0.0771681023012282
0.0763984929674845
0.077410242292843
0.0755787418657785
0.0761843326469421
0.0734498165731304
0.0783343740360796
0.0753038548533266
0.0758814358757125
0.0760684103503043
0.0746876920812724
0.0740354282057021
0.0767423605964062
0.0734558124040562
0.0740437615403866
0.0719010265632644
0.077103560770754
0.0724151607721451
0.0745359255152208
0.0727915144614685
0.0719553741550952
0.0726717276990427
0.0756563249109709
0.0731711983952652
0.0721481357783648
0.0708327412362887
0.0723792345485302
0.0749356980039126
0.0730889945082444
0.0731149495199756
0.0741769634289594
0.072354497408546
0.073706671093123
0.0712513036163252
0.0698182271230863
0.0717038182896753
0.0751640878789278
0.0680427003997479
0.0717100273188996
0.0717519459707179
0.0712663987390652
0.0701599542528727
0.0636312660318799
0.0583089628737252
0.0657795105726067
0.0717166519060263
0.0767355727112718
0.0662498990470099
0.0645523557606863
0.066879633179034
0.0665240519355277
0.0627687220983008
0.0698207639861601
0.0714989177953099
0.0653489444933849
0.0660542154192777
0.0718072774547533
0.0670275352090912
0.0684254450543757
0.0602126441862684
0.0696119457290404
0.070686590137766
0.0638336875577761
0.0722759119049498
0.0672502708233918
0.0716135805534539
0.0656185638062277
0.071116530459171
0.0650427133020075
0.0685131153905994
0.0656659072208399
0.0664857909001703
0.0659822145935988
0.0667037917004826
0.0682396929893174
0.065360733939936
0.0690788881892441
0.0658162952335548
0.0682064474701083
0.0601796049433431
0.061838472084782
0.050733723243431
0.0701310161753181
0.0574833925076572
0.0783462424279368
0.0589316688018439
0.072416703781136
0.0388092072525481
0.0825238401965485
0.0475471726616961
0.089394203223896
0.0361734898191181
0.085721262623077
0.0299028696271279
0.105315123488622
0.0229850748725892
0.0963026119673175
0.0313667898854184
0.107440459303596
0.0259007680435955
0.0919705411963383
0.0403549709393164
0.0846710462853183
0.0456692701518166
0.0808291496283787
0.0584160646498714
0.0671408396194771
0.0696641376703684
0.0568449260181909
0.0692822207136285
0.0561196041278649
0.0688367401349963
0.0617168357159526
0.0606836464936326
0.0667904258318895
0.0601531010658725
0.0699100865978424
0.0561938166063542
0.0677090982695102
0.0588730049952612
0.0663185386807778
0.0590818548021432
0.0622514220807037
0.0603643040260862
0.0642483576906158
0.0604014690815083
0.0644989108314193
0.0630810498982411
0.0653777799515348
0.0599527517932656
0.0647284765860572
0.0584689767921418
0.063548362035975
0.0596715755099909
0.0646217497926555
0.0613727072007935
0.0669049824660608
0.0605527223307908
0.0654939257287705
0.0625001321929683
0.0638217715703435
0.058492073980785
0.0645222965093476
0.0603125021137124
0.0647052472052768
0.0633798627903298
0.0661579358519349
0.0621155048267668
0.0659779433220033
0.0592561140024759
0.0661994969839098
0.0616837121693946
0.063673094527321
0.0615220271632381
0.0646217246034509
0.0591611286691355
0.0626074364868727
0.0610717303374312
0.0652339028120147
0.0597645057530017
0.0625655688272768
0.06150978144123
0.0650031172591797
0.0591009319555311
0.064196957346857
0.0576667384253572
0.0643829084321451
0.062667111265316
0.0624975256259915
0.0603834795306202
0.0643087284906948
0.0617743976755924
0.0642611716035488
0.0614254491253047
0.0647149895576817
0.0621321037325533
0.0631359684135153
0.0612468055826001
0.0646307423596132
0.0601761696656274
0.0641446410564728
0.0622750948663712
0.0639711433258952
0.0609596236553492
0.0634665760476846
0.0612481598895753
0.0648141406781693
0.0636186362410823
0.0645542529563305
0.0651911843233542
0.0637598278830955
0.0636115437599341
0.0679104690250419
0.0628436892152076
0.0644736965016663
0.0639536622531883
0.0688170865286838
0.0629483465066977
0.0673344210392501
0.0630446128644296
0.0640794684545911
0.0620608945123433
0.0639335862420853
0.0626493317144505
0.0641101294700451
0.0637621485252793
0.0655696012698377
0.0667455654731365
0.0650392669416582
0.0632284657788761
0.0683456690241173
0.0667530723816909
0.0665444647340804
0.0664536551389203
0.0674439871143892
0.0645528951913761
0.0673590643742004
0.0661954274481546
0.0664208067784439
0.0634703487278484
0.0681229702136076
0.0663278857390423
0.0663920558047152
0.0654289223630102
0.0656528178189364
0.066305397257452
0.0656700635508414
0.0637284842978581
0.0687134828605618
0.069541024390082
0.0693555081624988
0.065116459609443
0.0673097624006056
0.0643801563933793
0.0658014696614974
0.065901551522885
0.0682725654235892
0.0671492737883646
0.0678711934357759
0.0654278554757391
0.0682916787655004
0.0645305408723304
0.0665980455367889
0.0693004699030237
0.0692209527362742
0.0676999371963171
0.0697470226258756
0.0660996974627141
0.0679772662120087
0.0672832354578724
0.068835846896162
0.0670640962018652
0.0708473718056852
0.0661092975972686
0.0687185702420853
0.0679662901004285
0.070536708123702
0.066040998175384
0.0705626506752649
0.0699725123455868
0.0721234609297744
0.0693407949235574
0.0693750540132576
0.0695362823152197
0.0715596151500518
0.0691681731004291
0.0712353981409566
0.0696666025075411
0.0711549918392065
0.0680988573869679
0.0720930332364343
0.0724941123911309
0.0706920810546412
0.0695754483892864
0.0719511507411062
0.0693346906611333
0.0718465883707737
0.0714434625362923
0.0712200952636379
0.0688392488459803
0.0715408961604739
0.0708610499468149
0.0705940240618528
0.0690413741166445
0.0716651072229003
0.0698000414651903
0.071819762107498
0.0699317030996585
0.0722601614078717
0.0670658312506623
0.0688563568910903
0.0693216368405544
0.0698992692199761
0.067753506278099
0.0696046320436196
0.069278590671198
0.068690953064721
0.0665791434421211
0.0701152144152151
0.0677782157093736
0.0686593628525673
0.0673967047798785
0.0695800464623361
0.0665772237972236
0.0683863459272731
0.0685338460106595
0.0682160641961372
0.0658858668880701
0.0677887513244895
0.0644055137430687
0.0668530646252305
0.0676851197386364
0.065529055928251
0.0650579603644657
0.0675198303416428
0.0657281052747906
0.0672401982299142
0.0658227989578027
0.0690868109086963
0.0677189466232985
0.0693991103429108
0.0646040562452451
0.0682217773195181
0.0689261183939799
0.0687448318761575
0.0660268440997613
0.0680522149812143
0.0651244019375328
0.0646358242365764
0.0663834866856543
0.0681468539409995
0.0647951116699794
0.0675088937654389
0.067125524675874
0.0667444804105027
0.0635768304826401
0.0658651929592154
0.0627388947546656
0.0666862786703785
0.0641597181354311
0.0665638862362568
0.0644233179266936
0.0643606522977014
0.064699197671262
0.0658585296686507
0.0646842407441867
0.0656446388916245
0.0633481090545642
0.0654093549563269
0.0629127908310327
0.0646727717577204
0.065848091080047
0.0656077697246686
0.06518997493754
0.066457482738768
0.0656940950656368
0.064565487756991
0.0661056533106391
0.065754417836121
0.0632999782890737
0.0641785112983435
0.0639842558467418
0.063092158833233
0.0613199099727925
0.0649073661488521
0.0633149557894067
0.0625247274744793
0.0635819348164124
0.0631669864050823
0.0601582580710702
0.0646631340226463
0.0643891286898512
0.0665608850003995
0.0615470195916526
0.0636264408623312
0.0617441615482399
0.0666213067009098
0.0618079678454478
0.0626148693239365
0.0610422063294509
0.0632979592061578
0.0621212072083094
0.062117146552661
0.0629052120536752
0.0641773772564162
0.0612134862566538
0.0615017387620375
0.060628221891729
0.0595183527629041
0.0612964759194204
0.0625957108333004
0.06407761433708
0.0632544333876744
0.0603973487934366
0.0647337896230429
0.0602780729126892
0.0598661692467195
0.0575323130425303
0.0607925809915959
0.0604300469715026
0.0588439341467638
0.0609178195808095
0.0597377071827754
0.0582078589179668
0.0601909794957583
0.056771416844742
0.0588470104915462
0.058493523228767
0.0606271372684817
0.0596600767201159
0.0585851268817352
0.054207232717017
0.0605896547609586
0.0564363030198908
0.0589949235571403
0.0563825126558056
0.0562619841785124
0.0566324194122973
0.0577406604999861
0.0587184476590217
0.0570051299858313
0.0595800819066546
0.0579434015959881
0.058525995417346
0.0558227326047219
0.0534406353536167
0.0569057225145288
0.054565493592556
0.0563343635641536
0.0558633443697498
0.0543379496675603
0.0553971138066437
0.0571413099102053
0.0548649566064866
0.0546548817936084
0.054794837134684
0.0530224654774166
0.052322060985022
0.0536369474301422
0.0534309266731157
0.0539671830348796
0.0529772853263484
0.0529934364669301
0.0506554005212273
0.0515456086159076
0.054323749708739
0.0525584943867326
0.0504018848410578
0.0536684296102086
0.0569887705754346
0.0521832844357471
0.0498293192237085
0.0544849494720932
0.0504445128115601
0.0541370653625365
0.051586025312639
0.0528319632516707
0.0486542752810034
0.054572513875543
0.0510791535249203
0.0525481828163707
0.0488436202301932
0.049789237964156
0.0487058716162164
0.0515615416212789
0.0514831968580569
0.0517848512255047
0.0488934264657
0.0497696844759669
0.0505426510472539
0.0511259357366387
0.0508114023651927
0.0495184972040067
0.0502019923774242
0.0510586917121212
0.0496811939298523
0.0546897803170534
0.0499501871089588
0.0517018241784584
0.0486159765769891
0.0484869641618056
0.0470762692994405
0.0522083039007484
0.0483087868105956
0.0497731420991173
0.0488337179170328
0.0475070338602179
0.046275113698729
0.0511155192106567
0.049876750617573
0.0467912753693758
0.0464920906259722
0.0507013964790331
0.0492337340273662
0.047686620947805
0.0467579036953145
0.0489513745705832
0.0450049653422712
0.051031066879507
0.0447797348910092
0.0476596918463604
0.0485188996921786
0.0474255326965568
0.0531685704199362
0.0467155026325351
0.049483357614111
0.0431927468349544
0.0475946906521633
0.0464980175422051
0.0451023271808914
0.044968768734598
0.0445453773659927
0.0457316981614024
0.0481219055576051
0.0458958129306464
0.0466617617798835
0.0464218603704409
0.0499963482280451
0.0448829678522338
0.0458386877807494
0.0463046609109136
0.0479288576867818
0.0451069632513058
0.053113548050749
0.047940563820307
0.0494131800103084
0.0437364639674865
0.0500814415201138
0.0448645562524153
0.0544635525321961
0.0463677687699716
0.0458224843096905
0.0454382917897735
0.0447717848989549
0.0470419212710594
0.0441827396364797
0.0480408677534908
0.0448081556220103
0.0490537540121669
0.0450916820877082
0.0485502623677528
0.0453858858419723
0.0497135023047656
0.0471280295325156
0.0447740131748989
0.0449419284488643
0.0445001282757369
0.0458420048559106
0.0454676894416167
0.0463525502243718
0.0459595720934741
0.0455716022728447
0.0490387313153182
0.0480703115886824
0.0468911120193265
0.0440190380554199
0.0465010050869983
0.0426069012932786
0.0496221414773042
0.0442794347290899
0.0517660463761442
0.0410120748411617
0.0468372610155
0.0434960248621414
0.0484406986428418
0.0435013837770682
0.0454942293392062
0.0441455023324075
0.0458913919441463
0.0422564863534198
0.0450115899236393
0.0455559484482589
0.0452136149834327
0.047184335134558
0.0434801478169337
0.0451318724259431
0.0444556976986577
0.047144784177885
0.0434667027296391
0.0443712772278829
0.0459672110683264
0.0498308913000342
0.0577970298520329
0.0438355933582729
0.051414672405845
0.0444761709900061
0.0493527016722907
0.0437407575185024
0.0492922948943199
0.0427792253650272
0.0483741852111133
0.0435585062736502
0.0476923125937493
0.0422758663904996
0.0484712263624406
0.0434103595822365
0.0472732445461057
0.0412885817223041
0.050516792802026
0.0413760573154594
0.0503548129784401
0.0400488385638848
0.0492896442912881
0.0428030811627957
0.0558525922316629
0.0430013333930894
0.0476132228200396
0.0450524022439508
0.05175358688117
0.0549876114177517
0.0444063996121883
0.0484331277925596
0.0448339459945123
0.0473535814162484
0.0452941501072881
0.0464781863424827
0.0469873817803603
0.0486622412014188
0.0450855581070837
0.048085847799765
0.045143999744272
0.0452220396689356
0.0541405879993585
0.0557999408172756
0.0579579165945713
0.0497753354093639
0.0455180948456417
0.0583891952793838
0.0537887082000704
0.0558908048676238
0.0460702033877845
0.0514627020484447
0.0472073600248951
0.0496103182691404
0.0470225921782802
0.0466072275823219
0.0501730673026914
0.0491304596575533
0.0508341952489349
0.0488725719986336
0.049606582388715
0.0461529268456865
0.0502285936725424
0.0482736991678812
0.0547489211834231
0.0530115104403665
0.0515228888175555
0.0495156596826756
0.0510593368931416
0.0512939816259434
0.0502300097697877
0.0454740742126326
0.0551412236003827
0.0524213599848979
0.0573057794684025
0.0571753149758672
0.0564306151746886
0.0558615552623848
0.0483073144278643
0.0571658200368657
0.0575749314883821
0.0457971062305979
0.0634809712661896
0.0517044551125108
0.0772372538100684
0.0485608267416896
0.0644127207896295
0.0449993101036455
0.0614744226042651
0.0447659241988677
0.0641308664879602
0.0565568563982049
0.0622287269289325
0.0548185440139165
0.0545454787870121
0.0575787259058699
0.0598599805600603
0.061828502717745
0.0563223894441131
0.0577665668648453
0.0558371883138741
0.0692268952990383
0.0522903239994406
0.0618762218862897
0.0477299723893344
0.0748197096255983
0.0766526183935877
0.0562103132589935
0.0637436313113323
0.0549973233017025
0.0722410959443945
0.0600398109755003
0.0592212980846403
0.0628175715723307
0.0573445061418761
0.0676184107445133
0.0659954407316735
0.0671445347372109
0.0667552106333031
0.0599914537121241
0.0693037069638948
0.0683617618715244
0.0722137944537074
0.0673171417797239
0.0730490024906459
0.0651442773161068
0.0698969555386184
0.0947993098599815
0.071634042178368
0.0856615527909414
0.0724164413326122
0.0935714977151675
0.0749954230053144
0.0893562839910419
0.0718774262188402
0.0871872757432326
0.0808965715041814
0.0848713353843117
0.069512894015084
0.0925526069591302
0.0790755327927506
0.0937828177786346
0.080938519297751
0.0859210549293304
0.074463807355249
0.0939057980680191
0.0998694559636215
0.108246870425008
0.0868125979323397
0.095756192195032
0.0911465002715791
0.100929188759782
0.0909624273372631
0.0936074234076386
0.0958198332069067
0.0938353891589608
0.0958899509706457
0.0989028708342697
0.101097241390182
0.11036316696948
0.0980129829003642
0.110672169385631
0.0958327631031797
0.134787801233846
0.110222940844994
0.121749968193603
0.111865438896341
0.128728795516771
0.120655629731427
0.114185662568318
0.117075897511253
0.119519536110324
0.12422664659817
0.122413755561051
0.124165859674771
0.134291988893362
0.123224348753816
0.154665287867219
0.127403998972695
0.152253231344635
0.11904997264218
0.166810975033004
0.160598814003768
0.173191277364563
0.167570891286196
0.14959953577236
0.183969889199289
0.18204729223947
0.196143922739974
0.1843055192764
0.191828598124492
0.192785697184558
0.203600791131306
0.209676819928985
0.21629606305886
0.230141076722845
0.2301408794777
0.226317810026687
0.239713996303237
0.273887675026216
0.29171485749972
0.270166420971987
0.271192360035106
0.279700222448004
0.293182586263963
0.292978061710606
0.307860390349897
0.286840818704927
0.338564423285173
0.324862813260024
0.350704699900419
0.326564087051055
0.353275729641124
0.360135195825105
0.358888424540515
0.382246146290944
0.384030958960057
0.399294885108924
0.385206689072522
0.406275796003042
0.397261904050265
0.417937161235084
0.41750001010537
0.438737802203693
0.433404153337937
0.43520973427049
0.447357722457417
0.446703276950213
0.462544919462528
0.464579250307818
0.46734775884354
0.461938751870796
0.503962077371022
0.613144192716409
0.497692277100299
0.495866050238249
0.469428053156308
0.502507434883097
0.488955531147219
0.485114233947634
0.531571808420374
0.499699879623626
0.497496458918282
0.482459510844869
0.497596080222256
0.488372394375168
0.486400073783605
0.493858585168024
0.476923883393366
0.503522323353713
0.478415386226558
0.552992210108315
0.517270232489974
0.509402036483318
0.47244364076541
0.496219537973355
0.472047184809821
0.492386639278615
0.459285579934393
0.491341954010028
0.482632126756982
0.472912738738817
0.456261100206806
0.45333129956416
0.46138528277056
0.468156658193595
0.45989149602078
0.442170164303075
0.431723629703721
0.439281991540035
0.414496275554356
0.437484068852151
0.440317337304585
0.430833410687949
0.407239592764978
0.414315827562079
0.40342103749969
0.402826989038246
0.386489601177934
0.405267345598865
0.386143844093752
0.395727445427095
0.387651691467942
0.382883429846093
0.383212396705317
0.381261618080358
0.375546795227821
0.377540590924165
0.380366353091736
0.371441983943917
0.373353610975939
0.372151806585698
0.368187606367065
0.36712035774011
0.364640882117449
0.367909263674188
0.364675862090375
0.362034204249353
0.363377935016372
0.361448573846286
0.356288182768502
0.355577111045777
0.356545092353439
0.362924463406278
0.358934855621384
0.357396691390849
0.356328623458991
0.356634076148689
0.357540306758438
0.358951480920994
0.355960862429841
0.353328033690916
0.350464698313968
0.350146950503952
0.340813293565805
0.393476792808261
0.3576209375219
0.360312403774127
0.334111142333474
0.35691308415968
0.333426411347203
0.342209310006489
0.365450411597354
0.350382996351283
0.346626564466191
0.337515003767166
0.328859897660246
0.349733498248891
0.333825585765141
0.336005425277147
0.329861766859825
0.317285906525736
0.347110575147098
0.312191936638552
0.387861193964916
0.36695640564648
0.345134509616745
0.305723191469245
0.335098178760572
0.346165788686006
0.329500195507698
0.320740034005692
0.307663909349886
0.335429630974547
0.324165665814139
0.327093822205582
0.315808093476713
0.308643204705249
0.334430978551427
0.332213252511314
0.313122223767641
0.323370869689891
0.315179266317055
0.310289225238588
0.315252586374878
0.339381677945794
0.31191861481111
0.299661955595815
0.302446359052544
0.286295718251727
0.294384618764217
0.310812084674343
0.2880203538723
0.296516305784502
0.272846779540488
0.281171636129047
0.267727579648032
0.28655130428809
0.260335088104367
0.280538077631634
0.277694498381158
0.261104817634653
0.277155152491536
0.253937624540802
0.294917313357859
0.279125760470911
0.262839707672269
0.238611390152802
0.28010004113904
0.262436256699633
0.259674206736773
0.261936691798434
0.24059161828852
0.249418121090581
0.247693709643493
0.231574274886068
0.243500998348229
0.233391693504031
0.237904201373432
0.237847623456048
0.25055007860044
0.254982564681165
0.229860166544197
0.223073828466471
0.217389447864577
0.224540756796299
0.221669361139522
0.203524113877801
0.260099006601561
0.210467208802504
0.219193126710715
0.23560500665186
0.227699432065845
0.223588193270467
0.2257807495528
0.221653620839778
0.223142756219807
0.229846136591659
0.259635414672569
0.227073400806339
0.253742916977857
0.241506197125154
0.244947867342501
0.236192975555254
0.248031233592349
0.246806668203493
0.251557583267817
0.261266624138761
0.262616310318704
0.263312543049576
0.276630652655545
0.262085541445889
0.303305282752211
0.286498819377814
0.288194617522607
0.313734689840671
0.300206200287313
0.345465987182286
0.317520247940648
0.333348294277555
0.32591901063466
0.339639119269735
0.34455756473515
0.335421566608024
0.356152854406679
0.370263683328404
0.36227685579032
0.363550569788936
0.366681152106548
0.372922566403815
0.370539769845483
0.402611994570159
0.352299347046792
0.462828329444097
0.393984852615603
0.415636858914688
0.390153915030317
0.392370356588437
0.401842210798792
0.401679017218647
0.404612365079192
0.407064771346783
0.40101912429362
0.427211142625843
0.405563006536111
0.42025509174559
0.409697211091398
0.419839364663165
0.414289342792117
0.42509816876306
0.419242806736661
0.427992351234251
0.435196523195818
0.427794927255764
0.422014196488581
0.490468769741219
0.441316179322461
0.447530406939527
0.432677030819699
0.461583246352646
0.443716490298921
0.44987165533423
0.472988734655387
0.466332909513699
0.462872069732923
0.46586176772669
0.475702236813649
0.470594321989561
0.477371567565786
0.498289322624473
0.470794627809313
0.499042522546864
0.461209424100927
0.537835054415962
0.505196440940846
0.508603743419544
0.493827377345483
0.505768360442297
0.499197145831873
0.504172906747005
0.495664647168937
0.506606033410062
0.504190169129171
0.504085241527747
0.510471669620733
0.506002196277426
0.515074735978701
0.501897457218899
0.493622642745833
0.530122747517666
0.497540614759726
0.512030714376517
0.497062457330982
0.512878883233024
0.487750579553323
0.522325192294225
0.503346073520007
0.500940619631708
0.495120309594898
0.498315285875447
0.517185359737368
0.510603180854622
0.500103567421763
0.50672272065198
0.49177199993376
0.512814374254869
0.491239647405811
0.518286155647166
0.516619756598877
0.519775554943345
0.506826046470173
0.516491325579146
0.511646922294515
0.511104048498515
0.513908438269868
0.521692858105343
0.525820987657486
0.518022686793692
0.523879851735103
0.52266130800199
0.52631752558653
0.526825239772776
0.535113926564318
0.533979600512752
0.512324231084049
0.524718660169336
0.516515250905155
0.528426966430214
0.515932105155611
0.514771336016882
0.502509384212249
0.508748163539379
0.497469002359959
0.496308130469654
0.510273944551395
0.484393100278009
0.497603120989264
0.48638025705527
0.477218700909208
0.46973802564404
0.474401792440619
0.464762941171143
0.466734521818314
0.469808469138765
0.460609891714989
0.463640771905955
0.458250789414587
0.458355902285564
0.454196811830638
0.450592090075892
0.449448972028567
0.456921634368914
0.448792047748768
0.448626851350503
0.448070159094886
0.453023903863123
0.444719140531894
0.440458791652108
0.454182976217661
0.448804323325223
0.454394223823373
0.445016449165088
0.454727231882911
0.447257046568762
0.443762978573386
0.44764124143485
0.4463585285426
0.443255467655045
0.442998217537403
0.442768841936447
0.440297579881485
0.443100834887943
0.440119583035828
0.441845259557791
0.442305220877414
0.442834351529833
0.437775059647723
0.442958716603366
0.434222935625377
0.441494119601246
0.434560360374814
0.44442287399926
0.431175893422191
0.441766485144381
0.433293580952082
0.439924806976656
0.438734646115322
0.439726422760851
0.439041409558952
0.43750293416139
0.440024741705551
0.438859241034461
0.435247528978605
0.434890238788718
0.438037987383732
0.434908613613713
0.429212403849019
0.436928847133203
0.428856298376686
0.426727202386943
0.425666246317395
0.420783581087786
0.419808869564236
0.415694507408525
0.410501647419622
0.411464433085418
0.404670896619629
0.408201431946455
0.397183476171107
0.398603212582616
0.394714777090966
0.39151899539471
0.386553907354395
0.385931959918015
0.385399339266533
0.385704132693076
0.38106002562499
0.382723418573042
0.377849620400549
0.383171980442606
0.378694996530554
0.377815779393357
0.376835721919923
0.38404062437917
0.378141624522895
0.380073795684149
0.381694220925077
0.382048160348733
0.382364107848647
0.381567870980757
0.385216334425588
0.386321354843803
0.387563070840021
0.388653940085282
0.388958689930591
0.390013300487208
0.387463755478664
0.396856601493693
0.396030073374046
0.397842358250262
0.402379641755745
0.402056506068389
0.401017437242394
0.402340247090248
0.405932704746839
0.403678533745146
0.404299668125837
0.404496598812881
0.406516979987671
0.405194022429931
0.406363087916612
0.402337027459505
0.400390501090351
0.403278801884178
0.397833842222461
0.403605309962464
0.398959659393038
0.399397271748235
0.395850194283349
0.395938931492264
0.392271493021028
0.396432687075037
0.394229053441488
0.39249107764684
0.386160041484677
0.388373639104213
0.388232842156764
0.383542468949082
0.382182348992374
0.380376183543305
0.381102060626416
0.382417493313616
0.379437597731459
0.379802021271397
0.375930649464385
0.373588075967855
0.375981944363046
0.372599789828753
0.369146316515367
0.372782491664928
0.370991461702733
0.368809538862493
0.368342652241693
0.366141686764651
0.364023503278663
0.362866088197864
0.359521216563965
0.361612008037451
0.357755141264327
0.354458712126123
0.349003358846655
0.351400203489119
0.345830279893041
0.345776297820398
0.343392996226855
0.339802838523072
0.338437441752315
0.33528283512301
0.333529390545412
0.33253649496849
0.328338614883461
0.326165345978764
0.325669725009369
0.325530063991595
0.325253778161713
0.324582157945225
0.320893610980747
0.323274870206462
0.321673487876007
0.323017867095382
0.320232619594277
0.317293811813225
0.321068377705067
0.313551262978033
0.308619539251937
0.308526431669956
0.305664921747627
0.303856346035556
0.296801028085397
0.294570203822847
0.289891762323546
0.290446408496727
0.286679572235624
0.28623464412802
0.283481031304025
0.2852621251033
0.286460301820984
0.293944417754119
0.295669535653684
0.299852638319655
0.310410280546614
0.317703082880531
0.325116686684744
0.336604010737578
0.347933673930556
0.361890574975574
0.375363674171877
0.390006862982525
0.402272591504152
0.42076953242802
0.433045513890386
0.447029228957983
0.463570322229416
0.476463688855317
0.491085023943773
0.505947132212044
0.522632319109981
0.53602569408863
0.54518141791368
0.562870392718942
0.57511282295785
0.587095077603791
0.594345802933911
0.60817975627678
0.614509406798143
0.628536295026841
0.638726660643427
0.64265832781982
0.651638344063938
0.659506389958987
0.660566525166547
0.662873741990959
0.671277938620075
0.673011646436903
0.671213405858151
0.67375468808164
0.673204057217409
0.673222733707477
0.678299692422375
0.675597800975202
0.671650013427448
0.672039410622243
0.677831032706206
0.67559596002269
0.676909912023563
0.679162783440715
0.679164639122201
0.68321636061781
0.686417168935612
0.695784279323312
0.702512466788523
0.700466534130979
0.708421433656812
0.712110665050491
0.720987432708982
0.72906519497049
0.731943792359873
0.73658018717297
0.755411645516921
0.763501698753334
0.77677488135831
0.787946838803904
0.801329290513954
0.801593082080429
0.810971354034106
0.817265207378178
0.829824890358978
0.839794994977736
0.841128169811629
0.852213331158541
0.853299774922695
0.851445565401752
0.842703797291182
0.859086577290317
0.856781649846539
0.840943288711547
0.840944166694707
0.84238207803815
0.84307797950455
0.843842619462566
0.847982933655408
0.845487088989057
0.846855351145831
0.852839122886436
0.866921380669845
0.880227629603438
0.88193146116963
0.901195381213908
0.923965645331092
0.927339982944315
0.948016103755981
0.958170852192333
0.966014369007352
0.98626685370264
0.995625946230554
1.01070788122648
1.02624515572866
1.04441295853493
1.04626738172862
1.07134580759178
1.08987880390262
1.09030869936587
1.11167700069114
1.13792579114456
1.15434036686435
1.16148877247233
1.20068914716514
1.21061020940775
1.23566416825702
1.25322003162937
1.30575859176207
1.29198721905422
1.35491224307152
1.33402685382298
1.34469150630182
1.34876454991556
1.37914916162848
1.38090887451326
1.39506708487205
1.4218202283019
1.40409537768327
1.3984252617768
1.43326746189304
1.40966305885633
1.38621516005156
1.37555332959732
1.41137473494476
1.40965780677514
1.38912296088008
1.35304341822169
1.39052701703167
1.35909372959425
1.39786870411005
1.36003207795641
1.38631317450497
1.36360092143824
1.3918920560845
1.41109002119613
1.42014839569632
1.41237036495575
1.44893866840115
1.4302554019056
1.44436713584686
1.47856245940428
1.50522545953532
1.54642577262561
1.56857174000664
1.5245226396391
1.60113950491771
1.56178084358809
1.58255050613789
1.56832488427367
1.61552131177277
1.60922833045105
1.66545764728229
1.57093293908119
1.62933902060727
1.59142512567097
1.62217692539993
1.65173811190219
1.66611283603264
1.71549053562379
1.61765635071107
1.63059359873928
1.68119079632017
1.60068757495051
1.69183201053001
1.69578190803124
1.63880341059465
1.61914049808586
1.70749805789447
1.66986449920608
1.70080743879628
1.61827049718235
1.65661896105334
1.57494826304162
1.53049356225713
1.50324564466841
1.52715382403504
1.51429329578023
1.48922750191271
1.42129230027553
1.3499905584127
1.31263828569725
1.2324094531751
1.2127341855423
1.16518016225486
1.10978109117416
1.10518866060177
1.0709077928245
1.03673614528778
1.01210781219701
0.990797284321731
0.970671472639862
0.987863224269491
0.969573029527814
0.972044093516761
0.944219622887163
0.935702725034032
0.917285793510947
0.912652770853871
0.899298496217717
0.892387961147802
0.887288193194981
0.866455731955488
0.844377990196447
0.8420867308058
0.814730389211858
0.798284281808234
0.78429480991299
0.761392421648621
0.740129282313418
0.709400172414645
0.677477460520505
0.653136684705438
0.636684373525924
0.609616219434339
0.579000106910423
0.554136360729586
0.524775748787551
0.501923236941077
0.47955505865227
0.454436842080066
0.437938510088141
0.425350368023261
0.401985952016716
0.384701571650165
0.371643092603442
0.355238524356119
0.347118783087453
0.33549523861618
0.324460672112206
0.3205854112893
0.311399105402182
0.311571014236832
0.300963757855497
0.298756542068283
0.292362548888792
0.294423201421944
0.294370853902655
0.290658893001833
0.286652657395761
0.287276872763557
0.287966109870391
0.290143345305601
0.290762840169621
0.291251215430772
0.292476549962673
0.296310829132218
0.301476740898291
0.304990005413429
0.303811543523463
0.301237758831643
0.302272667687987
0.305305731738183
0.299213191859691
0.293430717780148
0.29652766665737
0.296229146365673
0.293696142434104
0.291243527803569
0.289003867205474
0.288080999135393
0.285652366049338
0.29019973226841
0.286929996856346
0.286702013014648
0.290520018528856
0.290215697171383
0.289352671020784
0.296522631153147
0.297332998001312
0.296429092160541
0.298576553333351
0.300967640491662
0.308255979333754
0.313334513852287
0.311535637365859
0.313116604590332
0.313513465506547
0.314913041467143
0.315423353503518
0.323561826356973
0.328865124462556
0.324051790370317
0.323510785079922
0.332192935061624
0.327341402639658
0.328906943057109
0.327098516240793
0.32792690891992
0.333578042380278
0.336740047114272
0.337543196821729
0.34372833818029
0.341797547276306
0.345323524869036
0.351041739660907
0.361984826053401
0.366613240382885
0.376748365112666
0.387296140251825
0.399834213401729
0.406743721716328
0.422600864523592
0.433111630668445
0.435401517831977
0.443406159454358
0.448481434850183
0.440094372389095
0.443442904202954
0.432040553976596
0.440066732731819
0.44056408127454
0.42177076524026
0.410292716098864
0.401636220817635
0.401747742057417
0.390235331752545
0.392233295862008
0.395156836879533
0.389049980782774
0.397893147052007
0.390883883527415
0.391441538753628
0.393525916686951
0.399378613533035
0.397041135925652
0.393545722444075
0.394279242896526
0.385047906999774
0.375436296473756
0.383137423273176
0.380435807327933
0.377913583059052
0.364067798350742
0.373040086552352
0.37282258444137
0.372656947790574
0.360621367529756
0.35345229861951
0.351552215507252
0.349705008328939
0.352449375142228
0.345841740503717
0.340754458101259
0.349327137607933
0.349124376578137
0.342282556157469
0.336723934984072
0.343879263089994
0.347385202898843
0.336308635805825
0.342313970817717
0.344570680449447
0.335251262002525
0.340194665874084
0.32923472818626
0.333564570292167
0.331979456278979
0.332304301684639
0.326070278454759
0.329545629502497
0.325130089407738
0.3285305039193
0.322432725401997
0.322942451757161
0.322443064212386
0.320247787958121
0.318305093275878
0.326867122547252
0.313417256491291
0.308523966688877
0.32280882832853
0.314136933057237
0.308823331786561
0.308400286945559
0.308099637396844
0.315547014235416
0.317377000954462
0.319086795688788
0.324655064003485
0.320975232817383
0.310980937229835
0.324293760549101
0.319598204329563
0.319913322621144
0.323695313415064
0.338801425387473
0.329544773888641
0.333807857618146
0.334406408299553
0.335404363810469
0.338839067913624
0.339997920993822
0.339530069192532
0.342057609548895
0.33833265798317
0.350928077237383
0.342148344380203
0.356326507966803
0.376905993023426
0.378985598001792
0.374508634723507
0.378379350916414
0.370952014421385
0.383117044111898
0.391209139784759
0.404968274604072
0.401877196799165
0.415027846159745
0.438184964717211
0.426415585750674
0.437436979952136
0.462672770195725
0.461180243115375
0.473154179947818
0.47960234865154
0.520548179327783
0.519158724931289
0.53525666233511
0.532147629200225
0.533612287011214
0.564742380673354
0.577851345051818
0.572048108885837
0.556985479940677
0.568418374110852
0.565737779560047
0.545757527071868
0.555959483212583
0.538456151492275
0.537430947975539
0.527563619013708
0.547872098824789
0.535165887436568
0.538477596167333
0.552827230396006
0.557264131177559
0.5566438944274
0.535932999989564
0.526649497885062
0.547737381480448
0.562024450077172
0.546844971770946
0.518608941509894
0.51354644096209
0.508319192573368
0.510648592401117
0.52822663478674
0.488498942198863
0.486430185580015
0.495406189521189
0.488415387425864
0.514826535730274
0.512722038445982
0.506090281604412
0.479338816893991
0.481634199010231
0.497134913062607
0.49087276476525
0.495003530685162
0.500474361107054
0.511154977407294
0.516264872898071
0.504738178791747
0.498120865005929
0.481004489432704
0.535288962662977
0.498247162667227
0.495936343110915
0.529037791459253
0.501410387168768
0.501917451196342
0.535171630666589
0.533276476574713
0.534762702119733
0.526018896977287
0.515409408878747
0.515384686790444
0.527190930762014
0.500516613219434
0.498768624703135
0.532034852718663
0.553754254371917
0.544181884731022
0.570882990397707
0.545443332336015
0.499977298291555
0.530919174648085
0.548564457465663
0.53404537234181
0.533818130989752
0.592581876769136
0.598881687749623
0.546972219336683
0.583272171950851
0.603526484349584
0.5673039267115
0.634778323482058
0.727695640805311
0.588974371832692
0.641840854617235
0.687110279280463
0.617768271984895
0.714458280659919
0.670945216376462
0.709619006635816
0.795872694519033
0.746218802917866
0.736075149010982
0.697078927053597
0.708795446464307
0.635043768957861
0.636946905027564
0.619166321153393
0.638598038772839
0.719756333136402
0.6604221719021
0.681661713539939
0.689934187020614
0.639855937642992
0.655290043318417
0.658310067937867
0.61699855363095
0.674776966642654
0.751423980326211
0.724159463890418
0.684855352989432
0.758202819872384
0.641505462134106
0.522963115937203
0.736431029531135
0.736044301443524
0.610622694131409
0.724389954703914
0.615087537208009
0.637971350739071
0.591887082958128
0.498492234754473
0.696855573307011
0.576190111152118
0.651775654872742
1.0229256037738
0.720719808851137
0.511312172597367
0.701493877970504
0.803802753512532
0.926831267397733
0.664610676316879
0.50830639579235
1.05933015758006
0.891938556218563
0.634411706792734
0.726419132272682
0.595985472524239
0.665009627871603
0.924808114378058
0.605256618864781
0.650617585189594
0.817423526322442
0.605549642116889
0.423250628106355
0.658409294935643
0.885613175074187
0.727461685122021
0.582948238575492
0.537908878272652
1.36669493092751
5
