3596
4000.36533379555
650.420452594757
1
2
2
0.0500173495941462
0.0638620933558764
0.0598920726178585
0.0773418661246719
0.0582415000420683
0.0769330974333945
0.0613935056445544
0.0766584145807789
0.049830052731259
0.0610907189247417
0.0484721003059348
0.0731173647682691
0.0518204953265314
0.0685454943260537
0.0614785071983634
0.0756700954534063
0.0590298525631931
0.0638494317805135
0.0375537417213938
0.0678780422348071
0.060333256496308
0.0619809960925455
0.0489092214652018
0.0673099084263334
0.05270826358607
0.0653039039051178
0.0537210816732845
0.0660507931317122
0.0521222135731181
0.0669555402309353
0.05233199793452
0.0711231143028191
0.0520214629061976
0.0686583117446429
0.0539952371469061
0.0669787594969463
0.0608444685511086
0.0762005587905494
0.0509465638036676
0.073849509119734
0.0637290231202228
0.0672267820951831
0.0472766674531991
0.070873247509154
0.0504084524580966
0.0705915780339091
0.0517373238324502
0.0612239531619161
0.0611483558447509
0.060289671516047
0.0473173294226751
0.0657794643834975
0.054876472140739
0.0676752891946424
0.0496687691257941
0.081064116532658
0.0482841121732909
0.0627448278289844
0.0412764789117396
0.0634419478885334
0.0606562459023435
0.0665527825889381
0.0618938734582262
0.0763119804522373
0.0509162319852003
0.0606888933868341
0.0515123220642127
0.0643916770068873
0.0559224306510906
0.0657643337185449
0.053615975267663
0.0681788179300246
0.0604541542360764
0.0624639094284159
0.0537458924592498
0.05884294187533
0.0534191011861327
0.0704103591638241
0.0454483506737789
0.077989813105778
0.0533230356250159
0.0709833750988593
0.0488474396406201
0.0587884718577546
0.0459689449973387
0.0687541129064399
0.0521381490216081
0.0642709742554179
0.063292174748433
0.0620288386939042
0.0457627729593275
0.0672255414056238
0.0486749922646347
0.0562423726045425
0.0478028098150257
0.0724568514773207
0.0515481871260138
0.0669343740866656
0.0501076060672268
0.0638599500193567
0.0460877013432355
0.0526555554491939
0.0687772476415267
0.0580618075147657
0.0697092670404961
0.058084538818402
0.0371142119593162
0.0894576949126178
0.052077324270508
0.0622808544886915
0.0445042330265223
0.0605620167330346
0.0486141843462437
0.060326755017413
0.0382171361837296
0.0718506983293949
0.0670915215677634
0.0673306239582683
0.0523756439147633
0.0640631448738967
0.0316825294108742
0.0631837690634899
0.066176285799427
0.0538940068472514
0.054530114781779
0.0591175509977577
0.0424975541277585
0.0897764778214945
0.0627957860687713
0.0579524670648088
0.042715012828314
0.0604743884723674
0.0412658824912409
0.0407243541308475
0.0585835996804312
0.0582729861560894
0.0483087344861177
0.0528473279262137
0.0420841945705541
0.0939648445295813
0.054373099693355
0.0576472260919876
0.0368225982157018
0.0611345824596346
0.080768692584723
0.066927047513456
0.0407055373418362
0.0636391450582113
0.0510863999297457
0.0535462527977894
0.0453213209271152
0.0538021724929839
0.054786739021354
0.0642033402000636
0.0312486541423251
0.0706090501289531
0.0803851338791892
0.0599585187920115
0.0758989270316129
0.0561045692697673
0.0537935842178604
0.0523374584563095
0.045129915437713
0.0533497787420317
0.050527230958298
0.0570567292119755
0.0427971012931653
0.079760929123277
0.0364853967566995
0.0546504079436523
0.0659944766355123
0.0671554257133765
0.0294090094496087
0.101133137833414
0.0628056450595961
0.0565833957298104
0.0640820323647703
0.0704714661193415
0.0448274537213297
0.054166112269854
0.0595075573423062
0.0539859016168598
0.0443944359608681
0.0612660156960282
0.0495958560003486
0.0673713472401732
0.0538765386109459
0.0581398404947465
0.0511183518457998
0.0482503432735404
0.0477138647401191
0.0710270439783554
0.0612330786048503
0.0580332432127089
0.0440791333262184
0.0381970573797502
0.0579996132516421
0.0796891231783926
0.0398313661394161
0.0590100980867588
0.049460576652699
0.0603353065088951
0.0530764326149345
0.0612241387406628
0.0481529415769872
0.0456411711759952
0.0658344337980647
0.0685110902988192
0.0499232077009097
0.0468535100723525
0.0441593281661019
0.054551150039745
0.071046018304481
0.0719121451718143
0.0391846600005432
0.0668045620430506
0.0462586992152236
0.0760566508731946
0.0592870569246905
0.056581587030013
0.053096252338241
0.0604251651702457
0.0477985319193161
0.0554870738861713
0.0513991393311843
0.0559681990270802
0.0443462181184502
0.0616941309838783
0.0446790983040884
0.0578875701059785
0.050953959779579
0.058852236936579
0.0469711112496922
0.0573621819200668
0.0509309471947227
0.0662892863304702
0.0720247923283891
0.0563970610446908
0.0455081754864013
0.053032442292972
0.0533440288067084
0.0562140507177485
0.0540684562380603
0.0519634206148248
0.042432286270085
0.0403578364492383
0.0670443375451633
0.0674199967290287
0.0539130551908512
0.0559170303531188
0.0614221821898151
0.0679462351976548
0.0480493943516297
0.0588301682605144
0.0521670881000983
0.0542961782219185
0.0395417775441346
0.0718118011877078
0.0519232378793037
0.0571944217387552
0.0494096260873284
0.0618623756813638
0.0495969624172916
0.0523803533485445
0.0317712755416715
0.0978960631113418
0.059098311855911
0.0497155919316152
0.0861174781326507
0.0783195956334307
0.0595508911328924
0.0598532553498285
0.0313322141464096
0.0980716059062277
0.075571227061467
0.059315235095618
0.0578378995160252
0.0712997977410426
0.0523888444335929
0.0618194909633355
0.0442692650943455
0.0549025355341319
0.061937449431048
0.0797491725743974
0.0801337416298612
0.0522578134762884
0.0619692678509607
0.0811015845318884
0.0500889565486187
0.0626414292745433
0.0527593406473106
0.0637157273188516
0.0650414157771733
0.0794231991576748
0.0634901408168633
0.0654217940866595
0.0583454250601884
0.0911454887477603
0.0664349037687886
0.0674100441967901
0.0586300818471331
0.0659004029036648
0.0556123084142201
0.0619833299463972
0.0609661271642324
0.0740957496417225
0.0558395906402523
0.0610446467127966
0.0758080874041629
0.0734398341254426
0.0563623255354566
0.0900458690203089
0.0703528159668084
0.0629708732832859
0.0668101881083966
0.0743242578678602
0.0589450266158049
0.0698889299136643
0.0575023500688104
0.0895091913667036
0.0780638109035322
0.0722792550557328
0.0659019646719387
0.0766652278881995
0.0713063867616717
0.0738987984861176
0.0714918621214189
0.0743688936200437
0.0668079551773007
0.0726517039537426
0.0878751917447467
0.0955654805407367
0.0582920489572859
0.0974944813977691
0.103159743129507
0.0740293470958246
0.0743931244632886
0.0749859692937227
0.0750705984013916
0.0883009597499236
0.0858207883730238
0.0876628671921228
0.0787240658604861
0.0983105771067906
0.0914572304822802
0.087822519491884
0.0969711551199795
0.130587223596138
0.11763046509872
0.107839683063984
0.0912566099203407
0.0961574431574195
0.105629921487231
0.124650311022585
0.0954360061073174
0.125395430781192
0.0993211072314856
0.107108674009296
0.109313352133374
0.116567838215526
0.105697732323319
0.116171079848218
0.113448713914234
0.11985698976992
0.114997856507254
0.127780208727241
0.11575223517299
0.130615372348444
0.155809882661482
0.14619278881782
0.126516943465327
0.133846987925398
0.123268669508035
0.137635262941775
0.154406047536764
0.162092942624063
0.155333176083575
0.167360035503762
0.171939666501079
0.158905158097131
0.154389969024352
0.15810359704231
0.150831712354725
0.16979498998602
0.165960838416283
0.168830702957465
0.162351250860694
0.174115514943686
0.169544504965087
0.182534217413881
0.18816537061057
0.183615698621684
0.183915206084568
0.190673031513131
0.181620606392504
0.194446830398902
0.19578114429735
0.248886260380593
0.221123469851917
0.207919838873951
0.198326318141941
0.216120455373211
0.205251256684754
0.213555309783437
0.213663980401901
0.226573764140189
0.222566236800127
0.250701752880178
0.23405570864467
0.239678578028557
0.228918305720879
0.240934491801792
0.256893917284816
0.256465449149452
0.244707106276683
0.269457245749482
0.26039973344562
0.260010910891453
0.26769822037905
0.278925518974513
0.256709742057123
0.284156851412956
0.267715006258812
0.267951942469506
0.270757122625854
0.290705717834566
0.287146217299903
0.296588220324255
0.297689075288845
0.303499382860811
0.29781592971076
0.32261859609133
0.320644883978887
0.343520197018745
0.330578798637003
0.316868182669017
0.316734998243137
0.348017774063523
0.320530064029281
0.338890043917759
0.339198829379595
0.3601326438105
0.368074110385532
0.377208058384986
0.350639307445002
0.356379970927196
0.369190798787459
0.370654542838712
0.361129994566145
0.373851332834215
0.372354681721379
0.391220415468105
0.375425543374136
0.39769814276262
0.402066907410543
0.405742425104517
0.413682742667475
0.416956092263537
0.403367329288557
0.435543283159071
0.411129084795417
0.432175081543474
0.442445859516342
0.445519753370402
0.457180738151858
0.480010422528188
0.446649943849444
0.45464208292364
0.441771408224482
0.456679781508531
0.457330228674237
0.4742145139882
0.469272848319894
0.483710354203538
0.477027565224146
0.500344840941286
0.504035003903658
0.487825129060847
0.482654404725129
0.519887025931479
0.512243273407827
0.515057860450898
0.506594844580358
0.505023846159407
0.509694946338609
0.535078515800459
0.531705357426666
0.559806753651637
0.559235041110451
0.55689607009467
0.538349276933467
0.552493730579199
0.556508500073071
0.597532916097818
0.577629272052516
0.571224268284892
0.581625983159194
0.593458144222785
0.575875556590382
0.612305676982467
0.605609109398293
0.618533019488055
0.602812931819927
0.606762847991904
0.598336869085092
0.625236653992765
0.636507327465403
0.63698334945977
0.608833195240089
0.62951012549587
0.677104916676957
0.681036753599681
0.634029143719923
0.654363180068951
0.669595676645765
0.680231490683072
0.676936271903227
0.654335071993689
0.699899416124175
0.730785202689962
0.710217809422672
0.73143183334868
0.737460707737323
0.757404209308549
0.732779724298327
0.715566057507453
0.700562295757776
0.7574211944423
0.732170153407912
0.718126124521657
0.756487725609775
0.80993122708344
0.741889934969371
0.751130495079162
0.769510269883314
0.78233785325866
0.774259295872981
0.77566617638452
0.759329320727948
0.806126481252829
0.81765451202336
0.782507754178558
0.782739096172845
0.832431450575726
0.853808798568903
0.881923501735114
0.839774048947296
0.834386530053641
0.835621083426519
0.816457683556985
0.848129604514098
0.845077257045938
0.831108924016774
0.9425288010826
0.914566261443849
0.873757800318327
0.866215491785956
0.831408370684919
0.89192918148485
0.965974684543421
0.861356675469521
0.899747740485995
0.924443838243989
0.907546684413107
0.924862571904681
0.935736146160594
0.941932623648918
0.863526178321131
0.875468735561867
0.967790650327944
0.915098465031568
0.929757372940302
0.984504181485147
1.00017937140439
1.02436458681098
0.993207813036904
0.988772158466104
1.013663969392
1.00827177606487
1.08330933604633
1.045514288018
1.03282346807834
1.01934028083436
0.999729507847612
1.05023369473806
1.04261614542175
0.983684940550348
1.05327605456939
1.02455102226083
1.01919803046514
1.10414379032625
1.07702385887259
1.03518359915216
1.00732395883539
1.05883417104212
1.06549065858137
1.10340738955427
1.12588449610305
1.11383342714219
1.1035099491191
1.03543622055771
1.10530429366408
1.10677381376642
1.09466811110355
1.07347281180978
1.06608575502423
1.17324879411212
1.21560518262529
1.18092320058869
1.11211900440301
1.22973786443895
1.27279000285912
1.19306972724147
1.26321224623305
1.21923479631397
1.12448734041575
1.20549333643414
1.19117579266328
1.18237307597499
1.18554924667429
1.10830811154191
1.15984405525725
1.24177904890495
1.23048656390906
1.30514460705367
1.24832087020725
1.21760962513601
1.22054187086152
1.19072857759341
1.17075065761904
1.24746333520904
1.29469107898492
1.26495423486975
1.24291493909434
1.2176159900521
1.21296206662687
1.28264289841879
1.19730442677291
1.2925233587848
1.20944644838044
1.24857703363068
1.31953105134621
1.26462139630454
1.3992032716424
1.24740773509619
1.14970102044832
1.25211885689875
1.29631916708762
1.46525509989227
1.35940778067541
1.32041812774213
1.41275811129772
1.39666155464086
1.39509625687881
1.46557830374948
1.33998674097547
1.3913622002928
1.34787702470042
1.31985016948757
1.42631524526377
1.52459296295677
1.33536817109847
1.29806524817578
1.27446808031755
1.33292289425332
1.43236522652289
1.32235359043129
1.33840948177992
1.39577690543919
1.42738235379899
1.50987123343837
1.41885391649244
1.40633033699336
1.29178605630029
1.36636146171154
1.40576003208369
1.32801681764145
1.49295410657105
1.44022172256728
1.3077274244837
1.35211392783998
1.31810723619961
1.5490501830228
1.29592526725082
1.29206923827035
1.46993601443877
1.53072909979448
1.33990029899489
1.40037862579334
1.5677250226525
1.44592287042398
1.48399149068794
1.51076129347299
1.42040592574006
1.53265225177545
1.40469245228911
1.39615940573143
1.58374937816366
1.58138859089473
1.43503624709561
1.49388735381947
1.42524056582198
1.62439192563074
1.64957882952355
1.54045598894472
1.41230529246576
1.45455333752859
1.6180335640279
1.45920686104868
1.33681695239464
1.42785418544777
1.43016809234211
1.54042048652667
1.48146873362134
1.39713255710847
1.3408202302749
1.39735508826954
1.50709906282618
1.42592316794587
1.40532989924672
1.51925171466471
1.41818218244125
1.68545060946655
1.453628571384
1.48033113040496
1.51385035672359
1.48087660539404
1.42683712852496
1.46539947415441
1.4990878206387
1.5995386248504
1.4861600426225
1.53151792940116
1.52655501537064
1.41464528543967
1.40218316448771
1.55734058444483
1.64992376494232
1.47713397623366
1.43019410334369
1.46625106574595
1.4925355463516
1.56949586831891
1.46242050854155
1.52053779693747
1.54338026568132
1.38552493524925
1.3437680786778
1.52040757400479
1.39545099811309
1.54717258271975
1.53082520229867
1.62000123445088
1.58118775040582
1.49447563026824
1.39191234203445
1.55016764665018
1.62118656041508
1.48672883454083
1.44911996653445
1.68109901649383
1.47163621404871
1.49333899927908
1.45464356858435
1.64239552077764
1.54031041588543
1.46015777840628
1.43011543256637
1.53824893010307
1.43979393351706
1.52350315204566
1.50953260242074
1.55895109861685
1.40457447979435
1.45002830391357
1.44659855146651
1.52586796715326
1.52974383700355
1.52720105625734
1.57439688672307
1.46619856048769
1.40692103388135
1.53908028747423
1.57844835085122
1.38989558958618
1.45002641388155
1.52337862295344
1.31957530481135
1.51910073597348
1.46171280448497
1.49021717064718
1.44350103229031
1.58250931251269
1.64766527400658
1.50598720560354
1.46168384309286
1.47724863229109
1.42596852207237
1.56485809037121
1.46327871252143
1.44628280788899
1.55257433661645
1.56891341649529
1.53582053455356
1.46352291553141
1.39567528777875
1.45687581343788
1.37769434856517
1.45158055353
1.53792787562206
1.47483885604433
1.46430331410873
1.59514786337195
1.53650622605008
1.51746365697
1.49469733674164
1.48870292333236
1.45803764501381
1.46878831867273
1.48846106255624
1.49327081057737
1.45677552116824
1.40375504433861
1.37526964168154
1.50486770326698
1.48061158493466
1.43073938095951
1.5416460915514
1.42285994488566
1.34118132226405
1.44189221661967
1.38018292424158
1.43197678905787
1.4631352762576
1.5423614969615
1.39658335693094
1.47924967903962
1.39918932319674
1.32069151314299
1.33853528906496
1.37146116743333
1.51138802351475
1.43681153451555
1.29715172705181
1.35029874534276
1.31582125380976
1.35686126705913
1.33141566501651
1.36159965698912
1.32322149803632
1.41766059296146
1.39113703509128
1.37080596026908
1.35077571123696
1.41426406532904
1.30094202744412
1.36430159195061
1.36792859302562
1.29713386889303
1.31827699483617
1.38157511488772
1.29126145246964
1.35221533315355
1.3069516786313
1.31168128878965
1.29311158119716
1.34029982832752
1.26017630985735
1.29256546984813
1.30463758722271
1.3122864510793
1.27683548949111
1.33174503010271
1.27856147559483
1.23596931085507
1.24030988450701
1.21367732261528
1.21118268129855
1.20954500847328
1.24308025597111
1.22441482504427
1.19767785054847
1.24359625271664
1.15570473528987
1.18784182626758
1.18941829221482
1.20713130478939
1.18514062977081
1.16134076229935
1.12602228535173
1.19167910643432
1.1807178566417
1.17653245788359
1.14334235898724
1.18016158324957
1.15620412068095
1.12870779870779
1.09479797214662
1.16211508173355
1.12068603761921
1.13734760042265
1.11324684262975
1.10285710251153
1.0866458084476
1.08848878488554
1.07534273835647
1.10191510796846
1.08296191325306
1.12429818959292
1.07503067339004
1.10595481435168
1.0536671154207
1.09669159015884
1.04915895619385
1.06662763750873
1.01459475714199
1.08344264474998
1.01288335194971
1.06770187745399
0.998885500214849
1.0418013970686
0.988234214683653
1.01151142815892
0.979085747835798
1.03837114276733
0.97264393070745
0.993011601468676
0.992327317655052
1.00575446537398
0.968917551976916
0.976429655700302
0.962141214902653
0.951628231853647
0.954771223098744
0.968452855040941
0.934708201487022
0.961413942574715
0.933856395682982
0.933171025898786
0.923693489618589
0.936558306578812
0.917396234197545
0.910928328738939
0.886647415666226
0.90117969640594
0.875912106421598
0.877265865287611
0.854070866022741
0.862425263570825
0.891509834838906
0.874910127750074
0.863470016140335
0.87329344869731
0.852146078232761
0.861553813304273
0.839117294016195
0.833517247162985
0.837496850306124
0.872749189116127
0.817283323400196
0.839856068521493
0.805260664128997
0.813450274710798
0.814788149498327
0.836486422595638
0.811072049692855
0.81947749235784
0.806306164402785
0.777286742002506
0.759728766265101
0.795646094616067
0.779793705552878
0.789646417976157
0.769069818507453
0.784340796010219
0.742026466678575
0.76334147571981
0.767444712059066
0.777348547495196
0.754612072720732
0.756332858451609
0.737314968551138
0.742139459166429
0.731718705731125
0.73609022780564
0.707890492508618
0.734031841411503
0.716721499731953
0.711269851472088
0.704535068396352
0.717233653057516
0.707411175722924
0.725211036728138
0.697028225790407
0.705918072448218
0.696267902726125
0.693670704454736
0.672413494091858
0.688300555611919
0.672847503557578
0.697210913634468
0.66151662546286
0.686155265991288
0.672447867206609
0.656156817038199
0.645715569110224
0.654083841411284
0.638552545576896
0.646820265476601
0.631904009075517
0.627116810246582
0.625743791421052
0.636831392867505
0.623738020059149
0.632789370074844
0.616730474994296
0.629565237463038
0.604491232234434
0.613638883379712
0.611643604579007
0.61319768512431
0.6017812583344
0.60069252159018
0.590043729486363
0.613406866834534
0.585951446457328
0.597005611144922
0.577987771992606
0.588438000786433
0.575561247171589
0.577083508968355
0.56668622726599
0.575494515912386
0.574673785772229
0.568104347686607
0.552270112963939
0.550685394895909
0.550943727967641
0.554542961380408
0.549049090324892
0.562790626492985
0.531534590618687
0.549593591934796
0.542630484937146
0.542903058707931
0.534933667912585
0.532958897398973
0.5255841317769
0.539399183969952
0.516665311449377
0.520468156888471
0.518379186990954
0.515574297931086
0.503058469466829
0.50693800085505
0.502954853208317
0.520304106434635
0.510443970055794
0.500755513495341
0.498633264327331
0.500641294472132
0.489629763378708
0.494875024135774
0.501681813780354
0.500458258868827
0.484141289658512
0.49821042274094
0.479847303493335
0.495253622065403
0.475105504412697
0.486224580767948
0.481314784271314
0.477741675817328
0.47470460068976
0.484749188760282
0.470645988759778
0.486122371549827
0.472681466336103
0.476698649155561
0.469897314958274
0.474961440376082
0.462355405032713
0.473933250883118
0.474040943714981
0.479582055379621
0.473520146469714
0.482892538659268
0.46403025313949
0.47467429590401
0.473599660647141
0.477146979664681
0.467093254621847
0.470791933737278
0.471838265772072
0.48338375364494
0.481769458600466
0.48453900550859
0.473006818230393
0.492882753765436
0.481079680093207
0.486273568513328
0.477863226846322
0.502076146987434
0.478560931766812
0.49776934136963
0.49396973647083
0.502854482503486
0.497958941153985
0.509184105295932
0.494232657957074
0.513840610694198
0.507695284531749
0.500197118925486
0.510855216351558
0.52137040894507
0.508235932389003
0.531824788352599
0.519780142177048
0.520946752492469
0.522348846746171
0.537985290134964
0.520393937001775
0.533804681923729
0.536789886664675
0.550286586502152
0.553592019765673
0.566428677909785
0.548712714816227
0.561098384899474
0.553239044456934
0.564647402863301
0.566720371560896
0.581727312887942
0.572802267526169
0.585654391343531
0.581342835670477
0.586786546272675
0.590282801130045
0.591977529440269
0.596574011785073
0.605081580220588
0.597460440596485
0.623556918764514
0.612645558565158
0.617867252868351
0.600769066534716
0.618992207144492
0.619494118254155
0.635316524176019
0.619048036087938
0.64114173166765
0.622375711079067
0.629675444303858
0.605739089630373
0.634392648828571
0.615416484740791
0.629509806367345
0.622369371823939
0.620412928489038
0.600740600687292
0.618066538898072
0.611910452273883
0.615121612383718
0.618323658043422
0.619174646601782
0.602598641425621
0.616429665955352
0.613878456951013
0.608211296459168
0.616304072308563
0.62962821339787
0.604233352805985
0.610068288046438
0.603679129004887
0.630010809965658
0.595647494967395
0.607532542591217
0.620215175384065
0.616906666459432
0.598663005006683
0.62275925617359
0.609481378171898
0.620156762602794
0.618502318331565
0.617846126023166
0.615828253465474
0.622573387471775
0.60700949543903
0.606583575973497
0.607367812279928
0.613376362988867
0.601961732827334
0.61818544219516
0.605356468853041
0.625519700618011
0.600748194609883
0.608065082020883
0.596898279646783
0.597007772313814
0.611789828240405
0.612590344524854
0.607838777581583
0.600860951059721
0.601803665843443
0.607669972446228
0.58526091297073
0.598046633164301
0.601751302996579
0.590393868475018
0.594421952015657
0.582991791570179
0.58969347852291
0.587405490865118
0.58174072236011
0.586749676015022
0.560335522990861
0.582745370048057
0.563193364459209
0.559644608023662
0.558459305549751
0.550176469994823
0.545379491476203
0.550981653021841
0.537793260761163
0.543806866728614
0.5366380679414
0.530447687067074
0.522041717949341
0.523445291776325
0.512260830149341
0.51581333856385
0.495189336242134
0.510303369377901
0.499985671858216
0.507760172058713
0.505000028126513
0.49740880253881
0.499574199946951
0.499175502834851
0.484542071987727
0.48115697973779
0.476954766210456
0.470476695479604
0.463530044018135
0.478451782314604
0.473699455838194
0.466135319145998
0.452159046845077
0.470482521750839
0.448288816172477
0.455089359986131
0.444917781742325
0.451400423893211
0.444880745760982
0.454029156364798
0.441999608641496
0.448329474322938
0.431762654401787
0.435435917115681
0.42902728290984
0.439911873603493
0.419751805316508
0.43479058266299
0.418185889756798
0.425780072945167
0.410015898822633
0.423262079213719
0.416196748671246
0.424043446531219
0.405676892652676
0.417016806685388
0.407473492373544
0.417802257089039
0.410233711319817
0.40384018161863
0.398785152226821
0.41089171994402
0.400135042533992
0.404166327400401
0.396873313261956
0.402788823269988
0.394604911224142
0.393547489788685
0.386236857450544
0.400648958468175
0.386505086796777
0.393465633471832
0.377705197171712
0.389065250941942
0.385881345910742
0.388027102083992
0.378466763779318
0.381253026903401
0.377522442717731
0.376191531598585
0.365498473810399
0.379233980089795
0.376670752699712
0.377892772921418
0.370712530784267
0.37827858849634
0.36305071701069
0.366683954345202
0.361426777056092
0.363106150631635
0.360432979755666
0.367644354084872
0.362297588902304
0.364575048252629
0.354118824465771
0.366128705578005
0.353253035653582
0.357790281504961
0.353318763408473
0.357220200735096
0.347846605625745
0.353998705709291
0.349146449322199
0.350279348801486
0.342870706901225
0.351847229768117
0.337498029918576
0.350347502457797
0.340995288629059
0.346598487981823
0.344428991566253
0.343221179555776
0.339268923411092
0.338633609573354
0.339274283834911
0.351594079642522
0.338747164907348
0.337796378216246
0.339709780315661
0.339518795054831
0.335585947503799
0.340543978679636
0.329921213141835
0.339455242792488
0.325738709620331
0.33096829306999
0.322060857232486
0.335857445655515
0.326242162733905
0.338838069655977
0.327894383555671
0.328549667721991
0.326621476990589
0.330077856226402
0.327315553512357
0.325433358171284
0.322420632145443
0.326773552885798
0.325554065313229
0.325837749773959
0.319821955311283
0.324642485809614
0.318578718450132
0.323576330233154
0.318735607835427
0.3250368285484
0.319508785447465
0.325184125749207
0.318238067496928
0.317004873797759
0.317751159144259
0.321452743391722
0.31833345361197
0.319153772355766
0.314386957331351
0.32077624080048
0.314287993911198
0.319130267386479
0.309206988897426
0.314372744415026
0.308746215051397
0.316162950011545
0.303496378087317
0.31228568750741
0.303625424161394
0.311191629656851
0.306327617364087
0.309306558386962
0.304677798072954
0.315693106107762
0.301937750769456
0.311158801076005
0.297137712344858
0.306003196088311
0.299273398832375
0.304820488831191
0.296900535534148
0.307429445439454
0.294901858819085
0.300915047872676
0.292260088908737
0.297584016640245
0.292047215699763
0.297135726002585
0.288469367664211
0.307625570988466
0.285679260068234
0.295726284752776
0.29029272252171
0.297256010521572
0.28696283770013
0.290226687981867
0.286828594129566
0.294257147698697
0.280891898901865
0.289681853121213
0.290334492123397
0.285996930939028
0.28402515601589
0.284496998348226
0.281471237143425
0.28211361784622
0.274776089672615
0.283232134587927
0.276361192448053
0.281893291061659
0.275334460118533
0.275485668114818
0.277454184490307
0.280065469260384
0.276481149648159
0.276025709181909
0.26546504870582
0.27164183829441
0.271023161062209
0.276354218316746
0.270806966954769
0.267701753683808
0.267625229549422
0.267961905051765
0.267373531292765
0.272410185220877
0.261209242728964
0.26711168400457
0.258082034801606
0.264359482405286
0.257021215383501
0.260199410465855
0.25656566630894
0.263639574214346
0.250248666702853
0.258832306883736
0.252412976574513
0.251038624768721
0.253118205005808
0.255424067359105
0.250098321056247
0.252929072885473
0.241923428444721
0.249625785083407
0.243868196207083
0.244063742400947
0.243663823341453
0.243119937279753
0.237087951191747
0.245901965384272
0.241658105233112
0.238030240691589
0.234694043039368
0.245188078324385
0.234413398403874
0.240303442253037
0.233896099394245
0.232914556729442
0.229778437616701
0.235191542251936
0.231845578283413
0.227131138934622
0.224312261246626
0.229762864724677
0.227349445793508
0.223355088351394
0.226383904035729
0.231326611001244
0.224732149895407
0.225463185586498
0.228066663542465
0.225551317268211
0.216500627056427
0.222507262197936
0.216344956201089
0.212535846352053
0.217999144473051
0.222121562695394
0.215565146036063
0.220344607303154
0.212433939278093
0.215141083179703
0.207577834849745
0.210057190986069
0.212035330933282
0.213134931809772
0.207822293853023
0.211006782381301
0.206563371680165
0.214406651382853
0.20774787960271
0.204437954099015
0.206590194898283
0.210297170296657
0.200504522597217
0.211211053135259
0.20613408511081
0.203307586797521
0.204578000789621
0.205467586254095
0.202600591467251
0.203022718759734
0.198525564981652
0.202576471851855
0.199094928396247
0.200752499591038
0.195901354721664
0.198897298168893
0.197715986990246
0.198165811647611
0.194212287522437
0.195893379486914
0.197239881996069
0.194995501783868
0.191057390976004
0.193761268437774
0.192238539486253
0.194485521241148
0.191791650172619
0.193373356659533
0.192529377149745
0.194988998240262
0.185606218668403
0.193732026801752
0.190953806952028
0.197746196547666
0.191304016415547
0.19136690352673
0.187291245982681
0.190832069383687
0.18627439023782
0.187248767928023
0.18133291004775
0.191909501537576
0.190070447181756
0.188137623347426
0.183263446105578
0.186487342859747
0.183785967915759
0.187362469050386
0.18644904682108
0.186528255644969
0.181680392583888
0.185353642584213
0.182397814390874
0.184275495697854
0.179895165590659
0.180059344009192
0.176792447049883
0.1834125251672
0.182789608797684
0.184263079764397
0.180799892330697
0.181914743607551
0.179376149059639
0.179107472571753
0.174017012913535
0.179387727567534
0.173794999749861
0.177792902280148
0.176263665053597
0.179255177468275
0.173869964827874
0.179247277287043
0.174510567163525
0.180593456349445
0.171020745949531
0.17452626890435
0.170581693816866
0.171310336840609
0.172753377089033
0.172707051890109
0.172353500081272
0.170433426932725
0.17070430299539
0.172748293468376
0.166561358159753
0.170706274291976
0.170409441065617
0.169822918506799
0.170392859785415
0.17294508704381
0.169585709732339
0.169986034891219
0.168522824173951
0.170734007968394
0.162281519306499
0.167873542715585
0.162863204852365
0.169112657344082
0.164111473116453
0.164700562574818
0.161718144045202
0.166066893477442
0.162778101287257
0.16677735329297
0.161032323242529
0.164106267275102
0.160071699697819
0.164249742049601
0.163028049595722
0.162894821397871
0.164777730960635
0.160026574072016
0.161301625836428
0.162544483510729
0.161068055877344
0.160325219561947
0.156931546274809
0.159221100644978
0.158463426760569
0.163403710866072
0.157122190526958
0.157790854949251
0.159762276271083
0.157196977643532
0.153540299001333
0.158116255471333
0.152747296922795
0.153542256729526
0.150406607506779
0.153598300265821
0.149069984555041
0.153413146766369
0.150940136017555
0.148644428112714
0.151276244562998
0.153435429779287
0.151498235885686
0.151691290610693
0.145228896346956
0.146000035466283
0.147113466880935
0.149489807348419
0.142851079416031
0.151014574844314
0.145180822358995
0.149855355345728
0.144803068948519
0.146210666056942
0.138844887823766
0.145639854673472
0.139971117363678
0.143045382504888
0.135817390346045
0.142465802433261
0.13915525058537
0.142472823854337
0.139353074635848
0.139282671840013
0.134047416517198
0.137108427738133
0.136229335239842
0.137861717533735
0.138257685180935
0.137072083876949
0.132217443647971
0.138329804690366
0.136044913113795
0.135122391595597
0.132215550025816
0.131361825222392
0.131609900994013
0.130072476972569
0.12646678614464
0.132480864127371
0.131814085152579
0.132422614383994
0.128885240993723
0.133185207157648
0.128419204480456
0.1300541680177
0.126888575230268
0.127863405718663
0.125252544634665
0.129875048538382
0.125401599936028
0.12583473805315
0.123410830963191
0.127287909401265
0.122694666463853
0.127172694216262
0.122906433360795
0.124358723997006
0.12153678215939
0.122652273514783
0.120161629138594
0.126355067427398
0.119676181145438
0.122266414168068
0.117577393836869
0.118316057499406
0.118970994543125
0.120523073443005
0.117841908000705
0.119251822540488
0.118401499358913
0.118280479452007
0.113483832003899
0.117949599051668
0.114425180379182
0.116191806952536
0.113932917393927
0.11450571212387
0.113497095850749
0.114854907148628
0.118447240371491
0.117250401284749
0.11597853163015
0.114337562625684
0.113170335152686
0.115791605058456
0.11187364870159
0.115779565771
0.113475176996686
0.111625229573395
0.111076528525626
0.112026820231327
0.114408620949567
0.114019679207966
0.108394190295529
0.109921441147888
0.112622123054437
0.109440654582526
0.107664781828491
0.111720980337804
0.111081517713314
0.111240871448609
0.110232724361835
0.110046568381419
0.10634389790866
0.11067161635278
0.10710494541721
0.112127480335286
0.108836440382205
0.10883449989866
0.108033661825105
0.106898834880612
0.102004394672724
0.0998550579323775
0.10444256622625
0.112845589657528
0.106262414803653
0.101682866117988
0.105946427998801
0.106783543783552
0.101202680103092
0.101346771249217
0.10781466918271
0.102203299978072
0.100633229205572
0.106453879307918
0.104336370605652
0.104195190331682
0.0977658452419721
0.106099245300007
0.109140358008828
0.096693143612629
0.109838335680569
0.104027890880495
0.108761726782248
0.103137741772181
0.107552081096569
0.0967919366787683
0.108962681590061
0.0978426274629102
0.103783676977201
0.101448915501934
0.102710224980811
0.10335499946303
0.109503093094696
0.101538591455155
0.108874755363796
0.101230511893112
0.0989878351502701
0.0972803685737687
0.0874892780032978
0.10039515699587
0.10003416660673
0.109664135353021
0.0991645560741854
0.107476709720043
0.0798121201852316
0.115074586105016
0.0894984143109335
0.120362600309552
0.0761016466506591
0.118143527467577
0.069207853938577
0.137720838725424
0.0665310968638812
0.131158021739554
0.0673598744383184
0.139822422249417
0.0620000035160138
0.13202808114271
0.0734831689941485
0.121770080099057
0.0775359961643694
0.118187649909442
0.0890553546040595
0.108532434835914
0.10395561254875
0.0968470721053568
0.102770593819004
0.0961992932748537
0.104098620483556
0.098106543862783
0.0969654032742381
0.102549020579927
0.0959868256109737
0.106571194360115
0.0918805229242009
0.106034570438964
0.0923515738599488
0.102919010571151
0.0945566786942251
0.0993881461338406
0.0984198570703728
0.102641315513825
0.0971149048982707
0.0977546525858736
0.0974476642829537
0.10214926234424
0.0962404124103935
0.102935656722586
0.0961868512251682
0.102628180734578
0.0959400808986615
0.100576447024573
0.0963190650954589
0.101691969004727
0.096226419964454
0.10261534090404
0.0983228003225958
0.104257698199953
0.0960981969347524
0.103277377574439
0.0979050889647854
0.101186607979968
0.0973845023112181
0.102527120622976
0.100461891649419
0.104774736277777
0.0962841393751318
0.104289309046512
0.0977413296813537
0.101863381346506
0.098672307619878
0.105043820647969
0.0962068924712255
0.101507143064336
0.0985264566183625
0.103707216418693
0.0977067519818038
0.099266591132871
0.0988443902216777
0.104508260745786
0.096833420762818
0.103970341156625
0.0969087528811659
0.10576305000794
0.100939479952822
0.102851896801882
0.101651244207416
0.104209270330261
0.10201884180361
0.105150392129688
0.101002647226334
0.103855635371021
0.100959204891183
0.10159331312326
0.0987774149485668
0.103929985733537
0.0995091245791261
0.105271839299307
0.100746412314208
0.10268928945344
0.0998821948362262
0.106015798254463
0.101148395645697
0.10389454822707
0.102326384119294
0.103453778472961
0.102106432420487
0.10187561077608
0.104735458952588
0.106295512381443
0.0996698483412164
0.105631947080065
0.105609409275104
0.108922880057793
0.103691050736424
0.107935211356108
0.105264035022123
0.105594555225371
0.10108396869644
0.106302790876751
0.102787309855789
0.101820948515414
0.102981517995994
0.105574065190119
0.104666447969801
0.109191028791521
0.106931021647653
0.108621158043082
0.106064928574032
0.105781209464904
0.10884726137443
0.111963740496814
0.106759186786725
0.109341678082859
0.106639724087429
0.108924545892713
0.106807502956779
0.108341324751114
0.108040386114566
0.109457418097339
0.107337969893385
0.109029512787744
0.107716309241682
0.109938548704262
0.107785332501954
0.112279620434512
0.108601468517172
0.111605800281862
0.108360137075171
0.111941283090094
0.109296538791374
0.109753260452337
0.108291707148884
0.111660910705677
0.109714823643215
0.109287015953899
0.108569098061349
0.112542065278976
0.109295208358297
0.110194035913284
0.109096919509342
0.114342003674437
0.111082662268348
0.110601587340483
0.110506590989911
0.113515011668293
0.110974273756569
0.113768505473436
0.112218262738423
0.11328945423507
0.110887656563452
0.115715023421134
0.110282802104584
0.116611946832479
0.113968355147241
0.11673494435516
0.11319683724138
0.115306611277977
0.111518871617505
0.11599455728416
0.115566372958093
0.118761893626622
0.115584538404084
0.115624445612196
0.115710081385833
0.118009223048313
0.113320201316392
0.118167802620373
0.116119498032054
0.115038479025364
0.114802377870772
0.11685765256125
0.116137455827585
0.118619674550686
0.116113804321156
0.118550867953402
0.115113244625389
0.118075103787563
0.115517678306177
0.117769583419483
0.116689327365777
0.119373411309024
0.115185153887011
0.116109883936293
0.115060622401211
0.11989359259576
0.113830496353546
0.115304591310879
0.11616783564964
0.118015187140863
0.115332552075461
0.117721424799035
0.115578160467503
0.11336067737387
0.113111354662966
0.116845419350068
0.112530826717679
0.115949255581269
0.113374825942081
0.115185107751984
0.111643330933071
0.115536651201045
0.115130094024875
0.114797944597974
0.110970035305746
0.114232625541647
0.11209303493574
0.11260712249676
0.113789495359574
0.113198292280918
0.111583534465325
0.112935055794692
0.110958170133812
0.113525666273106
0.110937606619797
0.116101317735161
0.112442960552394
0.11255421813671
0.110456798536805
0.114784593617851
0.112816207319684
0.113568363487904
0.112936222090709
0.112631997151971
0.10887164730607
0.110801586473134
0.111807961344107
0.113678617753532
0.110284669480746
0.113209292180953
0.109816599635694
0.109763342141406
0.10793003554259
0.109535719114422
0.10599379208398
0.111229386680855
0.109430675896142
0.111444314798314
0.107978515249224
0.109216543271337
0.109658774735474
0.108927454049501
0.105432247247982
0.11061815270173
0.1088607424166
0.108509387727836
0.107449310406869
0.110428288171964
0.108007972023852
0.10902049065731
0.108843958062997
0.110091506704535
0.109025354966954
0.11008248433546
0.110744265795432
0.108623038216677
0.107840548570536
0.108177706320374
0.107348676424998
0.109292026159137
0.108594786255809
0.107321109502484
0.106383889982042
0.109273374532645
0.106002282977414
0.107622585453059
0.105943228506041
0.105410501647076
0.106557618326853
0.111455198904571
0.104136901662997
0.108189028648354
0.104840153711196
0.110821458719142
0.107053293777832
0.107125513900396
0.104796144956253
0.107889418939674
0.10250029149151
0.102335623364913
0.106373054484004
0.106483724894874
0.103293711608411
0.104020238158057
0.103827838083653
0.104446174489594
0.105629296333612
0.108192840597314
0.105707633268774
0.105648996188249
0.102890548537793
0.105141847182139
0.0988717657624454
0.103775050827784
0.101914631207342
0.102213819023455
0.103534615952984
0.102298850594274
0.101295700208041
0.103198505193182
0.0997155161492193
0.10221752874474
0.0989125746332138
0.100078681799946
0.0998878526601264
0.101402110179532
0.0994185472395197
0.101342926776316
0.0973998033793099
0.0992401773025025
0.0962914481896446
0.100865807762993
0.0974918963403293
0.096988234873819
0.0941831940396062
0.0976110163526978
0.0991301387116568
0.0990777929624331
0.100452433003422
0.0957110690081009
0.0975549183372734
0.0939046630940754
0.0940440835201364
0.0954654442401316
0.0934718512086856
0.0922781119020916
0.0935003849169286
0.0953183840632401
0.0928115571927595
0.0952864747079507
0.0923074296670619
0.0924285512300173
0.0924018310759009
0.0929373430589694
0.0905759665195203
0.0900610731823486
0.0914010240294304
0.0898046479320437
0.0893165597719607
0.0873468467534072
0.0883147810938834
0.0876002946182197
0.0892277905324407
0.0890040089298237
0.086790106226937
0.0915684484345389
0.0941765013163495
0.0910628113662749
0.0883369668367589
0.0924476331571825
0.0873218397818568
0.0910132560559791
0.0867817515201335
0.0888746658110987
0.0877617719048542
0.0915895629015638
0.0865302141846253
0.0878606449126597
0.0837993073902359
0.0867843121621741
0.0844241057594823
0.0876335055993706
0.0848875701029974
0.0873638151002848
0.0862098292839065
0.0853196199300036
0.0854878078166489
0.0870003654821454
0.0850142369182151
0.083638987959461
0.0835828703763377
0.0853391640790708
0.0852576007836655
0.0891111243227639
0.0847616789487268
0.0884784215174506
0.0838130723943008
0.0845304889697095
0.0814261309240756
0.0867950336749953
0.0830884293953211
0.0834753627707781
0.0835349208364987
0.0840783286981828
0.0809033664362517
0.083436013187647
0.0817781582472796
0.0807754872185396
0.0827394956679321
0.085774111854928
0.0810008529148248
0.0815287402006885
0.079264060489981
0.0841769620363996
0.0805000193166057
0.0865304071134651
0.0803836926667224
0.0822198650344097
0.0816350369771884
0.0821809811517798
0.0860960480623698
0.0778294147114644
0.0819524359130371
0.076559162064329
0.0793412244315424
0.0791872636314467
0.07897909385585
0.0776011980982401
0.0769493542904335
0.0765334318427312
0.0805717792284162
0.0787987636566598
0.0779369394247962
0.0806611972299074
0.0846355478505571
0.0776125461281001
0.080046760662928
0.0783748596484078
0.0783666592058409
0.0795890289797348
0.0880751876690483
0.0830244294442668
0.0823411326925406
0.0767174847369021
0.0884115034055132
0.0786230307055335
0.0873589210438338
0.0793233442610883
0.0799903434414699
0.075964095641675
0.0792965062914539
0.0793086478150762
0.0756087990401052
0.0815220808455063
0.078753383446379
0.0816501928844322
0.0766270783394673
0.0823539908275867
0.0791931168747363
0.0788965985647632
0.0784838316023476
0.0788768452451808
0.0775990199542608
0.0774228416611804
0.076647420871194
0.0765909253515388
0.0791691649410531
0.0783036688039364
0.0760189651921537
0.0803359140220006
0.0795147439688916
0.079060113280771
0.0756935667527747
0.077449095842506
0.072392017438638
0.0813696324428473
0.0783665975769487
0.0840924028677474
0.0717226150760501
0.0803532279736332
0.0750778237584627
0.0795168369763843
0.0749045586377448
0.0784399055189094
0.0755200209453851
0.0794521170653411
0.0764206533990495
0.0766908627320501
0.076464751037955
0.0778742388497784
0.079175398344157
0.0777737096140905
0.0776239630258514
0.075979481656137
0.0797978818325985
0.0772251874345016
0.0784680016020046
0.0811442443694937
0.0841403079854794
0.0878204644019423
0.075793528321111
0.0838411518688489
0.0768656202497454
0.0818051018983885
0.0749354256960852
0.0811073746799453
0.0747099661190151
0.0798035302527466
0.0772459124325921
0.0806394292026521
0.0729897017105936
0.078632583201396
0.0743111531305755
0.0824378930997917
0.0739977572750792
0.0797896798940451
0.0696236001459466
0.0818951182288126
0.0726859758904331
0.0841305344680488
0.0735414324878949
0.0892342428810599
0.0702622641919505
0.0817446936849165
0.079440294638185
0.0833323049693248
0.085454635086947
0.0749640016948484
0.0811529948467851
0.0771449088777156
0.0762457934645827
0.078140300522697
0.0791045270777762
0.0804326783280324
0.0785042632304569
0.077735813431159
0.0825751663654601
0.0774511954497994
0.0809406454527417
0.0909269879973652
0.0877651675647707
0.0930489179738154
0.0820167957581767
0.0757918495623149
0.091648894794923
0.0838778818177825
0.0862960098455274
0.0779820640501254
0.0855917320205958
0.0786712011861544
0.0832212111864123
0.0783531310138712
0.0824058231999577
0.083348977239844
0.0793813218972007
0.0830118454170742
0.0821484764155878
0.0846485798957575
0.0816174516215902
0.0828151243209855
0.0831009288381948
0.0859647930482901
0.0842551971309413
0.0851020591900669
0.0859819158655122
0.084996118344921
0.0832203951636614
0.0847271531696052
0.0813808304674025
0.0922417682068372
0.0860299937903328
0.094244688849212
0.0910998447770101
0.0890540024043303
0.0898871290575818
0.0851511867445522
0.0918796492328543
0.0905536964420978
0.0844342992437709
0.100883310925519
0.0864579941355031
0.113291242714712
0.0824874422570147
0.101223325982362
0.080472514473082
0.0985113266213379
0.0800826939787586
0.103351820357998
0.0894901131872588
0.100157769269222
0.0875724328777134
0.0920541122244194
0.0919192364581024
0.0954756145735623
0.0961952123817531
0.0929102492988251
0.090364889237405
0.0962240648355528
0.106735243901667
0.090836098073397
0.100404529981344
0.0871902249438179
0.112585122591287
0.111202931850452
0.094537439004209
0.106155910692188
0.0912569390869225
0.11034310658454
0.0969149226855441
0.100080829055516
0.10211091557013
0.0965263312903485
0.110515769188347
0.109111100758659
0.105394105055212
0.106233245048377
0.0979598376515157
0.111443406864188
0.107972030919455
0.110857660206159
0.103823296468475
0.10869017379216
0.101774711060855
0.112757449712562
0.13244168571658
0.112732461210994
0.125729049270164
0.112612207550067
0.129747577383484
0.112282720759636
0.129159589267269
0.109954449785352
0.13097023337148
0.122422970188612
0.123984908629187
0.114783371577394
0.135547054592069
0.121562803842475
0.140556348249771
0.124215079935011
0.131604186907639
0.127221527163425
0.150634664764693
0.143611028987483
0.152212630898863
0.131544099024893
0.142173186182721
0.140241067843935
0.151832414810894
0.141064856597931
0.145007149752939
0.142002612135048
0.141807470026383
0.147998639555029
0.153389230766644
0.153819572987251
0.160527388901246
0.151740781069097
0.164639026722019
0.153300550501822
0.194026092758979
0.161027164978378
0.174592929100007
0.160141338593476
0.186784425304242
0.174927651801011
0.169464603203747
0.17346628225751
0.178470178218024
0.18541309400908
0.181011792309389
0.181452281970894
0.19228616163348
0.186391708910043
0.219859216788464
0.182751138062535
0.214081886681314
0.176220951323328
0.232543692736288
0.20677604614684
0.235420875178518
0.218871093631731
0.216116635690179
0.24821087056813
0.237062581254746
0.250193791776406
0.242810142549413
0.245163970021716
0.248353367674508
0.257896154744874
0.267711252711686
0.273328798202332
0.283372720709628
0.275740651680365
0.282047293164299
0.292785654743524
0.3267578107317
0.350864313023872
0.323828038004707
0.329954114395809
0.336599107894035
0.346771104196758
0.350727166865939
0.358591775275802
0.342744475780038
0.388650861657324
0.382217428338759
0.411494042097616
0.382058667732883
0.419513182896938
0.40822827474639
0.420190007061238
0.442729801571492
0.449150172398976
0.450457073244641
0.434770354853963
0.469102263021977
0.457865883809726
0.475628728289246
0.486538756450417
0.502271883970268
0.49560053824347
0.504789985046844
0.50622720860497
0.512588612104467
0.52403628649198
0.525589331066703
0.536280239157699
0.540109150713547
0.553368763903022
0.71185809718861
0.563850716092317
0.554274946831893
0.533997452134804
0.557127562092464
0.54648351395066
0.561759304579548
0.589495129555687
0.571697499985731
0.571570598224606
0.577416752744685
0.578769570374253
0.559289155624992
0.573003631094829
0.580046299305454
0.560305752813438
0.580008379105415
0.560803483496172
0.634035446510511
0.596664768869468
0.596247477219335
0.561448108981638
0.578955121729391
0.569375465018483
0.584157917475936
0.553139772396831
0.581291966432493
0.558893664209667
0.577264948482837
0.547129664800705
0.537124094582684
0.558003338224842
0.554303133731617
0.54090655062847
0.534505980387857
0.521869987487646
0.536475157327978
0.500648724517265
0.568121576196477
0.5393069726753
0.520613336287004
0.503935699198628
0.507489960439775
0.494309816095832
0.501137353736929
0.491539282580533
0.505313329537614
0.48170398136677
0.493336618427641
0.484746129089651
0.479583244110697
0.474274345502281
0.479611851672651
0.468664543261411
0.464584758647657
0.470238474750498
0.461706431557777
0.467297501281014
0.457634727794975
0.454849575271336
0.452376917097119
0.450574405288411
0.452045426143621
0.454370826429228
0.457937321353625
0.452480080476327
0.445810697383294
0.452975755762244
0.443906785483692
0.43800211055197
0.440258262396213
0.445129513947944
0.446972856952947
0.441911916797976
0.440821696077387
0.442004158444978
0.436105396231207
0.4354633269731
0.427228277217678
0.429568931934462
0.42001881920096
0.422524397756928
0.484209317843491
0.428564381736207
0.438208988492397
0.406548006447585
0.430555095480256
0.402444302447391
0.412305708027511
0.43167647655201
0.425578025369756
0.41359488088949
0.401193736735784
0.390590353773266
0.412927445555594
0.392468609791987
0.396868219933378
0.383627346710111
0.377407610298578
0.420745335938783
0.379069466605134
0.471838014420746
0.404013926991676
0.397932043575929
0.35777588516386
0.38833928344753
0.376198685191438
0.369410874681402
0.36359121013482
0.352116575235104
0.379882388193063
0.363720463282125
0.366155657201569
0.345042324851467
0.344955242585484
0.366848608772584
0.370529797536181
0.343672745422566
0.367021649829693
0.345783010765541
0.343369453271641
0.340985760744511
0.381728853985776
0.337792781900513
0.326067056325703
0.327463689652077
0.319236542073526
0.329522110354718
0.347199372118756
0.318389321497056
0.330294237472813
0.307720644669847
0.317440680457847
0.298006029669827
0.325104443838398
0.288755393348091
0.326345471818185
0.316598766109031
0.297397623316433
0.304332321618538
0.29529228460652
0.324898921145028
0.323159029622198
0.301118679792532
0.280591280415688
0.321786042378102
0.298401980729736
0.299268659029705
0.297661263063793
0.281202779965364
0.297148452169969
0.294586899167928
0.280283840713465
0.29659033253315
0.283697735336653
0.302415790478961
0.289193303147217
0.309871957084326
0.304077393786286
0.27412294489746
0.276469723264819
0.273776388542389
0.279450864181919
0.278183210460287
0.265870571202944
0.318956727683646
0.271467958213707
0.292640167251565
0.292219920250981
0.288630666995918
0.292882370287033
0.291082731398713
0.290724428944253
0.294204428713528
0.298696367785751
0.329724655774646
0.297757144046737
0.32374849938713
0.316302426265121
0.318820090088778
0.313922470284074
0.330373686321115
0.320409554681665
0.333851679948998
0.349875349740369
0.344554708828077
0.34984430343291
0.361774286561508
0.35175856706539
0.394695503876421
0.373425112949245
0.378001338306429
0.411346193050929
0.396624913322931
0.451635098894722
0.414482253516718
0.430839125910044
0.425929255446472
0.441618655918875
0.444818313298187
0.434734008266196
0.467242774353289
0.471490832473772
0.462762991699719
0.479654060514222
0.473966453211992
0.485169958484518
0.471775395615575
0.51354315328301
0.474965969320597
0.575055613787939
0.516410302710058
0.53460239868863
0.504174331522902
0.519371487253984
0.519161439477809
0.519939326774143
0.523973840634053
0.515319255574594
0.53187109716536
0.54084581533735
0.524588375348533
0.539592868229232
0.532584016687088
0.544547100665485
0.533699834778001
0.548656153821198
0.539917534488612
0.553155331060389
0.56416284116784
0.548444951964942
0.558038459012026
0.628570801358349
0.572274396423718
0.581336187280984
0.568955429834949
0.60100628292396
0.579279878409868
0.591636901185592
0.612737390802771
0.603970159610395
0.605422405863686
0.615587172763385
0.614264355702278
0.609649790241553
0.627325252094966
0.643622809260066
0.60181742774472
0.651971425121726
0.605930391792401
0.679651800284221
0.641104620291233
0.656274479711994
0.657977407405157
0.657751451645943
0.647875175295603
0.656775630456643
0.646193986984739
0.654661248260396
0.657276526754134
0.651491727830221
0.658789314473697
0.651733239405841
0.654451705363975
0.660829889775344
0.64747860239315
0.670312520744395
0.643207083696088
0.660300296065115
0.637034547476166
0.650892904947417
0.645358582534164
0.673644631863291
0.653781746602975
0.655189201794873
0.640064092366012
0.658663429026137
0.661380774315178
0.671193824420852
0.645983437542587
0.66410480074221
0.631696473365371
0.660093827413634
0.636711117516074
0.654279589430649
0.665110087074727
0.658369431631886
0.653271723626554
0.660227661412264
0.667700557744175
0.680666314484732
0.67871839353122
0.67752005537498
0.690713025566318
0.682108397144188
0.695628384046808
0.691520899752504
0.688181240700442
0.694229102915668
0.70592459021413
0.710421801783223
0.685894055028301
0.691325149798435
0.691860173727509
0.70080544988361
0.686539154185327
0.690977667381021
0.681502474481947
0.690200020223644
0.660185733560319
0.678833688416356
0.686715950820544
0.660393962525157
0.670487078667744
0.657520445877438
0.653625343406035
0.650573158176459
0.647638732999968
0.641537242797441
0.638563811816197
0.646331222022936
0.621927510330747
0.633660410709423
0.623983036582511
0.629571898786547
0.628233623799446
0.626111352717193
0.61895286919887
0.623382109392202
0.618257415801307
0.620729596787011
0.613605518531756
0.619808728257631
0.61400140406178
0.616209054519091
0.625270481825686
0.615335234610881
0.624862517405427
0.609687845131143
0.618486382116824
0.620676151155756
0.615642139266628
0.616599048974192
0.611206035104632
0.61618183703561
0.61481064650994
0.61427796561145
0.594683498714549
0.608445602538188
0.604406664946123
0.614880564711028
0.605937086574102
0.608039154993287
0.604201201512118
0.609966139570453
0.604088418001849
0.605266140431637
0.601019388657152
0.607572175923872
0.600373154751163
0.599340068824012
0.595515352038933
0.598622666684246
0.594747071837207
0.602029804643082
0.599973490124005
0.600794425472167
0.597809672876781
0.59207755467669
0.59511857600451
0.590988880993652
0.591951790819659
0.595052003982377
0.585293730665006
0.58904594465908
0.588077218959635
0.588971242752488
0.585101204943711
0.578402664860898
0.568947901079322
0.572075403331709
0.569865480860611
0.559123827045328
0.552021931642669
0.557386526619431
0.547099185831091
0.544888503175615
0.542119544666667
0.537256458987085
0.536399856753592
0.531529683980544
0.531953557085543
0.532535245422293
0.518790200045269
0.526559874651586
0.520339243272238
0.523491967821873
0.525474824572717
0.517072172348739
0.521516599405449
0.518701456408245
0.516355916158929
0.520075661126483
0.517166748472695
0.525749906690209
0.523162415951773
0.523087631392021
0.525396839718628
0.528378451146912
0.525514373173242
0.532035825659707
0.531216716495989
0.530096559015321
0.531605619839934
0.539870168512282
0.530938528106631
0.536920561624597
0.542164741849941
0.544263836084657
0.545051564279588
0.547001655190673
0.54990534640958
0.547661437252261
0.555117075737021
0.550770340374773
0.550902004765002
0.555178536600575
0.553259729884887
0.55118948355823
0.55193504591946
0.550470529262797
0.542206200459389
0.545657107505213
0.54583868008766
0.54514506977959
0.537369922234075
0.540964753841927
0.533073436571908
0.540685905788423
0.534317953835917
0.536088441388124
0.528163294768661
0.52933269732624
0.522688030642739
0.526181389583722
0.520660657580206
0.521316630964098
0.520900893727905
0.518909838476096
0.51749525306222
0.520473310114988
0.516005850669631
0.51301978706932
0.510102183667525
0.513541704699316
0.510588253938557
0.507072470746739
0.509086565025244
0.505043799293144
0.503284394184964
0.504718165784995
0.496268048132169
0.499261537764727
0.495511496624572
0.493603829958555
0.486475228839149
0.485947450796476
0.485121839582306
0.483977732328161
0.479144640773199
0.474497017442691
0.470155322892829
0.46563282678243
0.465036586970126
0.465791759177234
0.4598538989639
0.460944102795337
0.454501704696395
0.454152015335533
0.452690429229557
0.450825841600268
0.450994411468372
0.449679173096094
0.443812194424321
0.447698344661467
0.449790249104622
0.448977784180541
0.445774864171125
0.442004594595677
0.440411636708774
0.432526892883427
0.43183501154545
0.428563369850048
0.423228364283598
0.417335135776977
0.409435462346641
0.402880712325478
0.399226465449343
0.392037670180739
0.388555131836459
0.387090970961911
0.386881478975841
0.388604675409849
0.386781022173219
0.389452412098726
0.393913997482896
0.402695337146994
0.4116137685839
0.420780229431088
0.428481763391815
0.442529171864175
0.45776455754553
0.471627063683809
0.489935416865171
0.505793098372685
0.521820565718529
0.538121569090352
0.553472766364283
0.572617689447691
0.59021762764359
0.609669957371839
0.622977475471358
0.646439091918038
0.665257665321417
0.684314231047021
0.708616931605827
0.720507679693223
0.741839274337688
0.762382023650469
0.780149913249677
0.802951321226412
0.803062802615678
0.827739263531501
0.835636625821797
0.854846179242347
0.864640001373482
0.876916833257197
0.884312775601836
0.891093388003623
0.897077329942951
0.906123713888592
0.90083698082409
0.904394899018296
0.908697981649599
0.909704465835923
0.91103360599249
0.898740216294512
0.903176371449642
0.904210459463426
0.89232474749203
0.89452852410347
0.894256235297471
0.892588842749048
0.899273679736547
0.89955221462099
0.893178281940011
0.911895684966017
0.92168690107749
0.917175236314792
0.925291486420654
0.916849620544583
0.926796091020189
0.931992058697929
0.941740893124939
0.953875862112366
0.961045723439836
0.967768981596994
0.981140874038834
1.01059540476223
1.0044929982731
1.0294985862751
1.03577131742493
1.04298612669523
1.06558922468017
1.05829427952801
1.08352436879509
1.0821159831412
1.08042087460951
1.10079561355237
1.08938766636957
1.09123512914019
1.09236725710991
1.08755493267699
1.0690382881485
1.08347538300539
1.09233360650855
1.08014654192652
1.07150691195818
1.08654031415296
1.08190683249753
1.08726828004734
1.10466802663731
1.11321243039518
1.11594671645776
1.14915719315478
1.15013819535365
1.15263481734869
1.15469890931156
1.18394331321101
1.19745002979742
1.19632701596635
1.23269337651029
1.24590742182898
1.26684050788721
1.26237432233806
1.31168487180552
1.29998056451872
1.33843380577257
1.33806358761582
1.37533250390132
1.36635918607289
1.45470609891778
1.44088871842166
1.46437050943845
1.52335637958469
1.58485283505215
1.5203777922707
1.53287871489054
1.57119436990299
1.57044360839403
1.59683721772229
1.67285581046142
1.69126417741829
1.74189914440151
1.66068480739506
1.68926540745559
1.66555191074513
1.74719749971374
1.69915465200899
1.70002285487902
1.65541038838079
1.74378993193859
1.78242384524081
1.66908875829176
1.71758049320759
1.71245006279638
1.68425444972945
1.74281851254797
1.67861830664817
1.77735836962485
1.71605971961674
1.67725212320833
1.72821769683647
1.7169931138935
1.7246271692129
1.89211509337269
1.75360017164696
1.75474528812412
1.86713182245084
1.87760306752958
1.77598855976975
1.96220309997911
1.70277777466803
1.91881586337779
1.8910846891549
1.90243784302226
1.87390173795946
2.00146389717262
1.91656394976942
2.18716075099109
1.9182698210364
2.12094854948014
1.98643835206836
2.07408627777008
2.22785650361734
2.18304475417867
2.10495019554184
2.25192840177397
1.8616207324115
2.08785825075499
2.08797534528189
1.89832450050426
2.01283233705286
2.31766420748598
2.05978333742696
2.19173974791391
2.20178773920195
2.10125071089002
1.99629511461943
2.24627947455759
2.26716776745485
2.43012401857899
2.05994008544545
2.68945012305675
2.16792188638206
2.21708766879042
2.24535584225226
2.38753370434362
2.10720839991525
1.94317977894774
1.88170229279853
2.10445031445754
1.82587289961064
1.87092182826199
1.9379717642663
1.87522292543562
1.72663543825357
1.80629530324236
1.71127460927376
1.79693200934228
1.66049729239127
1.63015331802424
1.61343016566837
1.64238970784995
1.61464744356976
1.74278497590523
1.67614679098736
1.64078148307516
1.50419290338435
1.49268154985475
1.51372834861187
1.57023760660462
1.4669047580776
1.46999203573638
1.46324923005337
1.45468057359245
1.39425219947218
1.33349244288306
1.32098715567341
1.30354688150393
1.21497581396751
1.17128596481266
1.15385082875508
1.0990060898349
1.05633975613125
1.02736818642672
0.975339491583505
0.95367718088509
0.904367256677003
0.855582962540479
0.832661042877565
0.80234781712318
0.763803978459944
0.7497936156979
0.718712121041852
0.68315576464423
0.662899222887001
0.65433944844925
0.634036409072521
0.609155907679667
0.597615831754787
0.590759213060762
0.566195518232603
0.564341541553226
0.559807002926716
0.559334451829337
0.556285780036179
0.545754200647386
0.53936966871846
0.5424403565577
0.536871164776552
0.538895262591249
0.537382733803728
0.548399935224384
0.554410616719145
0.551407604293369
0.547177897565468
0.553422655481678
0.55303971593494
0.555908066241579
0.564907430896093
0.557184499466492
0.555338281652837
0.562276474120469
0.549118138998505
0.557076378270591
0.54296027925019
0.554032777823546
0.545289950835408
0.550099125378085
0.544534496343807
0.541776926159524
0.545405345431159
0.538102412704887
0.54396281682817
0.548895766698867
0.539496829875522
0.55303393427938
0.555386661499973
0.554622712712367
0.555893274683456
0.56467894703742
0.560648619351545
0.560446335550817
0.568257938398496
0.57212694016336
0.567362435749745
0.58203573176074
0.584689321984197
0.577244040239322
0.568923292859849
0.579703346768969
0.582537151851015
0.579977733422684
0.571529961072378
0.572988509467674
0.571787724360049
0.578512503044336
0.578835311495716
0.577343323853668
0.581269358463238
0.58952561312849
0.590536366641687
0.596873121071067
0.607294068524265
0.623419059618109
0.626495513795659
0.645626632755938
0.643438121532634
0.676498663201954
0.6837883487717
0.699084224900208
0.703405440766758
0.714905002778132
0.71368272390037
0.743297922601122
0.738506543502352
0.723291131130798
0.716302946498371
0.718189202493075
0.700862280947468
0.694326964133148
0.678145014946657
0.685438516339493
0.67137980058455
0.656461639019069
0.657788066525693
0.666391815023739
0.655938267197403
0.650734239920901
0.661099626244253
0.666379216959968
0.664070445728038
0.664750416651416
0.652823469776039
0.673206802434382
0.654339740472358
0.657690602514617
0.653224322996175
0.642180081587304
0.6304428975877
0.642611258706798
0.643499130116131
0.635149482215727
0.628989442500468
0.632242086685116
0.631945280663672
0.627619328104983
0.625332306069592
0.610992107777733
0.608281264750525
0.618813470823519
0.597756762415776
0.610057143971243
0.597073220439685
0.606391159953586
0.602522270923959
0.60372259164604
0.608140438361498
0.613382098392343
0.600859354222017
0.594847241700761
0.596694282872896
0.589871750831173
0.583031705875439
0.600853653379636
0.613654718068443
0.589091914469158
0.585226454019676
0.601961842985148
0.574451949857519
0.576205783813822
0.582641338154869
0.571083507324498
0.565031198364911
0.579195327411045
0.574933208776777
0.576392350448723
0.577301425472054
0.57106617299432
0.551356321031465
0.569491305346943
0.56645758368365
0.544167345456748
0.542106789186719
0.559781760473911
0.556617220419754
0.5717408446411
0.567005089580677
0.585512350260983
0.564988776471816
0.561914008580246
0.562340936881797
0.56935660792255
0.554483427970484
0.57436099053038
0.583239552629831
0.571523644270689
0.586359695196299
0.592715820202228
0.564547095069377
0.600606504318164
0.593635005813317
0.577625809151971
0.580046614823595
0.611771706462792
0.611350379259472
0.61068346277157
0.618911301462314
0.623673577795377
0.623812005176671
0.640994547438377
0.648730236252449
0.647971802705264
0.661334066918622
0.673917513290624
0.663291408694404
0.676999499307398
0.694035887344848
0.721210379890636
0.721942841994222
0.755200986728081
0.765895571294431
0.80302645075818
0.75314240387945
0.772766098426768
0.872274134868786
0.910181284926309
0.880370744219099
0.846925943753199
0.884871183818868
0.854995374075038
0.876217965197058
0.947129754250256
0.883786596814749
0.8669533862102
0.883066011557873
0.865028751351702
0.831204679925555
0.919391065354891
0.944526764841579
0.914199069212173
0.874113536898532
0.909295187178002
0.93573112967367
0.876056169883866
0.849709619729868
0.933805434668795
0.938726078343968
0.944679684603449
0.960110544951639
0.919469383939189
0.898101362717293
0.91665833815982
0.903979292552289
0.940424460742373
0.891062622990239
0.909303274876075
0.933916056777684
0.85512154181862
0.840040379396004
0.881273651507835
0.81630810623798
0.787628237518332
0.850056971686846
0.852661139157727
0.874755931682203
0.872077740121309
0.876123734493619
0.875930211768385
0.803891688115634
0.817387282686261
0.811377882662825
0.80810768249753
0.845751671143989
0.898470453660004
0.884600409062085
0.835209708231807
0.808554757225108
0.834943906683139
0.860698200397266
0.830506258750031
0.746123300143161
0.90051362997188
0.937882853370034
0.881391454916084
0.884874383771931
0.836781780835184
0.828231796917818
0.868034345134059
0.859098591073038
0.877509934796052
0.879341384962356
0.960422953057901
0.905579332373429
0.932957806100698
0.801376874565077
0.88820399830018
1.02782680027551
0.931843729935746
0.953187696707607
0.889461116779595
0.857715132550049
0.888624105543536
0.912004093918153
0.967439877667153
1.02055042025408
0.956250972272035
1.0887136797177
1.31097477884815
1.0235058485252
0.849124159872429
0.990972217532548
1.43984420783036
1.15837334805566
1.05820581634238
1.05130157957163
1.09696054364247
1.14870598267259
1.11635347189834
1.05287894170734
1.06144150315124
1.11407012676255
0.993783739284367
1.15280884974231
1.2256663457463
1.17440077144815
1.04922429581028
1.06476764103322
1.22450024745829
1.00773583198711
1.15378528528116
1.26327876232288
1.04915456591634
1.16985763499898
1.06701076718272
0.923457796279209
1.09366149018388
1.26598686716203
1.11236648748446
1.07716641250922
1.9884343582081
2.59418254696163
0.977860264013687
0.991577175733699
5
1.22548183992877
0.91588912044644
1.10146857419289
1.02355772343489
1.04345119824171
1.39502927103502
0.952477445501416
0.963281424916278
5
1.17906719138677
1.44764191020894
5
0.879047539763599
1.60342601362274
1.23830130457806
0.871343837425703
1.66772060150139
1.54370707923212
1.33997599830521
1.05135002103444
1.07770653205759
1.04124645583995
1.17399692235834
5
1.44284488569874
5
5
1.53488399399758
5
5
1.72763857628499
