3596
4000.36533379555
650.420452594757
1
2
2
0.0816430750770078
0.0818888580450367
0.0680523139398609
0.0812878782329506
0.0714111245575289
0.0932705646487967
0.0743448852057474
0.0814431533905822
0.0678197213660748
0.0800489372927677
0.0719596083412444
0.0917210034165383
0.0650201975124994
0.0804986434821912
0.0762205928005811
0.0863701203461027
0.0698779957415029
0.0847735303860948
0.0650220814852607
0.0874375037917118
0.0782493502774202
0.0834512228419448
0.064403155168112
0.0806368165108348
0.0664542429855556
0.083581890069773
0.0729974242258762
0.0858512529466556
0.0660436688086282
0.0845325990358796
0.0712812057111199
0.0883799993996496
0.0677554883117829
0.0826325170276529
0.0777623988056462
0.0880439361726892
0.0817297688257971
0.0894154509513241
0.071659330705912
0.0956138898052256
0.0745355470243649
0.0887718009326019
0.0691522802654811
0.0910405278517532
0.0725204636382664
0.0807195870792272
0.0731825418937479
0.0852031038235712
0.067453986490398
0.0827228995786172
0.0700981148564355
0.0730838069215488
0.0769776306979794
0.0897864770359107
0.0788517379379672
0.094738155902205
0.0704193768978629
0.0834281621026751
0.0641638761413365
0.0750206603263584
0.0811241527464456
0.0832627259625219
0.0769473206473766
0.0961157621215941
0.0668267387672372
0.0817804965636439
0.0693175039809501
0.0841447915770819
0.0682421808812225
0.091966541948649
0.0729528250882925
0.0955242510533587
0.0837825154396572
0.0841381638736554
0.0721869986166891
0.0801250235050792
0.0640233287811184
0.0855896075762042
0.0692172137953669
0.0828135349190712
0.0790523830184566
0.0883024492555966
0.0671375768371173
0.0700720429099094
0.0777454468421455
0.0868980348973392
0.06058850748167
0.0821030378100123
0.0770050258423528
0.0835318220721711
0.0647118620617817
0.0850814450578205
0.064784886092253
0.0858526974931789
0.065595716305193
0.0877252758650914
0.0665091362277251
0.089563705453462
0.0572945364302704
0.0973215054925223
0.0631916200422775
0.0778359114653315
0.0803234778661427
0.072551035154218
0.0994035090840559
0.0815245480087756
0.0636267075184891
0.101910570623831
0.0779272448651329
0.0822836271200959
0.0651822548978248
0.079224831848138
0.0661569043164507
0.0818527174640384
0.0594752265233185
0.103014781024233
0.085288011900558
0.0851052585601463
0.0724808769795993
0.086141320038655
0.0362563296073385
0.113314074083404
0.0829529619864777
0.0907786053851919
0.0691683909099321
0.0798740722020887
0.0634956300211635
0.121281109431528
0.0715571661555618
0.0856444891950009
0.0557082323476652
0.0801658711394113
0.062654375063142
0.0799281205954441
0.0734448281308106
0.081643461706836
0.0683409635566656
0.0751843236064083
0.0642355409862305
0.120652207875475
0.0772218792491012
0.0787435140087998
0.0502201177727288
0.0741332979717156
0.0843529573637967
0.0889616391243833
0.0588123920688088
0.0960201826749867
0.0647444298380389
0.0785019122768354
0.0606779420190346
0.0728889631361917
0.0809952074133519
0.0798813189922328
0.0442232894854933
0.130821717294008
0.0854962771502374
0.109668695673756
0.0818862732506746
0.0711462980443918
0.0628697128347373
0.0733339065105753
0.0655144161416819
0.0737627300749708
0.0709693811011444
0.0717585324474826
0.0790615041244306
0.0934388031275464
0.0621272913621946
0.0751707543089929
0.0770091107811651
0.0799502710879524
0.0566311322436997
0.12714294387725
0.0767854624805539
0.0790266994452414
0.0806247093225864
0.0907755120856382
0.0621954508178495
0.100682968136691
0.0675427178563848
0.0812197654806759
0.0630321172543884
0.0727599915542309
0.0622164526424901
0.0975147995124275
0.0730584383743261
0.0873389041878251
0.0657735767981212
0.0734344591523702
0.0690887680131551
0.102358830458604
0.0656439099397304
0.0896383896278379
0.0577438349382173
0.0582218196282639
0.0984427559974939
0.0956362408780312
0.0615718732887514
0.079795403522356
0.064344514668031
0.0741615938323611
0.0669454616228925
0.0805587319240079
0.0626327731492593
0.074441662808243
0.0857690902653218
0.0910132975185233
0.0636387692644577
0.0706792271640982
0.0685732803484158
0.0632549675228235
0.0980586023689518
0.0977778971990076
0.0680199174771811
0.0772865643346867
0.0564609684942832
0.0955844481067454
0.0787023817423324
0.0828107038704111
0.0736890561550659
0.0754815280676736
0.0641622060997358
0.0817657884791834
0.0701412807198496
0.0810889769524297
0.0613364780104779
0.0803283810499957
0.0666015591713949
0.0785759439905724
0.0691014373641215
0.0820628719980046
0.0672862266700515
0.0822566400068181
0.063309572053294
0.0898077013369426
0.0875164830804076
0.0865424224898819
0.0717420979633386
0.0718344409412144
0.0750245987167531
0.0811226128001909
0.0664379414833904
0.0813811221829853
0.0578361864177089
0.0759635679209664
0.095300269770189
0.0895466006884862
0.0794106490373153
0.0713180204791418
0.0866184266313462
0.0855798280247836
0.0690625817572476
0.0765037232345145
0.0808879991561087
0.0800096276540863
0.0706858400670664
0.0914359386206299
0.0855901475997145
0.0729410825472663
0.0839655470296374
0.0776771593106768
0.0749542662755185
0.0732231546965452
0.056110753387697
0.140301875900586
0.0721641846540001
0.0869396018553631
0.117165049392685
0.0956739739563382
0.0858364671890291
0.0745641852826043
0.0571167692653522
0.148315712593562
0.0898868079484718
0.0800562933601692
0.0818554232521883
0.0988092736260178
0.0700417151849882
0.090589818449583
0.0687378473844764
0.0965087808010592
0.080744522405149
0.118553322753986
0.115404021672154
0.0795536705304624
0.0992462776818892
0.102825637619844
0.0736993779370077
0.094621851189266
0.0762281578575055
0.0836906526001973
0.0962770989912634
0.0983359803299017
0.0908136151414778
0.083069904430758
0.0769685632337841
0.0975524031554058
0.0908116499089555
0.0862860377932915
0.0912494321196138
0.0976508000329383
0.0867137706031405
0.0966477969165784
0.0838739173087223
0.100290301053203
0.0800010138388766
0.0984965526751646
0.112834437779072
0.102433516238045
0.0851288554621124
0.120237552506897
0.0935043008413507
0.093870430224749
0.0872747551251607
0.0972209949910367
0.0896447498947859
0.0970982024443771
0.0833448103761466
0.120134621871551
0.0920393415419104
0.098030731067731
0.097324926363484
0.0982406088617472
0.0936760702241465
0.112628706647975
0.103395859207135
0.106016684125881
0.0969253809643502
0.0988559029267096
0.115966780166506
0.128120209597918
0.0846398341305106
0.140345941754736
0.117947930155481
0.110978956848569
0.0978843604881553
0.11048734536699
0.100134933139471
0.113749101857316
0.114077857586093
0.116279572070719
0.114098441444678
0.142599501795694
0.12731941715947
0.120703881859919
0.115742683913372
0.175298550327189
0.155306261540022
0.140773146751021
0.127081788733009
0.124515075833271
0.161825014952861
0.162514076522046
0.142725219872042
0.160785061119362
0.132798386874552
0.150495800418671
0.147346051978919
0.162053130205157
0.142570033002766
0.167796238536304
0.152951938624257
0.162324668978279
0.15173182024725
0.176356737759739
0.158038609444659
0.17801491400782
0.19054717599762
0.199146663560145
0.174710534593359
0.186072153233179
0.164716466196083
0.205312178570656
0.191925383951466
0.236094474182864
0.200237615924014
0.227862658687876
0.22242907816446
0.220499897780703
0.210747056525131
0.225616699298482
0.219852390623904
0.236562443730978
0.225999258964058
0.238577157842728
0.213102194393129
0.229609769296192
0.239247910878262
0.247995016725333
0.248501825718078
0.262082754210116
0.266969787265619
0.264736406865151
0.255680886316573
0.271108644730874
0.278206465693677
0.319542373970895
0.301230087423878
0.293472967315591
0.271437049805924
0.289589696470144
0.292730861661921
0.294569257996615
0.291904951145931
0.313511061639614
0.311916493197836
0.351218624662
0.322164500828462
0.348838176144838
0.325471753493298
0.336974627455679
0.344464926229114
0.352706860575953
0.333231497683439
0.35929114201252
0.354978339173659
0.34621366443321
0.349912037092356
0.391113572946831
0.368051042593097
0.372210189502178
0.36956625114871
0.389418373859588
0.383713434353629
0.403452349186683
0.381416873710601
0.416370651052599
0.402499489837634
0.417899570706421
0.409492643745916
0.442345114791482
0.423205196420092
0.460006700831071
0.428795121221384
0.432634498408697
0.430992339458948
0.470750030902581
0.437582993946223
0.463993054165393
0.473971386916767
0.483619224628127
0.460072703413418
0.489265286195685
0.476274450691263
0.506878685828477
0.486275521302748
0.511003516668319
0.475320079965272
0.503443019516736
0.501825378972318
0.521231462806792
0.501518931613398
0.553891194653631
0.514643814034899
0.556285523472258
0.532862033761939
0.575067055384505
0.515017897347956
0.558555195267184
0.542095019354943
0.541922516651503
0.597415528572807
0.63815858994959
0.587354602842781
0.632224108646995
0.574285637354963
0.636657232679776
0.580775989907856
0.606371328935196
0.631693897941374
0.648790449213622
0.60267478156206
0.660183016592772
0.631519129192396
0.623116162971915
0.635345608730412
0.684438847290924
0.6468454691374
0.683855321162138
0.663633132573323
0.673199670922215
0.661723468162969
0.702263579488122
0.660800695668552
0.718751475065678
0.660995494822688
0.712502784251197
0.720203927024248
0.734470230252425
0.726351140658384
0.706678854226185
0.706848665948618
0.742167492211191
0.7356554964576
0.783859308469182
0.737472983903609
0.749254508356845
0.745482798290557
0.806884777152603
0.756736122374061
0.788498744876132
0.770482944009449
0.824556111019037
0.748310753277489
0.834419642462301
0.836651361637841
0.832451930898098
0.782851163547936
0.83755727712723
0.78910109311202
0.881720625457156
0.794852079262603
0.860019309464447
0.853432667856457
0.880764761985814
0.884234530846969
0.898694365454317
0.898380613516665
0.883971693100717
0.85669254113235
0.944654554596825
0.925785340135199
0.906895008568838
0.905514544644915
0.926381128807225
0.842626949633131
0.921899340631179
0.912575967429304
0.978560654917556
0.945330522331868
0.99496327524533
0.914736912010566
0.928038446993546
0.918206923385619
1.04261767133503
0.943782965062288
0.991908540451305
0.964819064018074
0.982321128584017
0.878874023709872
1.0413142303243
1.00963784741593
1.07571710414511
1.00314762652603
1.0318066398731
1.0697986544752
1.04398970153299
1.04450965757126
1.03941809901265
1.0226497635209
1.07831589098466
1.03874394507795
1.13442220022494
1.04289097861888
1.11997427039328
1.0423629254192
1.03964188476861
1.01680689513221
1.16516816890562
1.02230805203377
1.0863382042302
1.08207727857678
1.15103402605604
1.21448127044584
1.20925700586019
1.16073646591133
1.17583617620561
1.06894803477906
1.13771303084159
1.16028164152166
1.15351809165632
1.15505686962349
1.23598041117844
1.13586606179951
1.26929267453429
1.16011097175446
1.14851169103628
1.14268709660964
1.19208511761491
1.15110742021894
1.29660279124905
1.19152393991223
1.28161725292962
1.26666549629726
1.25507706866785
1.1434905294764
1.22577939878736
1.15075764586301
1.32239025683458
1.28688476958952
1.23222214528266
1.13247887122064
1.35262609241123
1.25859361125536
1.43135129998034
1.29576604078121
1.49748299338386
1.18036715799794
1.27587631972421
1.31410013817682
1.20759382805795
1.21997394936491
1.40510804170026
1.31931283800968
1.31719584734275
1.26038227855204
1.40621997449986
1.32707135813075
1.6126538234867
1.28206871957447
1.31352058630538
1.28239390965873
1.27025672287576
1.5112691333483
1.37622449578645
1.24994696339693
1.51265308836454
1.35735959772674
1.57857924146316
1.33835677012437
1.38487632782205
1.4226860313595
1.30060029837175
1.36427302170305
1.45384581790893
1.33971153359709
1.40983030249826
1.49960969498025
1.71594701647773
1.4464589741838
1.63953395954688
1.33835291676753
1.37374401647872
1.50275888956861
1.67002351489261
1.64038439861778
1.35357441781872
1.40970169121883
1.63994183775572
1.31321894570057
1.34083347376803
1.33112147127334
1.38690401594687
1.48974244911681
1.67358927155239
1.67843217345346
1.76973582492079
1.50195908926901
1.65577767762529
1.59323302083483
1.46158596679363
1.61543560029017
1.98639124532403
1.58694846810471
1.69612365160594
1.40007495946354
1.54464009298784
1.6284264792761
1.66019732129207
1.58411401073783
1.63592005345385
1.57526477523861
1.64864786185753
1.59932735598897
1.56358091112965
1.58128289609574
1.78206673176619
1.84393147181686
2.0666279940381
1.7288306660824
1.65393623544973
1.60480715695613
1.55586920216837
1.32283549458251
1.66046233824244
1.55342783137937
1.62623482865107
1.58959500801422
1.85973664472513
1.72030544476571
1.63913618240662
1.67761943845059
1.58357921598679
1.53865505443542
1.58833404462195
1.58301324817626
1.84655580476577
1.8470448221494
1.80160172668737
1.65393281242895
1.59196333403474
1.64248499384388
1.72874862434872
1.53392307461845
1.65327054315949
1.47855921817035
1.57374905061467
1.59882323050671
1.784376680042
1.74527369980996
1.69071797342607
1.56050655257886
1.67201536244177
1.51371049355803
1.55528356652068
1.56207798928481
1.65705928250937
1.56849298594457
1.7253563690777
1.79647166968183
1.78954078050686
1.6563877465577
1.93952127184368
1.7566259445049
1.93597977818633
1.78109473637285
1.5339035235436
1.54719313817507
1.75855820710304
1.80932875243831
1.76796747793676
1.73589601834959
1.70781895330446
1.65005143705639
1.98422731875962
1.86924680486467
1.83241098034411
1.69990735509756
1.64521309904472
1.78376462225622
1.54455619149812
1.54290264947046
1.76260899559031
1.73543733336695
1.74744604927162
1.66601302710997
1.59989973338691
1.75718596886283
1.93874321674648
1.63724209881506
1.56597741648787
1.57195795852461
1.72386580595462
1.65249170376556
1.61371868705959
1.6727141979949
1.82433868764893
1.74756864232287
1.52342319859707
1.75392767570234
5
2.02608143173556
1.71801516386727
1.86433982360555
1.73699706971597
1.67758960889037
1.72465797165096
1.68491927107113
1.92421403619635
2.07033646642595
1.89588803162176
1.82186982557729
1.67093145328182
2.07100018439074
1.69140287169707
1.42221290089645
1.85957988827269
1.54070060378727
1.50139531533738
1.77468305649713
1.70504863719508
1.80926121758563
1.83874887621351
1.70605347153728
1.9272995079342
1.76776250486427
1.76621712573106
1.83261457109901
1.68341850800966
1.70077329972886
1.90782631048025
1.71666872403729
1.74075050766258
1.61810432967442
1.55038460760114
1.9106254584561
2.20488612851995
1.70425515826022
1.59684375393645
1.64772069344279
1.67549026590339
1.6630757956352
1.70319747312328
1.80302745956535
1.76449520884989
1.84999069387975
1.82369345992273
1.89317529514119
1.8318126676545
1.72524283935209
1.7710419142055
1.7753675016301
1.65286569849394
1.57734166553613
2.01493728605709
1.83107776959129
1.72685423409738
1.69075393980299
1.75962886539505
1.78435730655521
1.70367273749233
1.68303725262546
1.62966303216015
1.72163492787018
1.65760169942667
1.47528004671931
1.65659642194341
1.9302977444428
1.80608268243444
1.69857416048857
1.57423492682949
1.66985716107647
1.67378980106133
1.74876672011693
1.973937880089
1.76669504936106
1.72334066377722
2.03124868641477
2.2033307957769
1.77056159334729
1.64312828945491
1.67489223254425
1.59860479861805
1.67741051255286
1.57407976215202
1.5330810359956
1.71432402706711
1.60385177031756
1.49990280440366
1.65258576846595
1.6660141390123
1.56689612731943
1.53423973919769
1.66742220399959
1.60358820274027
1.55203660880774
1.71783485463998
1.69238565028318
1.52628604676321
1.53792927945096
1.57320301795911
1.60022456163113
1.73171397274307
1.65186445720579
1.61869269213237
1.62227052008835
1.5979531420889
1.60466757323371
1.59150475587805
1.64673636922191
1.50893365241788
1.54842774080046
1.67760982833106
1.66681701369319
1.51094604113218
1.47140472065054
1.63172096022818
1.56159779961635
1.4277603144464
1.45386821075787
1.46441496643911
1.55393414632161
1.48763114312178
1.46246399252041
1.60215271624069
1.52004974135882
1.45498872405084
1.47141734225074
1.36199489281791
1.40044597110511
1.4515922201314
1.43966261614867
1.36949034193528
1.38523599211229
1.37409011683274
1.34144375930022
1.35278004017076
1.46160027070194
1.47042813043138
1.47318492439909
1.31232261800838
1.32825238973764
1.42142926669762
1.39246788831281
1.36965808982881
1.34751025945808
1.32491324854052
1.32547612656025
1.3150352203192
1.2943416647388
1.31808095129993
1.33633403416921
1.29103803657686
1.3245749722478
1.29779106516279
1.31301787408788
1.22463434556194
1.26181796832608
1.2843959772631
1.23097240998388
1.27559152755837
1.23829887190932
1.20348474507175
1.18379927814739
1.19982210308411
1.18475114794545
1.16119341529077
1.26292795059123
1.23445994314597
1.18475069714468
1.17409454785202
1.17143699527198
1.15919024424783
1.15968191922252
1.18389235160717
1.18130842128307
1.12968490726149
1.1933069180628
1.18918654854009
1.12242394536117
1.12798697734105
1.1548073519531
1.16898612006153
1.14600694444394
1.12965606351043
1.12028133511231
1.10074795313579
1.11169535583456
1.06645275494802
1.06115910579666
1.03977805232977
1.05521633010848
1.04855009590552
1.03539476971947
1.03646267558909
1.03015264370847
1.02865990152621
1.0620963463339
1.04317427653738
1.06263128081755
1.05773382248843
1.02123048351232
1.005080607749
0.993911532651514
0.962646317052996
0.975215647738366
0.974612821695861
0.963834727262338
0.978604824089875
0.993090882071808
0.948579715344901
0.940239314374683
0.932553059633884
0.932988565820123
0.928202603126353
0.9714961264409
0.942463099818475
0.935715712079113
0.927273475360142
0.947369185625001
0.917776142051672
0.932000041054198
0.897613428048246
0.878552046652567
0.870761391668181
0.919775652826143
0.902366734555946
0.866492675605226
0.884101300319755
0.878038650547303
0.849824979439009
0.855456705215697
0.83022475123352
0.839755261914788
0.839308798666498
0.836463591730897
0.835538643366719
0.829442981618143
0.81646657020824
0.824989068279181
0.791527328724471
0.815937825439387
0.799965369240158
0.787996859919901
0.799942761299311
0.798347527367969
0.750157582496873
0.772053081000318
0.791776762099002
0.778906950284198
0.764524925907493
0.768860188666293
0.761928154717698
0.75221274728193
0.746524384301036
0.725169444841639
0.731253443941893
0.742619790200382
0.730342525274215
0.739714371448126
0.713197634686822
0.7201539366771
0.718050170398825
0.728758478388215
0.705562338192572
0.696957972095759
0.701294858546846
0.702319381315412
0.686833459987601
0.696757205038685
0.692300729351401
0.694892507070471
0.682478689940805
0.67456474384315
0.652391111583287
0.671236097668614
0.654452676217138
0.666562860404868
0.657936351459309
0.653424338958587
0.6499208455406
0.646439367437763
0.629582305779671
0.638009154078605
0.636879985986376
0.625967855384654
0.619219496890794
0.636415095998775
0.611879862934636
0.618124063877316
0.602934214410651
0.619231557334874
0.60661371737873
0.612431534693505
0.585178324544935
0.591120582903662
0.592779429676641
0.582313261981109
0.583840811760491
0.593614370917322
0.58699753913315
0.577384042502986
0.579623263712989
0.579029365090182
0.564657902168069
0.574304694962796
0.565498204091287
0.565303468281454
0.550788175831514
0.562703914162345
0.559337180094651
0.555957664364716
0.553219292818926
0.561188151344131
0.540739944505293
0.548815841977204
0.535639378438759
0.545451302704467
0.549265918356399
0.547176918674043
0.534843339655945
0.537229870037145
0.53548434918382
0.535589528756267
0.523649671007401
0.533533961660218
0.53550317270726
0.521210396872255
0.514796922968647
0.527856602641519
0.528302470299715
0.542354002615234
0.531522763421569
0.53031832175804
0.520628602979812
0.526902564606037
0.516815742458859
0.527180281782382
0.525238416370967
0.527740501283351
0.534270265458952
0.528708355619314
0.518879356022021
0.536293769890056
0.531011740957633
0.546517510648933
0.541107307319322
0.530735770790293
0.529077430069806
0.535598591564792
0.533347665802053
0.544191849681997
0.539376255900481
0.546494767386325
0.532901081667877
0.537492662641302
0.539427895276136
0.555382502691902
0.547320826622281
0.555104561880875
0.546095483999479
0.556004673284323
0.553774178796699
0.558155484390362
0.556036863955007
0.572950748810215
0.560484924465409
0.557873023512636
0.553028156459416
0.576559658052108
0.575855903262463
0.585916703065286
0.580994225785365
0.585589797155793
0.589785057574784
0.615294618167672
0.601410773385398
0.599598745318466
0.600773391824103
0.613059509590407
0.603077131637831
0.61897296008592
0.619033067441645
0.636267158902758
0.635197392731071
0.65163607669443
0.632703646828682
0.643622426089159
0.64372195212507
0.650346491344176
0.651552426513732
0.656271665535513
0.65201982328809
0.654969207872506
0.641434608558193
0.665473501169781
0.671424330727045
0.660301764035248
0.650355440099728
0.67042049848785
0.670013992311068
0.664691341971269
0.662297495055505
0.655614767148486
0.646708598584572
0.659144283107765
0.659340218704362
0.659303149247259
0.666254593721743
0.660178863676925
0.653901183401662
0.658097345443147
0.622343735679842
0.639586789445898
0.634094604793994
0.651085174948605
0.642654420832542
0.641715452757906
0.652807033010462
0.655483419288373
0.621228127843139
0.639482403468931
0.639714687130344
0.634081999850701
0.631300848172943
0.64141104863964
0.634220375306842
0.635469183301605
0.607550876040619
0.637868238423228
0.622833734978375
0.631204893590427
0.615558514099562
0.639480565002973
0.619824103515876
0.630104699320715
0.616619592228562
0.626632591070076
0.601587370843282
0.615573779696608
0.620617336723848
0.629494752705493
0.616824154785432
0.625806665808596
0.600913102890008
0.62348039021716
0.620015201720773
0.622668233739026
0.612511951341429
0.616747732968542
0.589242699338587
0.600831636670433
0.594302537338892
0.607598559705117
0.581696348046539
0.584047844017149
0.575792256215132
0.589721194818408
0.582883507016242
0.591255440001549
0.570986094052898
0.576737527535483
0.560482435230922
0.566797250101454
0.556373712125916
0.561631103031357
0.547300644282953
0.544346834245074
0.549109469083039
0.54577649571521
0.541228744762154
0.544697442130762
0.52765327356144
0.528586502149622
0.512727232367144
0.5126446799305
0.517281563084949
0.514035512687199
0.514121148874477
0.51463842619064
0.496701863593276
0.504027199519701
0.492838197926429
0.496280037574537
0.486239344297206
0.484547424882914
0.48913882410714
0.484259271624789
0.480243208477622
0.477220905003773
0.476483744504795
0.480830649892823
0.469528725573055
0.476972012527839
0.461206144502331
0.46460352788649
0.446710898309824
0.471401870553259
0.448423344284734
0.446772363104039
0.448366272783032
0.450620205654992
0.439606734981823
0.450895820510911
0.44034079662108
0.446187208493914
0.434019086515065
0.441624064065527
0.422988297775601
0.440198420978213
0.425048154004399
0.436166821539769
0.418202105486283
0.421545305010096
0.415720144184407
0.424843842628235
0.413570156149935
0.421348205842378
0.417460938281458
0.415312694827247
0.40950541158979
0.409846306408888
0.395135481879186
0.405556954648216
0.406349898281074
0.410759253043559
0.399797927826278
0.399501231408596
0.392074857215285
0.391220454121268
0.39178714845821
0.387838719304478
0.391438669524687
0.394389224371847
0.386291518441822
0.392497880060631
0.385015273326441
0.385558499861586
0.382811379262449
0.388327454432668
0.381665749760817
0.381338790385286
0.367986109674623
0.378486297496875
0.371887469379368
0.37749099847883
0.371778746158027
0.372977846456878
0.36796696260533
0.36970420516829
0.366228643531423
0.366374961552257
0.365933214232124
0.366346537913156
0.365001457011777
0.371741732004031
0.359611596971314
0.367814092409448
0.356683924742453
0.359342821504421
0.354356517798213
0.355520229050399
0.354786356429555
0.361072439412358
0.352915919827026
0.355080713423186
0.342629769228398
0.355725163761683
0.346886226410818
0.349468319422793
0.349507111508009
0.347282141783614
0.344259408490538
0.347455705979139
0.341490179643109
0.344592065307028
0.340642557873928
0.336984917704735
0.33503139022498
0.345375107370787
0.335747767246792
0.342633776817826
0.336852772199675
0.33504900332006
0.336067728258722
0.343380117263387
0.332506805475138
0.336228744815604
0.335011457779369
0.332338709276251
0.325541012013554
0.336739407646146
0.326110339960961
0.338750602041885
0.323181190393553
0.327345809149995
0.328613973482966
0.337515016149763
0.316753639244171
0.323508664579455
0.319252008707704
0.327295817444812
0.328855033178976
0.326653815924706
0.31863588782735
0.324022252297411
0.31677455105732
0.323870091633175
0.314202801529442
0.32345429862011
0.317351129232626
0.328571161591945
0.313316311684218
0.323177548952415
0.31847206629797
0.316774739458645
0.317299716332241
0.315917642244651
0.316352209414668
0.318892820748326
0.316639202865515
0.313945492969036
0.312276344212671
0.315620840277875
0.299606808778552
0.311948233049297
0.308006201549465
0.307877991463026
0.30360308653725
0.311420696916165
0.304708245774957
0.305676295551453
0.305008124689037
0.309506503716389
0.299062279243713
0.299336820671382
0.298422402611952
0.307896513000305
0.294929078202767
0.304823753614154
0.292725226427063
0.301169559043076
0.294979340065391
0.302790019397403
0.290025021805504
0.297434069976483
0.294571301026053
0.296752771004044
0.290565742022232
0.298709703736995
0.290227698664567
0.296107320997935
0.287961833378092
0.298983073578285
0.285508919333373
0.287924434285145
0.285976887064467
0.288892921955379
0.278615776348181
0.290375698670466
0.283520590212947
0.284102510928284
0.284439119467427
0.289731276994718
0.277725247049195
0.28593922943488
0.274868809527886
0.285523872164732
0.279337033177186
0.286524290983102
0.276957204657304
0.277852178524102
0.273473505506847
0.279690331763455
0.274429898903232
0.274009587591497
0.26997661186413
0.272984822799832
0.276083004423076
0.272400984319757
0.262607605877115
0.268223010948506
0.263678821257829
0.270025302926204
0.265112747662538
0.267856556648933
0.261872986197478
0.26480905152178
0.264138793583128
0.261852797346353
0.26451465357538
0.260750512878956
0.260726873620071
0.261568612166652
0.25330982360219
0.260418873315513
0.250547580632483
0.256311005665961
0.253858510099291
0.257353777579187
0.247602917926788
0.248058935907986
0.249048800574722
0.249515469090862
0.244896200059225
0.25177495962477
0.239457889575299
0.244808704954694
0.246494931546078
0.240414688222238
0.237641348880201
0.245228190573695
0.232717101417704
0.240390665033785
0.232390653832554
0.240598627856182
0.234553494154778
0.235820360784752
0.233890322387946
0.238922239467274
0.228114748015463
0.232282805826968
0.228365093801686
0.234322647060635
0.228751895769491
0.226555382792466
0.225603247450041
0.233453518577141
0.223932961769814
0.223894884474018
0.222080997624555
0.226916516873481
0.223618756598665
0.22645975755055
0.21525524263773
0.224309440594123
0.219623050316497
0.224381325380523
0.217528467388316
0.222012418110558
0.215537219261645
0.221416112173317
0.216904165890261
0.2204122862601
0.219759383743703
0.212426185250584
0.211614305682832
0.216056709502586
0.212244960583881
0.217154079004046
0.209096518640807
0.214605443124492
0.21045154734477
0.216268805747345
0.207057990985309
0.21105913691677
0.208739009564526
0.206711429704512
0.204890348233433
0.212712765418604
0.207037318387712
0.211556117968481
0.206241623235327
0.206669319725841
0.199497852099254
0.204014092299818
0.199405901021978
0.206354908414318
0.198524355423102
0.200018223649772
0.204171197934493
0.207732399126663
0.199534819442357
0.204438482563787
0.197800033839428
0.197925285772168
0.201128946996384
0.205022924529795
0.196516147693483
0.20054532804852
0.19823236086101
0.198100356255212
0.200805487562598
0.205630886598941
0.196885210968802
0.202674936094988
0.199712532243097
0.19907692275502
0.192795470716577
0.195862985722889
0.191079654186061
0.197238616176112
0.188412485684922
0.196808446985235
0.195775874449193
0.196689454303605
0.191668819981913
0.198275592284328
0.192443576259065
0.197224563483973
0.190075249416378
0.190351862693842
0.190993351135814
0.192482263385769
0.191370268568535
0.193126011966918
0.186421098480899
0.193714042625363
0.186899847629004
0.195271771318832
0.190385741047802
0.191915045907029
0.187629401768908
0.190257462259937
0.18680480951671
0.189610183487279
0.183527670275436
0.184836127374531
0.179203273398592
0.188121404254406
0.177233720890082
0.18836610866311
0.180922729370702
0.185316292273412
0.184937464054319
0.18704722713916
0.182469029155223
0.187020007009995
0.181194092668412
0.182275524669411
0.181234830549706
0.183803964145747
0.18004240591742
0.17711576061608
0.178889732062538
0.183412241260038
0.176499962686105
0.180551046216995
0.180697350858251
0.178523873118685
0.173941839430382
0.178634426079545
0.177971167566339
0.174982541874017
0.172910015089042
0.175563439799584
0.172049049658609
0.176570070142723
0.171592749547211
0.181076962106503
0.17206715959192
0.176986249578361
0.172149846229276
0.175497076490431
0.171393773986296
0.17841067063801
0.171143730262118
0.173274718885901
0.172979312124829
0.178282442044128
0.171923110651014
0.177970386876926
0.169531177548275
0.174919179199326
0.171925860817805
0.174668052277212
0.171627780904311
0.175469039513328
0.16662876070322
0.172186416345867
0.166573367048608
0.175662872656441
0.168248973533273
0.17134553974785
0.166578783520205
0.1672810043534
0.166004868557689
0.166210474119756
0.163269358311152
0.171062138120104
0.164606931853997
0.165142036674845
0.161380058883765
0.167183623682511
0.164251144163051
0.162987737815561
0.162438761551871
0.167769884113191
0.160268294830819
0.163301555424665
0.157686128538845
0.160859255898503
0.157261782472082
0.164390370103773
0.160667811262473
0.162862309000986
0.156237281800891
0.161871606104516
0.160286177247744
0.160460750003013
0.157431247725025
0.162490248610929
0.156421974959169
0.159193972838917
0.153663660383484
0.156984724426484
0.155780322777367
0.155919544447479
0.153108660112973
0.155984506920078
0.149654698090469
0.154216686392247
0.154370187835636
0.153996953045492
0.153197167430574
0.157256525702016
0.15321966807775
0.152978377193134
0.15205918187629
0.151182080534096
0.151332136014951
0.150804085917642
0.145676199276405
0.152364102441057
0.146645399858527
0.149765847626776
0.146104433006795
0.151872273925592
0.147342264849206
0.150968293690248
0.144537072148744
0.148284185856206
0.14524272060303
0.148234060857761
0.144326976391137
0.146491285043275
0.141914838499404
0.142229004461164
0.141088719405955
0.146598823584325
0.140685027912147
0.143462278077865
0.141648630795767
0.14292336718708
0.139248500067739
0.141247737912248
0.137005410197996
0.141909275332872
0.139534470409989
0.14112380293829
0.136645041707484
0.137571789048897
0.141484598731653
0.1393841971707
0.139143817915724
0.137473868980101
0.136969519827779
0.135656903076217
0.135940104464234
0.136588986664667
0.132959580422356
0.13985671608844
0.135950389197629
0.135750407684441
0.135078178829902
0.135555542084895
0.135653840397822
0.137293289507178
0.137034144692687
0.134925452872203
0.133749774544531
0.137871578518784
0.130362075061268
0.133354619740106
0.132994210192073
0.133266378790363
0.134462980275993
0.134856500287059
0.133243803201114
0.130270324121956
0.129822476782607
0.133068815292602
0.132674856674992
0.135858617816546
0.130362711212107
0.135344931416162
0.131105660519988
0.135177607721617
0.132819965716218
0.130896031267196
0.133745001572163
0.136704284810591
0.133495909044689
0.133679798317819
0.133011610927554
0.1354650280003
0.125451861762443
0.128761028882811
0.125508920241969
0.122257450964532
0.131297919043524
0.13007878210502
0.125585587240693
0.123196601532784
0.125166352853412
0.12410122569657
0.120839399116847
0.122588893383656
0.131371955560936
0.129754318954304
0.125869056290562
0.130770383228945
0.124409224005914
0.125697213865575
0.123182856986953
0.130829878860878
0.129677937803097
0.117469931917394
0.130742925303346
0.127680998261794
0.130169797995061
0.118617557380787
0.134101149264477
0.120503824417556
0.130323312951627
0.122533274459471
0.125700501751104
0.124191321987347
0.129988907138324
0.119745278278391
0.130896778360018
0.119554521527506
0.132323597362889
0.121093188058113
0.129147063620159
0.117968381876391
0.118471972035799
0.120554018568377
0.126469170370052
0.129527329813443
0.130230949875935
0.124260874206118
0.113003342645047
0.128363652443562
0.116315993193957
0.140326531677107
0.110775539381859
0.131920875436014
0.103332717512702
0.150825052715828
0.0945411103617707
0.148750602682915
0.0950720765792782
0.162278809147067
0.0896329406022574
0.153317854946037
0.0955992424556424
0.151153837426492
0.0992377095238871
0.154250678080653
0.11025932420087
0.13906922145199
0.12326726700845
0.126393735919858
0.126432423616894
0.12254995758169
0.126913489069899
0.126627547374102
0.120821571112518
0.128683589766409
0.123286370282469
0.130462627398143
0.118068018197749
0.135411759543721
0.119184385456832
0.133498866074498
0.118112728867849
0.12785660061172
0.123719068308034
0.131060604127379
0.122699328285068
0.126884064768839
0.12456271771704
0.131799788744227
0.122154044272048
0.12880263372382
0.122140195207514
0.129462514259067
0.119514630963782
0.128451077633633
0.121686203763395
0.12955921736995
0.124808437274817
0.130856438362875
0.124300368161848
0.131897958816315
0.122421500377225
0.129825918130348
0.122496894362316
0.129952018129114
0.127673091050687
0.132967074558324
0.12685756455055
0.132770519554555
0.122578300612053
0.133680066791673
0.126334978912318
0.131390682586976
0.124653756007703
0.13193489032314
0.124780945360456
0.133632699569805
0.127295443335741
0.132078672802494
0.127674732733281
0.13360512835404
0.129577697417965
0.132883410425098
0.121558045855712
0.132621099765077
0.125423721647876
0.135366470058171
0.128983040592043
0.132426654284794
0.129898566288247
0.135934977994329
0.130112179837539
0.132500102262591
0.126943988581379
0.134769427591396
0.128999870996893
0.131919142660968
0.129603549618263
0.13437732610758
0.128684893055089
0.136013494813837
0.130344795438339
0.13591174540803
0.131825317426666
0.136762377168973
0.12823417260966
0.135403592188651
0.134861438614054
0.134249843959362
0.131233158882978
0.133701420849466
0.134844948911364
0.13659024167047
0.131557878334002
0.135962849503429
0.133357901581305
0.137152758002525
0.133210440076919
0.141341122218467
0.133210095052375
0.137027070073505
0.132235429568291
0.137402688877321
0.134874463136401
0.138184022280158
0.134555056161239
0.137444942139894
0.136521289657627
0.139850244707851
0.13846150641091
0.145488781021078
0.138026592001154
0.138111509646196
0.138821836242009
0.143956859949513
0.137433372638579
0.144918579576996
0.13848734978937
0.140809383084118
0.137566042233333
0.144963273636684
0.139907916728877
0.141550770845967
0.141623163493864
0.140659746081307
0.139993578291869
0.144041802964943
0.140692846547846
0.146785906739272
0.145163472268578
0.146393217610512
0.139412791446379
0.146294192209335
0.141700233346135
0.145317071151464
0.14206084880385
0.145559131660857
0.142833248369791
0.146464671214194
0.138515277369449
0.145491470516527
0.143049478105694
0.145853938266228
0.144743762333834
0.147657749113124
0.144009255634548
0.148841328270245
0.143985320551518
0.149516607934569
0.146512587048253
0.1505715361867
0.146615429153944
0.148922071606506
0.146651925408467
0.150410594274584
0.146979120170538
0.151048939713346
0.146049530308089
0.150693887042068
0.148598027870064
0.154201272019879
0.148680864560354
0.152537792971252
0.151032935502695
0.156116761632277
0.14970630904387
0.151766987517061
0.150792437528521
0.153033416160851
0.149251817153456
0.152841355340638
0.150357357737549
0.15280815668011
0.15023817346567
0.155526977282584
0.150864610336185
0.155747284481722
0.15262222137578
0.155725707180031
0.152590054253218
0.154914408799397
0.150193499441927
0.155633101807946
0.151610016390614
0.156677718181731
0.152193477105089
0.156756904026495
0.15230892953721
0.156036578353074
0.148012523917669
0.153021158921828
0.15203768548004
0.152781483929385
0.150011243271234
0.153757913607975
0.150518204652457
0.152682448211622
0.151617218839216
0.153811645785346
0.152598457550739
0.156659551781868
0.151121197082257
0.155567844225135
0.148933134883196
0.153481530322097
0.150623839879264
0.152954531435498
0.152111373366183
0.15302991443756
0.148732198900463
0.149875407371552
0.148065244237788
0.152177680395313
0.150302040294255
0.150305201430481
0.14964685933957
0.153603485940949
0.150115564544883
0.154242183834364
0.148567723111362
0.152391206746318
0.147509857409833
0.153284481633694
0.149117901616106
0.153786651839302
0.15156143005791
0.151877861346074
0.149633945292121
0.150432915323899
0.147374326014217
0.15126424837867
0.150705628504232
0.151579991748718
0.147811286065161
0.150549311348175
0.149257071204157
0.149695493317413
0.144850154679831
0.15142963063464
0.148269499192776
0.152671682987904
0.146206961622295
0.148853221538662
0.147431653325635
0.149927290303479
0.146520395296018
0.149199868412597
0.146920147218489
0.146289029117343
0.144625537201062
0.15000153937588
0.147214872663749
0.146049661157795
0.145795259743285
0.148263654798839
0.145629182931069
0.147221689881874
0.14699508144314
0.14604880379661
0.145503158055798
0.147161425094382
0.144722930001139
0.148432381411847
0.144222336699191
0.145801787682517
0.142540916793491
0.146756400423692
0.146190042090515
0.147325023710309
0.143203804387618
0.145652470976062
0.144526441847171
0.147834383023842
0.142244546585806
0.146281343811768
0.141511872612713
0.149105082274203
0.142991492265577
0.143692115984742
0.138960923949236
0.144354893782496
0.143064971752914
0.140884027247177
0.141990971552325
0.144078053490105
0.13892532053612
0.139976033952758
0.140144261685306
0.140175285308193
0.140752945157843
0.144421995986301
0.140414266586242
0.142213358555452
0.137903350223708
0.143659976548207
0.13643879365527
0.137255160460992
0.138316842451538
0.139976455798319
0.136461682302407
0.136088971806034
0.134872666615328
0.133963943861302
0.133445687584266
0.137330539037357
0.13220345976902
0.134069636909691
0.13326179585535
0.139402510627284
0.133356200468582
0.13326149834508
0.130526869077333
0.133936849235696
0.12895759631708
0.134933784406787
0.131529554551657
0.133195589761622
0.129510834735327
0.131652126912783
0.129641127945482
0.12985391897748
0.129442037408469
0.128504023226156
0.130077072803176
0.126990670220019
0.125738561364216
0.127167892348658
0.124272414411666
0.12553960953436
0.123660143057627
0.124980902310988
0.125271480189539
0.124856166107154
0.122213071072953
0.124113090234397
0.124428668126975
0.121829307591832
0.118766669232181
0.123206934366641
0.123131654444579
0.121779800634654
0.121884082260376
0.123433622239878
0.118998301257763
0.117826503947199
0.121107248202029
0.117479971441135
0.118377063341206
0.124231294420357
0.126212747024946
0.121118542946975
0.11774204989816
0.120706030178738
0.118499939978963
0.120286214553775
0.11463264938354
0.118634407158286
0.115147889502745
0.117602316577504
0.114388163016467
0.117867938920589
0.114270618765165
0.116691188080498
0.114448546111087
0.119143388346682
0.115462751448237
0.116595323928033
0.114018396077318
0.116347547010816
0.115783056473526
0.115857278646501
0.113055949570073
0.112795592114778
0.113816832975689
0.115427204301859
0.112971585935545
0.117130038505833
0.112002989881517
0.116433572817714
0.111536462305128
0.113196291733584
0.109152797972568
0.115363548492315
0.111375635577999
0.112360384316627
0.111171564307209
0.113361269885053
0.108408998750452
0.111780992272087
0.111601950138864
0.111393307475506
0.107967102099827
0.111008322374922
0.109973700064699
0.112453065652923
0.108078713362022
0.112370732911462
0.106647718871168
0.114638906161194
0.106705085942076
0.112068103252103
0.109033953104417
0.111955429241172
0.112444282882048
0.106876151537802
0.10936570187718
0.106195183011483
0.107815130213698
0.106762377552179
0.106911791929942
0.106878482349944
0.105359348360389
0.105615800889138
0.107736233243995
0.105455277633753
0.106718777394221
0.107136276220947
0.108752350009426
0.106226752561473
0.1077970656452
0.106805537942842
0.105334752491973
0.105631814258867
0.113088902967388
0.110104245599985
0.106356940818363
0.104350776850063
0.111540866913082
0.105450346768344
0.114685821776674
0.101150791360357
0.106853200643817
0.104563067862025
0.106990522295637
0.103810154266099
0.102919643303022
0.10463571348177
0.104525725861307
0.108449891295711
0.103724010566455
0.107165711781808
0.104736065996138
0.10648170220909
0.104362168170079
0.102950167848892
0.102735027629201
0.101882187017595
0.101935021070286
0.104828482885594
0.103409233908838
0.10298650908481
0.103442762082763
0.105197165854474
0.10618517556129
0.104131117235937
0.1029151791642
0.10350732727183
0.102502863539139
0.106242324807849
0.101066733401532
0.105967164209023
0.0956470907559738
0.106409191889771
0.0984775838862061
0.105049983062251
0.101392597704619
0.10377460017618
0.100472450942707
0.106496651085637
0.100674022513037
0.102956946215216
0.10059918795558
0.103556576004811
0.10346359227429
0.102668308327504
0.10252634306678
0.10278177728542
0.106016289200459
0.102848231559683
0.103821640266721
0.106626473478095
0.113258744673
0.111360486632292
0.103710199185103
0.108640354731953
0.103712753018216
0.106456968705001
0.100730306372829
0.106264437910959
0.0999346021305079
0.106749374926676
0.101625136907559
0.103695807367642
0.0986162158827779
0.105300635726101
0.102147604561445
0.104580867231875
0.100100931170649
0.107980718932102
0.0973425742118302
0.107863671502551
0.0954938954902562
0.110317997649567
0.0991622205753646
0.11608167324752
0.0974404263059721
0.111500751611099
0.100231426689314
0.11758706314886
0.108866437468848
0.101693290354749
0.105473433743347
0.10308800346497
0.103759692545768
0.107458247758425
0.107896070838881
0.1055238419576
0.102284178770056
0.102102902257828
0.10286256961816
0.101417346281567
0.104686819766472
0.117661684387019
0.119614432247858
0.119322000059219
0.103620329574258
0.103237646815282
0.113435750041284
0.113106123757258
0.111730833884276
0.102681749843557
0.110613253931604
0.103510067785085
0.108751333777255
0.106692276233249
0.108103684040386
0.108603562153536
0.109883719480623
0.10927616004276
0.10880786929424
0.111648581264391
0.104730141723014
0.110057521229241
0.109977377511888
0.114201132659204
0.110774464966554
0.112651954512868
0.113932992657298
0.110924770631255
0.112192291565177
0.109559014070272
0.108014288706675
0.117785435778874
0.115122208385588
0.119550569318134
0.118131601161951
0.119156946182605
0.115298419649799
0.111938218060948
0.123352822242798
0.115332109679457
0.113074852824207
0.123519355525364
0.116151443105461
0.140731590755606
0.110637161227476
0.1300365893986
0.107831732467963
0.129610372096022
0.106078587516963
0.130178266766835
0.115557541515426
0.13110645153616
0.11178388216109
0.123190130718785
0.114783029896386
0.128171065475049
0.12191140889774
0.120934066678978
0.118100078079499
0.124600431027308
0.134231717648354
0.122571887943566
0.127692517869093
0.119844194409271
0.144025186843459
0.13958855204907
0.124964606362947
0.137428204568978
0.124326268147101
0.144295817817132
0.12366428513723
0.132329457558195
0.127029496785862
0.12554785873646
0.137397728228571
0.1413197291245
0.138798150425744
0.136693027491533
0.128763026694492
0.145680148525385
0.136500592816495
0.14474956063592
0.132450524828322
0.141034984345658
0.132211534114551
0.14927793954994
0.151911317819856
0.151381706980943
0.151089280843786
0.147074281244597
0.160726005843323
0.144295447857016
0.155442918585664
0.14453555148052
0.161462704739906
0.160950325812199
0.15538531564925
0.148074806898499
0.170471261451461
0.156212080757364
0.17433427951846
0.156868955627151
0.163096631282567
0.158417487845623
0.183417045711827
0.187406866348901
0.189253731033515
0.171133906205808
0.18290638835552
0.181404875027418
0.188976486355292
0.177741158722059
0.180875458686725
0.179868389019695
0.181116299299388
0.189968359827203
0.192701145318578
0.193697169834903
0.200219094101183
0.191431029928394
0.207103056454187
0.206235765003096
0.234162433741414
0.209974673132304
0.22818240058968
0.203343805016951
0.236375570611954
0.221523894605673
0.223560254589562
0.223764837482773
0.229591964566645
0.232412664635623
0.230782090705616
0.240116868553347
0.244019450920038
0.247142024442072
0.271001132471988
0.245958761522122
0.274887913584351
0.231129426584086
0.3018001241323
0.267682152605482
0.311240566112602
0.273231790287329
0.278792221319029
0.29557556565766
0.302662348294649
0.314008996839351
0.300213987306933
0.309416395126144
0.310957614940872
0.317044787162199
0.328438605124192
0.335186906687495
0.342372796219461
0.337220470200575
0.343846506290371
0.358524113655354
0.41433289671234
0.403542680210491
0.385683769013326
0.391035224818436
0.393570431379579
0.411608058567657
0.409016960609794
0.414605614275076
0.404684829649296
0.449432193895906
0.450048193688377
0.473216234811756
0.439637054913394
0.471131922099376
0.454360463279332
0.480642562650881
0.499219528202259
0.51311203042016
0.507469345856307
0.497804497014376
0.522017533003781
0.516663443681881
0.536812592406031
0.539155087756338
0.561346620118071
0.555472132162567
0.554302804134151
0.574612648122575
0.574208117340381
0.584669801728481
0.576349410198842
0.590559642524251
0.595732455845293
0.636248513854713
0.711292044346743
0.630114496453401
0.621191515224636
0.593685617627237
0.625317571717887
0.608667616551126
0.651695901427928
0.655043151698046
0.641019120386568
0.64576663305015
0.636708984860595
0.645343719228382
0.633244858031479
0.646060046648602
0.643122034790042
0.647650760076479
0.663603873597729
0.636086697554462
0.700811924455177
0.69666642006331
0.658116793035151
0.622317052258631
0.644661703351242
0.624887361065349
0.635991714037128
0.602934336418602
0.642067348627567
0.627388318238539
0.628510166308083
0.598795439916694
0.615933601923939
0.601574375347427
0.61077237587583
0.585895896762717
0.578091015957797
0.573469042713375
0.564108215362771
0.530583849732181
0.565267967670968
0.558344028020385
0.556540670816212
0.521682912387282
0.521593036681802
0.504882083258624
0.50957717093132
0.492973158650758
0.506826101098027
0.486111360346088
0.489459685534392
0.479013495789085
0.480660546662499
0.467483049086066
0.464776053342684
0.457197051864289
0.457395806016316
0.448565878191246
0.438330176742943
0.440119893492672
0.434712162623359
0.430199456178921
0.430965771104694
0.428237645260855
0.428827555614716
0.418974055281256
0.420455410373852
0.414339093530763
0.408995517334754
0.405539882429897
0.40049855262406
0.390891852834737
0.40357362771016
0.394184426417672
0.393307032620799
0.387130955787666
0.381599977391493
0.388494549128293
0.373408743287738
0.383257148938693
0.365972818552195
0.369326745281408
0.361542671310608
0.366403779052627
0.397089953428495
0.372557443232785
0.379038972033085
0.348050058897282
0.371438741114358
0.343368880841586
0.362553463102035
0.362269269452296
0.36348295013114
0.346712021936237
0.349813116920069
0.344590972004065
0.363264958977514
0.341390917581011
0.354065774155186
0.326871122092836
0.329832362347251
0.360665294478723
0.333736882616551
0.416276519484337
0.346634634487947
0.349803337421392
0.312524945278526
0.357398454038263
0.321171219162215
0.324896533748966
0.313809102471424
0.307216379474076
0.33160971282099
0.322086539229883
0.318694579386921
0.299865553242509
0.307508702497933
0.324776232889269
0.323123819918079
0.308957540538785
0.327075609060068
0.297799226500238
0.314970697372401
0.302748880920375
0.347177191533958
0.301660765514316
0.297067036537484
0.299210031023607
0.285193558962897
0.300088434088043
0.308839427337922
0.293726208559182
0.301725480576534
0.279647598914138
0.287321980786362
0.279780324766456
0.305300361600889
0.26241368469324
0.306918683374483
0.285227680424821
0.284308219926005
0.281527655744877
0.284869671525725
0.314515510956194
0.308472217094214
0.291161185190079
0.271498548315058
0.305109964801086
0.291250900733727
0.293805722998953
0.289547873106386
0.273923580914443
0.286314263741205
0.27847780496282
0.277324156863725
0.289541128142561
0.285284235617218
0.293193046981096
0.296697685353664
0.316962885476789
0.311193040996557
0.28966805512113
0.289004622344435
0.275430579264359
0.287083153895072
0.28049832200322
0.274558654754941
0.325310099848049
0.281315083754235
0.30022891285126
0.300717216169522
0.302825491969497
0.294256356410284
0.299551677859092
0.296972727233462
0.304436217396349
0.31420212539548
0.337429798821316
0.309584589799999
0.341301866695749
0.328122207142715
0.331781707672536
0.320316640143277
0.33738204474242
0.335327837499946
0.346381446004331
0.354905605970099
0.357082453741486
0.352857348693866
0.372224752494158
0.357065909360546
0.406994676928631
0.384310247545521
0.397877578394096
0.412722027479381
0.414791660445074
0.461886765196794
0.431744517159576
0.439838198927729
0.438328673643173
0.457390233707806
0.462044347802192
0.459453513879272
0.487918145072019
0.504908189212128
0.48970971028621
0.502315252847762
0.496426449471495
0.508969790323461
0.499589746172722
0.538843093399431
0.499619280056451
0.595594343449642
0.539165789446559
0.570654701461473
0.534206950993821
0.53418021923829
0.547393557609724
0.547542478861569
0.547574256211816
0.540321601474874
0.552323092027088
0.56250486221256
0.550784134353587
0.570579904257867
0.552126751542589
0.563795091514314
0.553806313621243
0.565208110957839
0.558144364127601
0.566462777248177
0.585733654718464
0.559391198347705
0.573229836420668
0.626864285141421
0.576196154429885
0.602230164716455
0.581251149033116
0.609813502566009
0.576784780733714
0.608628845406818
0.614755235021294
0.619103533336861
0.612668558038908
0.617270533627342
0.616761528704818
0.620375666367972
0.61921926863755
0.631661166545197
0.623755729063025
0.647958432188909
0.603775025575742
0.696883772227606
0.639095579485125
0.664299359515802
0.638140998434068
0.647657931626425
0.636962450292107
0.645217706508363
0.630343614081283
0.648809847740661
0.639749608174938
0.644342180403578
0.647038177597063
0.632395000809911
0.637820256800756
0.63336020340718
0.629299062298039
0.653135046449016
0.632388329852582
0.636897693744908
0.626183913972441
0.627398947469482
0.604057604497927
0.643966928864789
0.618050818272631
0.616065801116881
0.603625898368397
0.615711800303224
0.630276998198181
0.621888781384796
0.604076188655119
0.612096942590051
0.599543665743484
0.62245688355276
0.598706264447184
0.628040329885836
0.627154846053491
0.638077116466225
0.624256308862572
0.633353541355242
0.630360300357607
0.64488306704348
0.649021907481947
0.649324618803939
0.647113061820861
0.664596196703554
0.657943578497225
0.672406290724926
0.665965133520097
0.663567290589979
0.687283833743973
0.692137402904362
0.67985706454907
0.691733174821406
0.67260613032487
0.694085928033194
0.687453400808499
0.693112919710848
0.677478786004357
0.694442967310886
0.671439557690689
0.688189544712233
0.700848305561861
0.68393416993261
0.696267727926239
0.686374673887732
0.67207747860844
0.672207587222294
0.676974346040102
0.675316116730635
0.676661292357832
0.676701957476622
0.675607404264891
0.668115264812701
0.660685506136528
0.667061424604081
0.657643204107897
0.654076132511052
0.649027591669074
0.655018987195957
0.649165948039301
0.654343705863226
0.652626616723427
0.647584066873232
0.645583448569677
0.644749306388056
0.656007896311854
0.65783372897525
0.659809245713675
0.648834677787964
0.661364312581972
0.650575408257561
0.642968598965268
0.642403660191567
0.638973845557585
0.637788632118078
0.635036751346468
0.633688442300148
0.637539016131366
0.636930372845884
0.624214999406394
0.623971628571296
0.621228045734599
0.620307890395455
0.614171661086404
0.617564766672328
0.60997528045912
0.615769603548879
0.600028481250059
0.60606968204814
0.60347540520987
0.603119104257881
0.597649819833357
0.595779106066846
0.596347095451579
0.593648062229896
0.596735295869536
0.59230658174311
0.594431815933848
0.586560770665909
0.593785413787228
0.589932315192433
0.590018087811919
0.583405383033826
0.581674619924015
0.581574220164473
0.580031822293891
0.582081697923109
0.579324298577401
0.573183483022212
0.571994993443669
0.570427125204154
0.55869635577317
0.562356180580232
0.550914356954487
0.556460210320147
0.544477032281121
0.542303486508995
0.546115521616169
0.535267499724409
0.540448033184041
0.531070531576043
0.529349926966091
0.5321568297079
0.52434318086654
0.526680612037278
0.5221411150488
0.52143480287058
0.520533918248134
0.524127008541743
0.520198252189801
0.521422399329419
0.516667834655068
0.517739626048338
0.516998493587315
0.523536092431439
0.520652728647297
0.521103200526577
0.51416825158197
0.521278449459049
0.521691143180738
0.527980557932776
0.525053000588302
0.527223235217031
0.526284238748881
0.527429751362431
0.528702967743922
0.529995510433011
0.537615576491088
0.538642972669602
0.5369944206593
0.539699930315561
0.536722260156123
0.536757314595001
0.539644570713528
0.542349186526482
0.547245192402572
0.538950801817385
0.539672549548912
0.542932211630096
0.537985403868553
0.54319981186812
0.537070940959979
0.532844011661273
0.536067796978752
0.535916370415291
0.536132623348789
0.538830491115704
0.534850045254736
0.538774961051358
0.533316476573935
0.533096121321642
0.531859478060709
0.526861616354466
0.529256669476082
0.526500109572482
0.523577577625856
0.525390026944776
0.528582868788451
0.518785283962011
0.523520462593811
0.52452736568775
0.516579547661981
0.515851838017853
0.513132448032119
0.508026953649506
0.502664165357209
0.505397824201681
0.50161252605471
0.497252064680234
0.497734841480546
0.494437475929425
0.491658039649528
0.489998438555989
0.484354647172498
0.488512786188492
0.476208821810239
0.47342247317699
0.46913545037218
0.468307052246906
0.465985531775236
0.462997725926504
0.462751970673366
0.46471748344311
0.462880233500316
0.463243424400974
0.462754710429597
0.466361960185753
0.465689843196128
0.462533014313531
0.457400011974074
0.463870208239389
0.462467622428042
0.465081447404265
0.461702032010036
0.465353003800243
0.459467511024438
0.456770154063015
0.453747656746406
0.45213614277248
0.445336665405719
0.444880021570792
0.433529572084776
0.43048538431705
0.427674449465315
0.419591665878291
0.411958897308535
0.409819919183535
0.402272617458206
0.399590630967019
0.392416405107586
0.39430000519102
0.39307464413837
0.391083077517532
0.391445170539798
0.395262146726539
0.392693557185728
0.399762717581154
0.404566070529253
0.409838869549736
0.417414372676221
0.426563279665415
0.432083069498571
0.444601800754172
0.461504666789582
0.47171239955303
0.486443153580423
0.506898785746587
0.522049491519402
0.53760757975985
0.560038422221326
0.584246461417616
0.607975283217538
0.63166657903524
0.653935572142054
0.684408852815281
0.710828287156521
0.742137033919876
0.783453502131211
0.808761552399378
0.825741937096765
0.872047039334812
0.895811816242071
0.915905225596315
0.938104957336187
0.971060221922844
0.99125064635793
1.01469183057397
1.02264760217701
1.05381805501564
1.05843225957173
1.0470462329624
1.04971961940144
1.0551885568889
1.05313524932084
1.05470403500504
1.0532266241946
1.03276536847246
1.02595001872923
1.02598694069371
1.01367100806685
0.99525462800314
0.985507644373909
0.968535854603624
0.968647328562527
0.961625584715424
0.954890906895106
0.950817260688206
0.94000586243358
0.936168466913871
0.940224069342478
0.953393617763656
0.941418897871821
0.937426090400167
0.953305403094208
0.972922376811289
0.973969424644503
0.976505725842227
0.989067388491642
1.00892485674458
1.01022139127023
1.04195433109319
1.02710824238554
1.04506244630729
1.04797929499771
1.04054348243394
1.06725214352222
1.07582862442529
1.07791634049173
1.0810907801629
1.08565113287587
1.09563844103949
1.09987976477008
1.09662021271627
1.09528173708341
1.10518351914953
1.0940227747747
1.10972863519056
1.1177397753204
1.121352892321
1.1321530775527
1.14983703794825
1.15463120572466
1.14486886417068
1.14991764874087
1.16196049969476
1.15588284914684
1.14498982059394
1.16311279040524
1.17921309573309
1.18808434883807
1.16263477487354
1.18404113232714
1.18895402002371
1.23254087509648
1.22648420141259
1.21565218640417
1.27453549713245
1.30701430883307
1.31908812043346
1.35307217991832
1.35108873581985
1.43455369073119
1.46191255509904
1.48175014616477
1.52314654105441
1.57060904620188
1.54306227969228
1.60352762191516
1.59348337418557
1.68168756225971
1.62998414810962
1.66233074165914
1.62779191395822
1.66041073109128
1.67535036056839
1.65338360231394
1.60434403728259
1.58940420004625
1.58420760523829
1.62509458704377
1.55675296959929
1.58856562682072
1.56668383980683
1.53676618908594
1.55408414582176
1.57324957868484
1.57401534074887
1.60907665143658
1.62813357875275
1.69523507206713
1.65425483059418
1.66152572476972
1.62210248990907
1.70920381079683
1.64064813881763
1.73442561210029
1.72491469809318
1.7155031740182
1.75494404662056
1.80972061776357
1.86758436371357
1.98635855008392
1.83854534610996
1.94116479241657
1.94206479264505
2.14385581910571
2.12867199517931
1.97121955401908
1.94215002942009
2.00981060358405
2.15823023476757
2.29061330126791
2.08151149496352
1.95909479126007
2.16238204191538
2.35277543224119
2.14038262012598
2.09538956886522
1.92872147538815
2.20436460397246
2.23039568642795
2.60236788123897
2.40419637000944
2.36297929645894
2.22619998590921
2.46653022484108
2.37836342134918
2.36736941288657
2.47108795445989
2.35741096885429
2.88986166094214
5
2.54069726881016
2.46728850034423
2.37484183986673
2.73700898301704
2.2204057530071
2.44535454985376
2.10946208461911
2.16788322455465
2.33952153744924
2.4030315435599
2.05120209290125
2.28585325243359
2.08846878951067
2.51352004475194
2.30341935275097
2.31619720556603
2.19386795477444
2.07578573247739
2.09254290349961
2.2963514997608
2.25574941322422
2.06862167296516
2.03782412588733
2.01733224446473
1.96145538651105
1.92966682825584
1.88836489321183
1.97681468018534
1.97902550584768
1.89925454381604
1.7900236089236
1.83156718753024
1.72682750313955
1.78254309664402
1.6060234260677
1.58272201513086
1.57096515566781
1.53806375280688
1.44529697587815
1.4371302725391
1.31389610663739
1.28435293964809
1.23982069479892
1.17821663221261
1.13119732590816
1.08792127024252
1.0370749216944
0.997483929264171
0.945251078643409
0.929839238674317
0.882262157636416
0.867272343002101
0.827834823587445
0.815716140779225
0.788771611864659
0.778976207382028
0.753369884255908
0.748910892908257
0.727278489907104
0.724712720782475
0.69756772876789
0.711655324459862
0.700861261583597
0.677169696596556
0.665077606829312
0.67839546795942
0.676679462290459
0.660021199137228
0.652310312186089
0.664454041922835
0.654420364245197
0.658784819988886
0.659850177492679
0.661958085930072
0.676496829571837
0.683224349888778
0.681201584670842
0.683446316938664
0.697742276047458
0.718118791520953
0.723532591064954
0.707999376160215
0.724696923738676
0.730795737008999
0.728317520960287
0.757975435128581
0.73463113245501
0.761331283170999
0.754649681423549
0.762113742175026
0.758245407603363
0.74297510196119
0.749156888532875
0.773086209544204
0.76091412348442
0.76620670026534
0.786330922036459
0.776770916853636
0.76886373541712
0.778970952288069
0.780250060028521
0.782273051111396
0.776641595273547
0.780321087474007
0.757730410104654
0.754490242868889
0.753392261310308
0.753897479909257
0.74808109130848
0.749428894436413
0.746887051839672
0.737575481670958
0.732269870383527
0.727822719043095
0.724561708670929
0.727519640727897
0.727048837932795
0.732382536357151
0.738470341186335
0.741411040816437
0.722378699065361
0.728384637242551
0.744581121331616
0.746888058199261
0.739830881080124
0.752482983074172
0.746384327906476
0.762624446678185
0.760223169214152
0.777866407949079
0.772981394305198
0.789029042202776
0.782877061781431
0.786678364375579
0.741383129232612
0.766970690684397
0.77868605814494
0.772354796941964
0.756265779155339
0.754128376949591
0.747737739184207
0.731062791489522
0.731952711680334
0.738662944155454
0.712461844585365
0.724385994999401
0.726785148084087
0.726572785549623
0.723529932777436
0.721215579503008
0.709475869664583
0.724107652194614
0.72846627138378
0.742271649890255
0.724597110885431
0.742571798793658
0.740872397960116
0.749425407093615
0.74753758739186
0.757419403320552
0.768006214000575
0.77936822932338
0.776318625579888
0.781365644824321
0.754077576745836
0.760706207544077
0.768622650101723
0.811191073933655
0.804926474600376
0.795553077319256
0.786699078155717
0.795497450547201
0.810153705726511
0.820687754328973
0.790208486695169
0.795907825791467
0.792314867935546
0.795324013606535
0.808817540163113
0.826654895387419
0.807900550098945
0.813913440688069
0.783273529258727
0.799389636504938
0.800878571621664
0.826817397798811
0.810027251948412
0.831016434170516
0.82333158692066
0.810925700005521
0.810898882432624
0.807777605061146
0.805226232969362
0.817071922305675
0.788132783869281
0.79663789597154
0.81170874672372
0.789629629334666
0.752135697622723
0.806492535533063
0.788939292715643
0.79297595120246
0.77484983337774
0.830830923302841
0.807482114988408
0.806136224738165
0.8068424125808
0.801146176844177
0.79535487597767
0.794743547169353
0.787591242030767
0.824080727509478
0.804439001414828
0.828282063207081
0.816588479015805
0.824501895444603
0.822248495264629
0.844616705174502
0.818286622778658
0.852662180824974
0.834121830913841
0.822010928706311
0.836726118198351
0.888111116948629
0.83713135913398
0.855188300860766
0.846594776565929
0.885649537339027
0.885440750043038
0.900040669879309
0.889860194054123
0.902618743186133
0.885648579956296
0.923472108653945
0.909688669169032
0.912239899045344
0.912900032576042
0.938675108213451
0.941612785793842
0.943858347016563
0.972092368334721
1.05244551822117
1.01832378623076
1.00008255897786
0.989770028077103
1.10095734934703
1.01508652928207
1.06209812276596
1.09939727647705
1.06276958200134
1.02212561335957
1.20739335748594
1.11465790742125
1.019537564673
1.07109316989391
1.08810242376322
1.06306443143808
1.13075229176267
1.12442414648132
1.13042757236209
1.14172286479156
1.06318686081263
1.13973676349348
1.15538421117205
1.05661981187761
1.23179533211093
1.14256551674454
1.18344330121701
1.26166245920269
1.10356445629228
1.15909937959865
1.32427260171306
1.25050013143833
1.19450466115677
1.11662552470877
1.13981262915196
1.23881567210185
1.2554244705926
1.14186867810883
1.20168288600354
1.18575918582605
1.22904759408791
1.22178899427462
1.24360374336017
1.11537614573808
1.25873660584833
1.29753390810654
1.1386025379765
1.17758796641222
1.1423518253368
1.11679656219459
1.23984365517562
1.2869134212805
1.18908997555901
1.24742350481376
1.28970194501282
1.06680505604291
1.13108369619463
1.23269832081692
1.18313654383357
1.08458398593708
1.13990256521574
1.17299543406082
1.17575451185192
1.20780292396988
1.39563306703899
1.21817826643208
1.21050773404425
1.27077263641459
1.28769242490977
1.0832023750704
1.16144335011414
1.38512309735675
1.09267256474045
1.21022899730709
1.56175027949968
1.27490322394425
1.29001926692117
1.48000115687232
1.32545165149105
1.24305416375084
1.35289795427768
1.5258329514088
1.39168037016271
1.26137963171564
1.26643087717883
1.21170198581071
1.77934349821575
1.51401820137975
1.72665261330076
1.52381796885372
1.21737110962256
1.34816980640374
1.78654747564368
1.3978596508725
1.25330207119999
1.12661010811033
1.24312296431001
1.53400064896169
1.96996130180887
1.60154909528581
1.40727514076842
1.30811913017196
1.94360633564997
1.67424369266546
1.58978454769061
1.28184804069811
1.37589082627523
1.6921573991212
1.96247437077406
1.31823748450527
1.29206238321548
1.35696990733665
1.74056613025969
1.23670427948252
1.04055137050344
1.05567872298553
1.71757691535125
1.38535226550289
1.08640950727964
1.17941895334946
5
5
1.83791310840149
5
2.10089000654554
0.950827114384038
1.36315406024728
1.68321007896971
5
1.1530402663636
5
5
1.70068931757338
1.59317083769613
1.61760661228714
5
1.53301441916973
5
2.73816899993267
0.835527477369934
5
5
0.94092239023911
1.10788153832042
1.00845186978874
5
2.77798347219905
0.799640435972865
5
5
5
5
0.922294661943722
1.11510485016327
