3596
4000.36533379555
650.420452594757
1
2
2
0.0562107626495211
0.0663001356417755
0.0574438027705915
0.0677974764518171
0.0457148876409125
0.0749627960801613
0.0588540097388951
0.0659663967935029
0.0533076333321522
0.067126807989164
0.0507737016322441
0.0646267453399107
0.0524944358750989
0.0588010573018374
0.055513316075493
0.0789833720793321
0.0564352773056608
0.0669261109420604
0.044138881544185
0.0673712667159405
0.0585579526663389
0.0539527087466401
0.0500001175618168
0.0686876697214164
0.0518224774457136
0.0634708913835466
0.0457270341187435
0.0627784654753718
0.0536752294151417
0.0662732391117151
0.0481166636518269
0.0683378279509698
0.0456901256235984
0.0634634282631162
0.0562846592169718
0.0643111648029207
0.066631037105511
0.0684722473105519
0.0529509719080283
0.063193650437199
0.0585367639741572
0.070850550399726
0.0529719819640928
0.0735908713384325
0.0519482519454007
0.0659111791544148
0.0581073797162723
0.0636897539053872
0.0584066169709371
0.0571890803077507
0.0506400661381408
0.0637350534597111
0.0505086886382209
0.0732039000391761
0.051899575537802
0.075719916308261
0.0479690295378011
0.0626594545689115
0.0466132532264048
0.059947019882925
0.0570304247420366
0.0725263185465263
0.0649995442630683
0.0680311057471674
0.0428515648140837
0.0580722904036764
0.0475433092830497
0.0635285872306574
0.0533040471168128
0.0607204194282562
0.0548960762639082
0.0675048255057594
0.0665637207794424
0.0700465281972109
0.0560484522716436
0.0615524068429039
0.0498544002267581
0.061160620537448
0.0468623765198811
0.076009208042183
0.0548905911239718
0.0717700034561674
0.0473483724774632
0.0562469440107708
0.0488986364465846
0.0683507093150497
0.0502908787085187
0.0623601219239434
0.0599977821346624
0.0680264778443898
0.0413053469273237
0.0643146679645714
0.0434600046949941
0.0614771166674822
0.0457101499778106
0.0624610031838884
0.0506845484914836
0.0676184510774732
0.0492053664296569
0.0711826829431307
0.0470044839285628
0.0843114515336485
0.0651966911645307
0.0656380529117273
0.0684200887133079
0.0634925169030389
0.0460451161320217
0.080411699933231
0.0629673305009256
0.0654902836450161
0.0498995834677885
0.0587593029539621
0.0541995915574314
0.0622532457019167
0.0426440066245528
0.0815599036022186
0.0639709860794596
0.0704005115695148
0.0482967569539428
0.0612266357393703
0.0290556196050421
0.0825064212305845
0.0657780360398392
0.0662887393488078
0.0505141167030589
0.0559340605985562
0.0377408271023655
0.0982565376683186
0.0631671903526239
0.0679185418659635
0.0437393680462001
0.0652952509062237
0.0369572108900599
0.0588236621933932
0.0498154131312422
0.0651700359985264
0.0474022208521275
0.0569942184105509
0.0599102311856696
0.0992140786569856
0.0563249972036099
0.0658617849066072
0.0296097011083182
0.0639884659067522
0.0740462038310367
0.0776292915815699
0.0410164826117232
0.0772741483635831
0.0538650880327163
0.0606252357983973
0.0457983325714626
0.0532722430815884
0.0587621225814065
0.0652436520216563
0.0254272721544782
0.111471188987104
0.0560879993734168
0.0871970003874333
0.0603113090279705
0.0609658665405285
0.0439783728421821
0.064601349889494
0.0443117092751149
0.0622904763821235
0.0496755783237647
0.0522565126639965
0.0568204157838551
0.0825030426159782
0.0413466931219078
0.0606368147124675
0.0623943522578868
0.0606759486986497
0.0429560530129236
0.112558356445515
0.0569703980732505
0.0595084334071647
0.0639797385267687
0.0778968768434821
0.0357627180263769
0.066467036622758
0.0585929584955509
0.0586289497485824
0.0397077678319018
0.0565025298961325
0.0446014209437351
0.0743423540900375
0.0549700497907236
0.0643056200028004
0.0400458201634157
0.0503856891664628
0.0441934267786064
0.099409092085282
0.0587134473897198
0.0645840827854937
0.0408340108452989
0.0415854879574475
0.0641668892998989
0.0786550875964742
0.0478561386918514
0.0585638198466344
0.0403210472914553
0.0592574517988335
0.0402590488596244
0.0647880662319978
0.0373429114082701
0.046101933061315
0.0624307459921558
0.0727948876193025
0.0442707767130189
0.0485077172045761
0.0388178235908523
0.0562194440499958
0.0817943608087144
0.0754542110181369
0.0567992696567185
0.063945521923542
0.0331694563619558
0.0776200261083681
0.0640436851093284
0.0562237467368693
0.0499651679091263
0.0562001545872182
0.0527529555905333
0.0607294344839397
0.045958316198583
0.0689169592572608
0.0412966275233702
0.0555511583899975
0.0396132379936882
0.0584866908331466
0.0589428736729174
0.0643055847029787
0.0457403335275305
0.0537852721166453
0.0446094962365441
0.0736390534505758
0.0599143600683518
0.0603436951956799
0.0412721658979373
0.0591213823320853
0.0474966132564812
0.064848131515516
0.0463328430456939
0.0577828966120881
0.0281358254758972
0.0554964352708757
0.0694223913000091
0.0660353183843381
0.0506979690419674
0.0403324648820943
0.0754582132737219
0.0654788477378923
0.0479367953765071
0.0562380902681606
0.053816863753539
0.050537589777826
0.0508844334009911
0.0703723516010524
0.0592203318318205
0.0482217731436682
0.0549956959810183
0.0564174688031367
0.0537350006509253
0.0492785192228366
0.0351234727042503
0.114381759707746
0.0503481250722476
0.0554073156692897
0.0929428388913459
0.0734019451371326
0.065423532572574
0.0492663413322249
0.025420626713279
0.125118568552187
0.0761734412693272
0.0521528150302452
0.0551172673592452
0.0661587661711668
0.048772891831411
0.0657054649319723
0.0345083713825185
0.0669924401566713
0.0518621816781815
0.0931553184812172
0.0879827460815738
0.0533585861212948
0.0680767039492916
0.0681208461222743
0.0543759693464192
0.063797727078576
0.0525570639049271
0.0536515991189259
0.0723360159301148
0.0644682018923341
0.0690213758514909
0.0547634243155739
0.0546747415965743
0.075623092041394
0.0662899546835798
0.0542364325464404
0.0554810969963256
0.061301859983916
0.0529787436257738
0.0576028275023021
0.0547950714777922
0.0760420606911375
0.0420625382290388
0.0506240517041805
0.0828288707870927
0.0708690494648695
0.0592093001962025
0.0875403269665247
0.0620714653937134
0.0571929814171666
0.0567542437458682
0.0628982691386344
0.0586859368301275
0.0597770574385948
0.0409152681459183
0.0892227400432682
0.0623450633750027
0.0706965486465827
0.0594858069109267
0.0666402122015502
0.0526269634824907
0.0722253858442347
0.0629873719350321
0.0572420440814239
0.0579655277773653
0.047811159180137
0.0821591470372735
0.0866964914136008
0.040387783141736
0.111624227017057
0.0759779824840866
0.0713024636582026
0.0568419614102644
0.0681803590416867
0.0570943751170215
0.0677850602437829
0.0666966413069891
0.066087057695832
0.0600041014554479
0.088283494998584
0.0710485388056796
0.0742004575048126
0.0580581020602045
0.120564760200257
0.0983829301054321
0.100059125638551
0.0724181359910083
0.0586024579120241
0.101142334353738
0.0890501864981893
0.0944788871806973
0.100707431643677
0.0716409459403043
0.0824161710404961
0.0771475813053067
0.0894895506136637
0.076856668830462
0.093226930156351
0.0767825430598658
0.0875133638068773
0.078885095584226
0.10152613768282
0.072441184924397
0.103587204835839
0.118751679872459
0.10705996128844
0.0846908351754556
0.0972484685037397
0.0798601605409087
0.117078244653937
0.0975192451433727
0.155595939810776
0.0958417912771414
0.140983657137481
0.121422969441269
0.127871779287498
0.106542226049356
0.115307434054466
0.113371822466068
0.12350624611035
0.115925051857567
0.120983877977639
0.108721148133978
0.135217852944904
0.11479323660414
0.135875211533639
0.122551601906564
0.127413810432452
0.133697457726805
0.135417952451149
0.128727220083325
0.129269613575765
0.149986130350842
0.180101842483677
0.158388064102159
0.147337845423946
0.144673513694206
0.147797805399771
0.143228009080072
0.145803212093338
0.142367242838536
0.172585687584543
0.144502749824033
0.196144361580943
0.159602473395176
0.183854197440841
0.166020896975172
0.17021479013482
0.17712594026233
0.192979248329277
0.170865778460646
0.203455117673279
0.173749189022309
0.165264036182948
0.190973493894047
0.201116820381883
0.185233087309042
0.205907242488075
0.177372907783755
0.195570039870348
0.180662518568624
0.209457490485483
0.189015540425714
0.227217602339585
0.199609147409854
0.206808782806736
0.210412245242094
0.224539167177624
0.196043885174485
0.248884972941247
0.211953656495824
0.236885061205585
0.222000222684202
0.236142117177442
0.217414720476318
0.234220472558697
0.252874758731515
0.258193789124283
0.25390099850312
0.259459004386384
0.236762706345232
0.255381329061641
0.259341279883062
0.267469958348283
0.250106975971067
0.263170576798598
0.245998675516838
0.259166325798825
0.241131518926907
0.288442823575262
0.266956402675779
0.289216457418309
0.271015208305326
0.286207378227453
0.269533137708357
0.294099834677007
0.292677731235391
0.295215004881371
0.315582111185792
0.334919518232448
0.323920190628686
0.334733289976345
0.293162656056361
0.324595083267529
0.304945445711599
0.333177579937856
0.318629105408586
0.325391412073749
0.316808715057508
0.343318607509476
0.341273917049196
0.348267218831561
0.340248462012945
0.363274125321817
0.340367286440964
0.370868721772604
0.361198840735993
0.374969912766378
0.339280223140885
0.382330230457328
0.356079605071623
0.39173117384995
0.355681257249227
0.394205065314386
0.374862134345949
0.403705935611069
0.368999834044613
0.415775008394575
0.392325254580632
0.42077469228733
0.3970399499321
0.421260385910628
0.41136549744391
0.434103956997189
0.410064876578521
0.44742943432094
0.423200433110035
0.432645828101231
0.426561853156501
0.434933038337547
0.427556535306028
0.466299782154063
0.441903928340274
0.476919545472099
0.441820969268062
0.460554047820127
0.457301210127561
0.496626538917882
0.455124913403407
0.501465048876882
0.463412330966787
0.521633319248142
0.481924708000829
0.519059365482371
0.471273845274048
0.509748762305482
0.483890617306103
0.542832675925561
0.489558283831183
0.522970799134952
0.506836876108708
0.535271511054582
0.493977931188961
0.53717773661692
0.5215897207616
0.563755458793842
0.547464175347542
0.547950685325795
0.545466019244727
0.604955360551483
0.541088397259633
0.577538969670325
0.555969444236073
0.576184973229141
0.53341984723924
0.620218920330006
0.556686092660409
0.615602923135264
0.584284630662598
0.614262506954697
0.583286234650871
0.602403829171819
0.587173596813866
0.652721494309172
0.595377750389315
0.670562226434973
0.619984461999906
0.653620933761073
0.632848959225724
0.640475546492652
0.627996598885216
0.664757795968061
0.619242975253029
0.678624814651431
0.616389586657744
0.713835424826648
0.656404837282995
0.686579758195992
0.63956934453245
0.72350850118992
0.6531964437142
0.664741573780347
0.640844860352487
0.714051558246424
0.672367795240056
0.780926198419618
0.695557793428514
0.719331154947533
0.682236925151326
0.758323255956976
0.722142388683512
0.76276895247019
0.693128688385715
0.745287179470178
0.758479512593763
0.789925150750747
0.710957795475154
0.796423574921598
0.698560618290332
0.783220606123279
0.74276506976968
0.752743875114747
0.72758340716262
0.816612452813485
0.757738232538633
0.776053472220457
0.737774952075346
0.841168218743651
0.751942155517292
0.809554725539101
0.788232801229914
0.816209010647595
0.810925246147229
0.85880695808907
0.760633221924337
0.82346534580378
0.770172086050292
0.805551098883173
0.754059738129751
0.832691663184974
0.815205307266348
0.857104292847602
0.828108797003277
0.827665121811894
0.813835857674008
0.8551731677543
0.859188588339513
0.913275893515907
0.900648987815828
0.875293113371197
0.853789913605391
0.918522446972689
0.926977181836637
0.89098974800689
0.950918143123735
0.94380944649026
0.83812891191942
0.849528282788337
0.845555240194272
0.944492575704593
0.919164952578177
0.936529126731415
0.857547532529087
0.930572000273147
0.920667961200647
0.937124364224635
0.902763065152437
0.96559564117658
0.880589887713186
0.984999274664954
0.951363336078189
0.984128788384447
0.991792050328755
1.04050818592982
0.9690064630886
0.979758061183957
0.907233885265775
0.938476600296101
0.895586101070455
0.960404577869507
0.919539403739244
1.02170091025981
0.932727262468914
0.986341659585128
0.934860492898086
0.978307099321255
0.945218929259577
1.01904398535571
0.969595432662506
1.06005793232247
0.999742499132716
1.09334001989997
1.02470355184037
1.00046088577131
0.941311595218222
1.0215544922118
0.987222805462233
1.02119870826706
1.03773987645324
1.03145570897359
0.972847966286328
1.13421910979493
1.01183795429821
1.05167308663702
0.998156974255865
1.07272654128092
0.955305324601572
1.06762234898946
1.05913801617026
1.06463184628742
0.996044659388098
1.05628331209178
1.00346482676866
1.15140056862774
1.07444756843837
1.06143812300747
1.02431741362616
1.05870270692069
1.06468886574655
1.10524264973077
1.06127842268275
1.09690048105831
1.04586222699515
1.09361628146643
1.06904375939529
1.05818280979756
1.05425081005732
1.09559444555885
1.03217566478371
1.08506868982846
1.09342845522601
1.07137787816684
1.06092370125627
1.06450668056156
1.03735262940789
1.09971777898709
1.0695591795637
1.11889186157764
1.04994465698843
1.03806810850219
1.05571916964777
1.07942002536047
1.10272494717589
1.12417248411184
1.04048357516905
1.14827298411211
1.10657802242525
1.11115585012739
1.05908773509863
1.12414943373004
1.08073612866534
1.13716630743116
1.04916202785751
1.04423966676057
1.03059196124565
1.14769185329137
1.0309519668079
1.07164751091246
1.07557186707888
1.11196497026124
1.07453952940707
1.1045237847467
1.11014846194391
1.17024894879556
1.09158949812244
1.13534738505231
1.0533666885675
1.17804149180984
1.10518149839917
1.10675947651789
1.05617403989
1.11988273468979
1.10308104882575
1.12637609740865
1.06528977751036
1.07463836055772
1.04134016720119
1.13879698000698
1.09891195312084
1.13955966873788
1.0828309248226
1.08593109653375
1.09707079702331
1.10603450889693
1.03744232252305
1.07330593782344
1.11417243802465
1.11596503706756
1.0490078991426
1.07300295089921
1.07002955639758
1.14169318862361
1.03992310979612
1.10805938047889
1.08887958798093
1.06472639074391
1.07743218684828
1.07289903013706
1.0906824533456
1.13379687517278
1.09456897746967
1.11019347427293
1.05766768312628
1.095385842714
1.08708363536498
1.12994054319279
1.05489658044745
1.07137897504924
1.06403326256971
1.10594038693114
1.12791680618714
1.07098011024133
1.03606953117278
1.09166001094752
1.03947486415102
1.07821833834302
1.06916732490496
1.02529816834725
1.06322419992847
1.16138295512412
1.04058125643627
1.03918615340754
1.04939236829753
1.09295236122379
1.03410241792528
1.06391916886212
1.02929952954971
1.0964825373238
1.07590174171848
1.06352712110392
1.05102538567063
1.07872693170148
1.03338574749771
1.05308685045521
1.05593144926613
1.04575030617175
1.04519405440181
1.05194654717405
1.00970953538975
1.00865544094957
0.987906342088364
1.01623490287556
1.02087187355342
1.03375903462838
1.0224261887711
1.05793051308217
1.08086552505547
1.04745876314692
1.01676644669036
0.999912971182526
0.98315657468968
1.01743490701862
0.991726997938433
1.03294703139668
0.989362199991901
0.997302982267012
0.976018825256042
0.989955851494249
0.99189725201869
1.02657622177031
1.0211803747502
0.999326504417648
0.983668495222789
0.998183892473151
0.995781069328421
0.960517601937746
0.974754873523654
0.987987713866504
0.93582966056386
0.961428979086486
0.936309189600393
0.977121683035258
0.965008966108674
0.920350229434162
0.951757138607286
1.02477920431549
0.951709638047458
0.969627345783145
0.960766792659133
0.929075783485524
0.899863100079442
0.94515000992087
0.911869678685809
0.935002810169561
0.95229768614419
0.93530691106315
0.904616619236118
0.91322744544706
0.888095877583012
0.913359145924131
0.903559139451455
0.901948591709854
0.897578334800072
0.905391373724918
0.870753233359267
0.881492210891474
0.880229420664569
0.862693751357609
0.856327258338656
0.894622338750441
0.852350723985712
0.866549354394475
0.857932529672173
0.828740927355323
0.849175407159138
0.859836074685178
0.84106729548759
0.872468012450503
0.811865194032069
0.819116605278507
0.836079094853982
0.836592914305771
0.822475604765908
0.826667845128927
0.814451974087563
0.827918091478616
0.818512917414456
0.823470661618925
0.81880501541814
0.7978615574381
0.798436118169537
0.794309154253453
0.785141483499247
0.797622526933231
0.764868809979198
0.793122195015903
0.76349893585474
0.762577335266312
0.781127429429922
0.771170325302837
0.762660495453567
0.77604100193154
0.756240089275183
0.743856728604256
0.744047601476197
0.755293724311254
0.74130741776655
0.730207798698051
0.719923314478668
0.721041849433337
0.73604415387113
0.722989275624937
0.730955102649639
0.72667444888295
0.695880716923819
0.70393162418493
0.695570990897299
0.698499116931138
0.694727872867914
0.694541503603583
0.681105682368876
0.678256901170015
0.67901363534282
0.677745632382405
0.675443803285232
0.671990753195016
0.660833389264607
0.653716707662179
0.657852915488693
0.666102640927374
0.649186485048189
0.642354541883604
0.651749031357466
0.644296213195793
0.642847291187814
0.6392751333728
0.647888273200118
0.639301240629848
0.63326264911555
0.636604423790717
0.61933142194682
0.615976810414378
0.614783336924808
0.595642898143364
0.60144067442557
0.618148110968121
0.606972697702454
0.598341738178004
0.594308866715841
0.587953025394243
0.58469062350848
0.595047070291075
0.584126985749669
0.576221298193818
0.571291248267339
0.56606168174857
0.574792779393002
0.571460464560906
0.576847814392042
0.573127994852008
0.552353678065728
0.550870484319916
0.554537878323872
0.547494799028053
0.540653433560953
0.545532766649334
0.558328664167614
0.551352971946458
0.551574021057392
0.543055691723868
0.532519550507693
0.525310567817577
0.518307959745923
0.524662450985979
0.518453456370183
0.511480755804796
0.516322890143141
0.51118036608654
0.51608845770647
0.501167825926567
0.500386395331771
0.502914939504234
0.495329444452906
0.486913607445923
0.484301250114988
0.485092098277815
0.484949290697344
0.478852165918132
0.475285350172218
0.473966902411782
0.469426401320694
0.471796300810611
0.47079848436575
0.464796866429647
0.472340982755914
0.465522728637012
0.465375383254883
0.466904276999763
0.464376469461494
0.458424152839548
0.461107976677971
0.452272634278953
0.446208239515068
0.447363296912477
0.444228617361908
0.437021987099256
0.437340812523034
0.438751740505127
0.441459780133826
0.424641358523883
0.427637031512778
0.435436406938974
0.425834373325781
0.418728685321476
0.42241210127063
0.418714081905103
0.421989470599985
0.414253718356144
0.412224231887184
0.408974405950682
0.400865487655824
0.407240720656593
0.403216752530055
0.39734278405163
0.399641054125392
0.387437107056457
0.391488553852805
0.389396512108516
0.386330760596525
0.390231643913008
0.391882862157659
0.373230032580974
0.377675205683029
0.383399473551742
0.377390696211553
0.372594720597739
0.372061358029672
0.365445235748672
0.370456415695859
0.369161899985209
0.369432064238648
0.363990424582569
0.361393627523567
0.353578856340073
0.363220958912535
0.354740216924843
0.345254156875836
0.348271028222976
0.350095507918537
0.349337626525203
0.348211467552698
0.339109623816532
0.338082934771829
0.337457522107708
0.339043738645857
0.336939402783755
0.343893920031588
0.336271835696934
0.328479588050402
0.326471520743196
0.325276162151531
0.331273429246029
0.337937135954417
0.321855100361518
0.320730285299674
0.321764902119584
0.324844172277134
0.32005852681985
0.31914012932146
0.321990346498913
0.321619304859689
0.312179504886468
0.317849642322462
0.313644702088482
0.318328910240228
0.31429440667655
0.3126986232743
0.309581171183824
0.306977440482226
0.313659068332404
0.307925485245552
0.297686050746052
0.306684625248625
0.310526212275396
0.30476321677326
0.303589225937096
0.304323994998671
0.298685769907132
0.310652645593943
0.309024505369343
0.313652163813647
0.307659762394093
0.310910042656377
0.309069472713471
0.309645676456293
0.309276491458914
0.31315418176161
0.30760400764013
0.313338243269774
0.318177636827581
0.322411878178794
0.313954824898583
0.317161142911082
0.312732383686797
0.316392957606309
0.323827554122203
0.325603106705627
0.31691302411328
0.32337730732337
0.317297615517125
0.333112393123539
0.332765791139297
0.327263173040912
0.32720585735954
0.335869941339674
0.331938403432936
0.337048216135499
0.336498959599027
0.341586868564531
0.349184892159643
0.346691169699158
0.347928991090716
0.351541425137333
0.349985563352645
0.361389497430158
0.345388291346071
0.356520793503332
0.351872532190479
0.3597639913709
0.359784713484874
0.363717372303653
0.364119035409325
0.375636942231531
0.37233945305573
0.37795746245189
0.378684556857579
0.3888632911406
0.387002279759281
0.392946898759414
0.394000004509049
0.403299390218001
0.399912805483573
0.403691631604835
0.404162674816255
0.414561309636243
0.42052820989052
0.410124022242236
0.40685182930879
0.418254896052616
0.412017878243176
0.41869878710573
0.416004639955269
0.423991762239159
0.428823655116091
0.430789950435381
0.424869175511484
0.430490010207747
0.419880719057464
0.436744602846182
0.426054984690596
0.42782893665548
0.42701410601245
0.426682125076002
0.42291415498011
0.425908542152913
0.429305994033811
0.428445223629727
0.423694065829221
0.431050710168594
0.414360700967842
0.422498983157604
0.418941963907667
0.428362425780807
0.420978242239733
0.420867284959125
0.417507382885463
0.429455296108426
0.420625699539143
0.421891685038482
0.422199210981991
0.427106468825128
0.412487016279758
0.418230231924582
0.421031672181814
0.422776941386926
0.416735125244014
0.42487123747665
0.423873591305395
0.424205369011844
0.418362328325859
0.423778352385873
0.421799283254737
0.425838476149981
0.41766434471371
0.419584188964557
0.420891351938217
0.414999247725086
0.41436085049233
0.428265624261285
0.419112685987877
0.427034280095944
0.420650385904732
0.424217014465472
0.415016583345592
0.42851737209293
0.416949849491717
0.414073722307155
0.413007512708167
0.424226717871731
0.418172677020637
0.414525402590341
0.40085135937954
0.399281353394172
0.408653739277126
0.414261716207383
0.40134500725175
0.398678398289468
0.397109165528217
0.398003761577581
0.393246942553832
0.394582845997256
0.382156864482028
0.392454752197717
0.37522835113633
0.373398620169915
0.373646366947397
0.377765472033321
0.365142859445959
0.369213903483982
0.368945305878488
0.36845995656117
0.355269414198953
0.357662306431475
0.354149364618422
0.357632126473806
0.343643173920588
0.351348567192447
0.34286393617884
0.340071173847001
0.333927663078808
0.338727964084372
0.332307195781796
0.327259369999419
0.320272072828179
0.328036196596139
0.32511507653928
0.320145798527412
0.317227867340209
0.31338120767568
0.3064851508452
0.31254053814082
0.307446035804035
0.305943241024787
0.307599618381818
0.297363808758404
0.293231180177916
0.297275576939999
0.287462291547103
0.294458715349298
0.290808950430458
0.292094750080226
0.288191365564495
0.291148799580295
0.286371116161969
0.288339200187712
0.285836993858146
0.283264583415304
0.279519309045194
0.279829981132746
0.275007792186426
0.277902807427702
0.264448584205182
0.274094120120868
0.271299676107003
0.273450883109759
0.260643459694132
0.267881702380052
0.260497350018253
0.257382637404914
0.261597487199217
0.264507875740642
0.263104619828978
0.263287096347006
0.257507823638166
0.257802664177929
0.25718560286283
0.259379549684258
0.24873117374469
0.251993470980606
0.245951018516281
0.252642400270437
0.252136488776019
0.251455084851241
0.241131698356719
0.244596106644152
0.242670926648676
0.243503286084227
0.238214846984823
0.244911746916687
0.242311365320054
0.245885461813103
0.233336881982232
0.240301837422223
0.232048520149094
0.23496880942069
0.228629419648499
0.23897510789272
0.229605743684142
0.2291677026472
0.224431668182085
0.228197111347774
0.232198100156052
0.234854797753703
0.224027519832396
0.224865457305802
0.227947697580494
0.22854476633295
0.219668994577833
0.222660288069861
0.225980670489053
0.225894597679438
0.22026870598554
0.223580389427564
0.219078889690053
0.226727504274703
0.216548561013149
0.2193357979159
0.212187429469269
0.214674292278215
0.213804701350789
0.220052037628636
0.207348964934939
0.214457085381077
0.211408764666097
0.213596184183626
0.212518859386693
0.215430200408716
0.206446883145121
0.215414806298911
0.208215185897497
0.213656994622423
0.2094106422199
0.207238494478225
0.208889558696792
0.209266845706888
0.206310235964287
0.210305328182705
0.204733381566818
0.209131454801164
0.206201254701291
0.20742995888805
0.200258403311261
0.202886344683929
0.198185965643136
0.205336307576042
0.200687404468637
0.202607154375058
0.197990006614399
0.19940763463312
0.195706450274088
0.195214934897002
0.195618495561099
0.199446117919821
0.193019084875394
0.201759823048975
0.195647933064576
0.200383998564419
0.196346703130989
0.201491088348127
0.196407537463253
0.198808305828189
0.198788881015246
0.199174351537219
0.197517081072855
0.201181566673664
0.192036741637197
0.20143324975647
0.193987100497086
0.197561074990966
0.18836093950595
0.196107929650926
0.192383328827654
0.192509696350424
0.189643798185747
0.19139431001484
0.186922001430524
0.190826880112053
0.187430612459991
0.189389899214994
0.190423051933676
0.191225262911444
0.186134551076211
0.192656878346091
0.186164069076482
0.191474055829535
0.188479640404835
0.186751748378928
0.18389500123288
0.187865111285794
0.180804185296016
0.186208492686378
0.180112663868876
0.188073338922623
0.178364487947734
0.178827758050588
0.179089189209181
0.188191849646042
0.174540263328478
0.182812639576934
0.178086033387593
0.180865952344198
0.175587287820289
0.178018236736383
0.173942370679419
0.179908205320279
0.171740006025989
0.175370291447186
0.174689911255632
0.17569924835468
0.17513543969328
0.175864262551971
0.171009945228351
0.169734506764229
0.169471229258609
0.173976571162219
0.167360317515133
0.17400256501882
0.167418971801598
0.171918404158747
0.171478182751532
0.176862830053298
0.168304067791305
0.164934056704566
0.163955122058896
0.169912105861203
0.165401773052759
0.168270815518835
0.157314704750207
0.166774893945689
0.162586831663468
0.159083506613809
0.160525314202319
0.163984146853175
0.156689504755941
0.162267885007548
0.156321429366605
0.162838014060622
0.154094891433382
0.156719476810693
0.153248578496098
0.1582015284401
0.152107916644405
0.155805799964981
0.149216572676555
0.154015255353782
0.154416910925681
0.154425512831916
0.147828568837552
0.149192432127574
0.145478244378641
0.154512799798655
0.145552006846302
0.151551428924875
0.145427304379796
0.14379825144055
0.14556146453666
0.146750933919474
0.144681333273137
0.145475394474788
0.138810135870515
0.144609161261119
0.141029163495957
0.146324390845475
0.142413513287031
0.145782527426372
0.14063652647113
0.142848430668087
0.133358307029305
0.141185868691684
0.135636018108143
0.138354373575434
0.131779752413358
0.135293554999322
0.133143490054629
0.138815745020088
0.13387081847625
0.130915957321611
0.134823632678589
0.134325358941933
0.126298867281075
0.135196351526475
0.132365731135606
0.131774955225687
0.127086973031815
0.133991144121924
0.129080160159546
0.130950766554299
0.128021440136955
0.129482194853437
0.123838774569216
0.127376491509773
0.125378438408083
0.126624621718421
0.122746531584305
0.122704972840857
0.121976300436369
0.125097580606667
0.121784012284509
0.128319112373953
0.123788041869933
0.123775671972033
0.122826230255676
0.125296897200739
0.119478074652612
0.121463690740701
0.118997843111671
0.122291814323662
0.115467054565635
0.124080352465664
0.117578445325071
0.121360855253917
0.117876196595415
0.115255265111748
0.113323906516189
0.120033933390478
0.114977454592944
0.116827598242638
0.115229306038112
0.115865982809867
0.116421597126464
0.115154916362868
0.111767442122368
0.114230289083634
0.116690225282896
0.11734436210738
0.116736531149444
0.114253270959623
0.111614781943874
0.113415564598572
0.112274929218625
0.115062734507811
0.111326588653808
0.116820279958064
0.113221209565768
0.119328463318978
0.111055615297886
0.107899736206233
0.11247812742724
0.113992469392658
0.106451106089096
0.118168811111121
0.114640130672355
0.111533990946595
0.108232076435901
0.112693326995904
0.108777023057047
0.111121950179222
0.107036430932471
0.108804467399126
0.107870209232188
0.111948644728471
0.110325739748248
0.1097206483338
0.109757357146396
0.110128222041822
0.104544231824758
0.108074149591297
0.105944586515601
0.109365387748616
0.108694648041111
0.108177756510094
0.103467113138517
0.107076517396639
0.101760676202577
0.10694274142928
0.101130169188264
0.105171307547863
0.103065789775543
0.109356036859666
0.106150006540271
0.105887056631651
0.106282205523635
0.109926628310367
0.10250232155506
0.103726851461745
0.0985406661620655
0.102890539787131
0.101646979868114
0.102415642487962
0.096393116295278
0.101709191285714
0.0995622983114503
0.105799629236708
0.100075658361728
0.101808025477535
0.0976976353129231
0.0988814812305154
0.0982868853065692
0.101090170283911
0.0991586399901773
0.100141088309584
0.0981593049276429
0.102244719209703
0.0946873655210733
0.0983043437171497
0.095574819779976
0.100626786177382
0.0955995302404084
0.0997131077082896
0.0968779340271406
0.0968633020958078
0.0960878019197203
0.0999859111004479
0.095964309460697
0.0985478389789905
0.0965086389087453
0.0993274384986323
0.0955571342875433
0.0970359048522154
0.0925030345485627
0.0976770381893333
0.0933655250548713
0.0926305987122209
0.0960948111642357
0.0995832771925437
0.0909934304916046
0.0936514153778767
0.0957979705790752
0.0982337907897782
0.0955120981736008
0.0914246149220862
0.0930181844907216
0.0922029096509656
0.0882627720291664
0.0939195804891759
0.0874823929043784
0.0928433911250949
0.0884998074811434
0.092304123626376
0.0866989096313723
0.0912760223027073
0.0876455976346673
0.0846168659184197
0.0898762353753291
0.0931113393957536
0.0872916398295859
0.089632431190255
0.0867781838314591
0.0870662778298029
0.0851904281834534
0.091373933499447
0.0849630467247986
0.0876751229214727
0.0850136700817872
0.0880174199859443
0.0861246111921652
0.0857475831690224
0.0807325266444764
0.0889469113196704
0.0848699330475611
0.0892288641969706
0.0807658415615708
0.0862861409063139
0.0808152510261262
0.0827350177505904
0.0794107472234456
0.0798205337457887
0.0785861558360588
0.0834658773976617
0.0800472257583223
0.081277547147258
0.0815638276967536
0.082225857900412
0.0788025669743614
0.0815764093827791
0.077665126083518
0.0799097264181995
0.0790670990440471
0.080989369859121
0.0771903465903813
0.0790347073097922
0.0751052865763394
0.0798485677559798
0.0764723737274389
0.0789085647426144
0.0767466764914037
0.0805508552857305
0.0740162630022268
0.0798441219581921
0.076774861006323
0.0776304201367435
0.0768335139109179
0.0780097024104999
0.0775618646852985
0.0762326310578077
0.0753668629921162
0.0765085380206456
0.0749310021735621
0.0738139745722168
0.0730954705224068
0.0780431950179726
0.0719366302649449
0.0746028031228984
0.0692930336943767
0.074924334005505
0.0705091381263037
0.07219074988425
0.0698781503113223
0.0682716202021098
0.0712838447638563
0.0730181428806807
0.0691957142804134
0.0707247504473417
0.0686478715630506
0.0721654405341952
0.0688662942491213
0.0692122175521015
0.0679398421415239
0.0726420747956355
0.0677319797802768
0.0679420426589966
0.0693687533224676
0.0704522524916315
0.0711306921507378
0.0697130716684225
0.0683666681649412
0.0687356204830403
0.066909434054865
0.0703642286615405
0.0642255748984927
0.0700826395751301
0.0672626493537624
0.0677040538854431
0.0646352378215542
0.0679685261280999
0.0659014830726569
0.0657529932227766
0.0632791910123241
0.0676261448118585
0.0697164133776033
0.0720645365310757
0.0673883515612807
0.0676943080918544
0.069097610904041
0.0711963493723222
0.0667289147027015
0.0668074793389757
0.0675176491710446
0.0717100071852608
0.066925786846778
0.0692778206942802
0.069699400935412
0.0673415331349073
0.0651658350092518
0.0632628365049854
0.0586644141909884
0.0600385157321848
0.0642858281199143
0.0696329613867194
0.0636727473754658
0.0596365499160641
0.0624454241252743
0.0607419517999936
0.0629070850607305
0.0559792133255258
0.0646573086109901
0.0627703341477745
0.0596688931136664
0.0638606992861928
0.0580168749366698
0.0561778468576677
0.0583853866766716
0.0633318309025766
0.0703953728561473
0.0561741502652058
0.067672610337067
0.0622008536579362
0.0676801716258984
0.0568548142560951
0.068532201577784
0.0572175830934993
0.0679555074977559
0.0515559593595783
0.065600708158048
0.0517593426456731
0.066705328834291
0.0539559938722405
0.0733164268499478
0.0549943977709455
0.0735787240433415
0.0577412958830184
0.0694370948187711
0.0491221874192222
0.0598642761014832
0.0528280586216384
0.0678176756600411
0.0600183850991525
0.0740131881577147
0.0552476757508906
0.0512656112759987
0.0552730449906347
0.0636943279273361
0.0634025970051292
0.0570854389180431
0.0619857999327687
0.0458397820175681
0.0818632730122711
0.0400709458752115
0.0776710238290534
0.0349411808134331
0.0902486759458969
0.0281815925972046
0.0868765039603259
0.034413541982318
0.0910465492769081
0.0369593699163075
0.0861593715357648
0.0449520794672609
0.0764218326784654
0.0522547278287357
0.0618870215931346
0.059298223082272
0.0609367499235244
0.0598063817662538
0.0603869843262711
0.059497988677971
0.0629593367202687
0.0566084609984191
0.067224885174411
0.0525496062606088
0.0651994121249568
0.0525258738618623
0.0660103974002619
0.0511168729319562
0.0613586722372148
0.0532588834128742
0.0618453209866737
0.0565917434041168
0.0628947966331039
0.0555760592831919
0.0614104282522116
0.0531780662784272
0.0621388357900305
0.0540531828856524
0.0602375436176798
0.0556010437461707
0.0629571901886786
0.0535666731064267
0.0619946931596713
0.056095012093825
0.063585220362067
0.0543726230079153
0.0626204740294274
0.0530555477700771
0.0620641220039227
0.0511498240406548
0.060514317179526
0.0562689555251227
0.0623056766555971
0.0571723682376882
0.06077381105187
0.053011413264215
0.0609185878107701
0.0531368122632344
0.0613555918510622
0.0570129609514881
0.0607698952703976
0.0548269981052833
0.0592348151735602
0.0540460504292843
0.0619879913888658
0.0548056716962085
0.0589861781611343
0.0552633266525747
0.06003334997725
0.0543239073308674
0.0605500810504442
0.0528592577167958
0.0624536321641307
0.0571620452009537
0.0613097608287584
0.0567013289915721
0.0623295065705568
0.0551562918821093
0.0624286232479289
0.0569111217335778
0.0595948789753697
0.0544161567237384
0.0600900110298197
0.0581382654947491
0.0595976235105367
0.0518803577238874
0.0620596014135684
0.0561707187452029
0.0580367307459779
0.0552665920186808
0.0608442575134969
0.0558959144592372
0.0606550493706706
0.0569134884835348
0.058208967078365
0.0552430637868015
0.0589995603563256
0.0578296125204649
0.0613693286365309
0.0549431907723168
0.0621687925364256
0.0572815856381043
0.0628590327805571
0.0576124311656151
0.0621000849145896
0.0569299521148232
0.0615924012713659
0.0555115873915147
0.0615875658891332
0.0556687856877848
0.0611625053322266
0.0584569008783494
0.0601523335357617
0.0596668317426407
0.061301284729995
0.0562940703324429
0.0623121554734731
0.0583585403313413
0.0612753566802524
0.061499400463043
0.063714311129042
0.0570201431419754
0.0612202714022304
0.0600968925933289
0.0629142583920358
0.0581216299892193
0.0652190531886238
0.0591939551540855
0.0605289442988732
0.056713483865794
0.0598999713495714
0.0602533655027224
0.0640224946793231
0.0604942165223186
0.0628958161965998
0.0598215675122256
0.0621610981666837
0.0586364136974758
0.0634738477751448
0.0573543940034051
0.0604193007385006
0.0564429139169262
0.0633072685168333
0.0596008942991404
0.0627986359572358
0.0576279165495864
0.0627808766844172
0.0597030891012343
0.063345661646259
0.0611135779377838
0.0650852477930923
0.0612783332933959
0.0646311739136092
0.058514668703555
0.0635150755913118
0.0620747884997347
0.0633406737357716
0.0589401072480035
0.0639759079022362
0.0589705611646819
0.0636510704238855
0.0601429283182975
0.0659013770283555
0.061059250646864
0.065193383014756
0.0582229588439032
0.0650171202161239
0.0605215427486638
0.0647412703758817
0.0619662587704862
0.0649384822836026
0.0609298476920416
0.0642659686125728
0.0614516122489302
0.0658685718498284
0.0590954460776536
0.0637652498043945
0.064539181865374
0.0651239027094759
0.0588703657885779
0.0629708578445779
0.0617214769704095
0.0649595929983185
0.0618337021959291
0.0683066297236973
0.0632056919892724
0.0654999062189512
0.0591527243329557
0.0643518468852654
0.063740316403653
0.0671559826299977
0.0625975483858846
0.063534392046778
0.061575731861668
0.0668643319643846
0.0587886776743034
0.0625790365364144
0.0613846710990035
0.0653319751814516
0.0583446959867402
0.0616110937565862
0.0613239425708592
0.0647095487420344
0.0614739152309863
0.0624496520861903
0.0603948247915173
0.0623878936441776
0.0605928343020675
0.0634929717306112
0.0585419867445583
0.0604823749881926
0.0583007853675231
0.060621065102797
0.0585023517496812
0.0606769471559289
0.0564973561036182
0.0618819091372798
0.0582122195797536
0.0596855421009249
0.0576276790103914
0.0615655073951473
0.0572604328997019
0.0603368264347507
0.0596587610839698
0.0622220698896669
0.0594889379163494
0.0637211988372704
0.0572261553588115
0.0632731229071317
0.0612106343817625
0.0605780169491912
0.0598453049727422
0.063273699001865
0.0566687398039106
0.0602535194087683
0.0564799493639186
0.0583692537223378
0.055729244008373
0.0604957078499426
0.0564380160549285
0.0590260788840083
0.0558860722385653
0.0592359253962348
0.0572279217740754
0.0629972008599624
0.0572974026277617
0.0619566551992438
0.0552175927655963
0.0586810423507756
0.0582633315368754
0.0600297709129626
0.0561687509190344
0.0585791395326764
0.0574699013916599
0.0583202974698819
0.0569180589693714
0.0593977635464321
0.0564482963162616
0.0571599256616814
0.0559853310250744
0.0602441413547701
0.055859129292814
0.0596387049179291
0.0588435023490403
0.057763075123985
0.0573995564331304
0.0580315211717297
0.054508656345211
0.0576612630999485
0.0550298450965953
0.0577263930625329
0.0555926422133475
0.0576194468977888
0.0572563736186166
0.0557351567363577
0.052341285317402
0.058125888004191
0.0592913546993624
0.0604040118665942
0.0547847499470382
0.0599270901661189
0.0536494431794348
0.0588451669701177
0.0551875313509596
0.0574861051458167
0.0538473996543183
0.0573671862639424
0.0528138489599547
0.0554433712243186
0.0561236212267704
0.0557665675263957
0.051904567551705
0.0546093028644715
0.0532765905906479
0.0567432045212921
0.056350512431009
0.0570414503286263
0.056275160127241
0.0562137645538605
0.0524027132615275
0.0580646679840763
0.0511392366522809
0.0557710454212838
0.0534350280998139
0.0551838888595771
0.0532745754920903
0.0568945956187286
0.054534133152124
0.0524523624365252
0.0489902838321676
0.053806235316198
0.0506217794833202
0.0544310730062011
0.0539394614392183
0.0569874328939651
0.0531590716675279
0.0537596010650248
0.0504742917514888
0.0546249988714662
0.0493185673491759
0.0547546316118902
0.0510078708481971
0.0521511726592448
0.0490909989427151
0.052811195744664
0.0508553018752321
0.0535127172887813
0.0511415958817209
0.0519506775811281
0.0524483983404819
0.0508389892534333
0.0484326344200139
0.0520195978774639
0.0513054010010565
0.0504456601503891
0.0482835067413124
0.0513137109067946
0.0494105840030405
0.0505092902617543
0.0497369929034051
0.0503619928995025
0.0470689843170698
0.0468797861897169
0.045830888009507
0.0478230581738891
0.0463430690008154
0.048649383944622
0.048383700643403
0.0493983393592043
0.0469705559330492
0.047083124017778
0.0492754066640643
0.0461838364026452
0.0466075268824617
0.0498038447240229
0.0548538744468101
0.0482738764931319
0.047842495013117
0.0503472411592448
0.0495023679907672
0.049414705724023
0.0454251356017736
0.0492787014456326
0.0431140925674228
0.0489602513164738
0.0447159307305911
0.0474633942681668
0.0457906231689424
0.0464393863806525
0.0431428021325065
0.0479605873326868
0.046308516330252
0.0488766728923362
0.0435928113515942
0.0448988801351436
0.0453678037624342
0.0480517667303615
0.046618548859819
0.0458707887746055
0.0453686074210674
0.0471190056458192
0.0452185603906724
0.0498662743121845
0.0453459308156903
0.0475309470975294
0.0420060530705455
0.046061159239984
0.042166073183983
0.0486323387323287
0.0440056856364386
0.045038322301666
0.0444609963607888
0.0477717404019664
0.0409890286836504
0.0451079122930135
0.0437798575490959
0.0430540197221331
0.0419132225143896
0.0463386352020018
0.0417333247936875
0.0462730776302244
0.0425668180160875
0.0460617344657311
0.0404030312163706
0.0496642971901628
0.0388323543591962
0.0446699781088676
0.0407840085828149
0.0497034815825436
0.0469465211820116
0.0417968751735021
0.0440704355616232
0.0428731961705128
0.0443098896215911
0.0427496951823473
0.0428333678092438
0.0422795759751244
0.0392513862501639
0.0431314732063638
0.0436740848544529
0.0426423341600026
0.0420121198592293
0.0426378483470584
0.0439035053760928
0.0397411987798066
0.0419578788037711
0.0418709224978593
0.0414379699033321
0.0439457330137021
0.0500668331236177
0.0481160100263497
0.0438472637795399
0.0418490208259926
0.0467802242410726
0.0445763677486086
0.0533114500902371
0.038080025427103
0.0444895993867552
0.0405535580920843
0.0434870135929328
0.0418117508872818
0.042653350079821
0.0432081134702168
0.0447918926624718
0.0445914716103515
0.0417483351611329
0.0436092026348039
0.0395964465503459
0.0441371120017885
0.0431150974950561
0.0424343560338125
0.0409438588371194
0.0411495021706267
0.041768390125933
0.042025853326171
0.0433205455308206
0.0426368104170616
0.0412596196977282
0.0418882702202694
0.0454581016530973
0.0431068119600602
0.0414960615990539
0.0407073674941397
0.0399222945613619
0.0453828472090117
0.042836947459359
0.0446306489385882
0.037150769494208
0.0451617528680107
0.0388502547333409
0.0454151726004052
0.0390763835385939
0.0438769680311047
0.0387111578359523
0.0438604913594328
0.0394845365148763
0.0428262703045414
0.0390569275287816
0.0419569742068299
0.042457665962632
0.0433300706155484
0.0408977646647267
0.0421555003013031
0.044251037990379
0.0413222189327064
0.0426491346180567
0.0464789362519391
0.052983911019011
0.0505062676284449
0.0432530207297277
0.047106584126295
0.0426542987238257
0.0443238493200239
0.0403744173650698
0.044266175452987
0.0407081459402219
0.0455930408252181
0.0408964230241534
0.0431629054371456
0.0398252745175814
0.044001436045101
0.0395068288778004
0.0439308766611776
0.0379409187342535
0.046326755331055
0.0367123873190727
0.0474025346851457
0.0355320839153724
0.04811007061715
0.0382109645361998
0.0528700895117364
0.0344351143246218
0.052948549272123
0.0366098345039758
0.0584521645889953
0.0438347048792407
0.041774904144062
0.0437494886514558
0.0420444694289856
0.0404222572498439
0.0421497540068241
0.0435442717275606
0.0465495725381685
0.0421388088481277
0.0405878625660501
0.0412312078600522
0.0396907429888532
0.0426354293186104
0.0548883063250442
0.0564208758769186
0.0577831353361029
0.0404840530008053
0.0428001106460159
0.0494351598542814
0.0548218639089539
0.0495517947259252
0.0379127956775248
0.0487563152664199
0.0406767206552892
0.0456055007152033
0.0410201291605296
0.0448634499790492
0.0455857429642935
0.043668230308795
0.0448813229272256
0.0442652769455828
0.0450010330872891
0.0416048453613009
0.0458608417814751
0.0433857438690987
0.0518287773938515
0.047286024138625
0.0449801444141736
0.0482439189512523
0.0441123924204613
0.0441526920210046
0.0440248408821956
0.0439427747147732
0.0523587852806957
0.0466465901365952
0.0531341910804603
0.0518159548916407
0.0522488244127389
0.0482353268082342
0.0432027041528324
0.0538928702255306
0.0452809977858646
0.0475507004003721
0.0505383929052359
0.0533037480258045
0.0705298744604899
0.0428454140045137
0.0600941893043115
0.0396058892029306
0.0578836965611798
0.0352684733967157
0.0604301569078947
0.0450778834280822
0.0616371831882238
0.0389201800790485
0.0542115125490528
0.0417567537077536
0.0603911708387484
0.0512971534719521
0.0531403021903715
0.0468623197113255
0.0532128285094399
0.0576572732116763
0.051907251988129
0.0523435706049464
0.0500835785137629
0.0713145030487496
0.064634440668468
0.0526130540953355
0.0611943473151075
0.0445981300776906
0.0679211775426807
0.0460846239211517
0.0550900429478503
0.048583469022063
0.0526746507489273
0.0608025076536811
0.0651156349824816
0.0592002025005876
0.0566024349196787
0.0518479185544122
0.0666004720284081
0.0575044213828796
0.0662851398963346
0.0503641337898568
0.0630652725983583
0.0521972900089685
0.071468331890028
0.067135391083657
0.0769452073954903
0.0670444135000355
0.071991323250532
0.0753835785807177
0.0638737942891022
0.0722585733000383
0.0618017683710114
0.0732382998973169
0.0719124633439133
0.0682127220745243
0.0599357348538218
0.0746539928083465
0.0710478556973698
0.0794567003208286
0.0607991934491318
0.0710540465842281
0.0655134691432463
0.0899764081200313
0.0995852840601171
0.0924526614943938
0.0730172052802017
0.0800744489852021
0.0793211877313067
0.0861639389747174
0.0757452621349671
0.0778145989716826
0.0753995049190782
0.072934048432491
0.0808954461582961
0.0818841520530419
0.0839748717847343
0.0840076056835587
0.0806509939432401
0.0880501124893895
0.0929015307238404
0.119982562841589
0.0908274129096895
0.106869784802713
0.0799160027695946
0.11067982654739
0.0967573545268906
0.093403201268598
0.0919558618267903
0.0942866247106482
0.101888681914764
0.0966476027350429
0.103463433486226
0.105443236690042
0.108719544875373
0.12931763480825
0.103629523341043
0.122463690097633
0.0891542351240482
0.152908654403232
0.113312234436245
0.157870120340067
0.113106020884591
0.126733116307444
0.146793152731229
0.146901750698
0.147938339875547
0.133191943138052
0.141812897584323
0.140742938708802
0.147038616888354
0.152856512078698
0.156262044738293
0.170325862916338
0.161291232370132
0.166899818661352
0.181264309569541
0.22091182763813
0.223113525067766
0.191425708770457
0.197590104201959
0.201289412596098
0.204726370161817
0.207995128100087
0.211620545270889
0.203294877340463
0.244244616150956
0.233144394398751
0.252065628774867
0.219245400856471
0.25872238093343
0.237891086620946
0.270274498471527
0.253302844677141
0.289191840372365
0.274503559418544
0.27023438107717
0.280953689225223
0.275373525988168
0.297934859941231
0.297280009719831
0.31814741427173
0.303423776194132
0.304522553044082
0.311162095314032
0.313848628243358
0.324852047906814
0.31598834997702
0.337606470475082
0.330066219819709
0.398232429014016
0.398223414503934
0.346509006026718
0.334027107403035
0.321287111009686
0.352210188502934
0.335414146473481
0.356238310513384
0.372400181106822
0.348683253183173
0.341250388235775
0.331270029242582
0.348557487935862
0.334801307526251
0.349014879521511
0.327258970580886
0.348655756835752
0.348910475685592
0.350638861916687
0.407415368976744
0.37422418755526
0.356565637494658
0.327164536320472
0.344261321780012
0.335713045359751
0.345067653420391
0.325710856505673
0.358619004251719
0.334719721195516
0.348705045399612
0.315728259056216
0.332533442944056
0.337831680931819
0.335719547373482
0.326308544374404
0.311194536160009
0.322057860332378
0.316538607881305
0.294781365029352
0.339188019731261
0.303903608818707
0.31206192277243
0.297104758132766
0.300476294922478
0.292888231681818
0.294772545522999
0.287784507371985
0.309001590333455
0.284429953866709
0.292377430445792
0.286162234000863
0.290260468735174
0.281670344001017
0.287597287408375
0.28293871862318
0.281167961554889
0.282759497903136
0.278811479601438
0.279692272284102
0.276171104437204
0.277746340668547
0.280710438393598
0.271493941983864
0.27641391465301
0.274858199010917
0.272870100732795
0.270057556706943
0.273242528277751
0.273971682135912
0.268362202648956
0.268654064160922
0.27025009350532
0.272209913195705
0.270327387578405
0.267859603926465
0.264449289403277
0.269663488563643
0.261760953219223
0.262330025265622
0.260761196448165
0.265264753281966
0.249453265189512
0.265608349715266
0.309273298275969
0.267955141250616
0.263784633154994
0.240005714445202
0.266535308884547
0.236003618688784
0.262580690919076
0.260567440345242
0.263231701891279
0.247678214567036
0.237384472753813
0.233855594687536
0.256784864149436
0.230396770211679
0.248386468780489
0.223076066257024
0.23364318290469
0.259608651490904
0.239184838980077
0.317655973397016
0.253999900751216
0.243687124279489
0.207784632562906
0.257876000863412
0.219995064691536
0.23203636696433
0.207925567892121
0.216113972374621
0.229524367464383
0.219696460786644
0.220277916215457
0.199197971118233
0.206934423021076
0.236894837412196
0.227369102703795
0.217928825086266
0.235065449388488
0.214594908312542
0.225665094767614
0.230014104503648
0.252024734396259
0.209474036495515
0.201738955133519
0.195013075644631
0.190484846036306
0.213065569556053
0.205961123719132
0.198748912850487
0.193767928038367
0.181873121691522
0.192468016431886
0.178532953327829
0.206199680799735
0.169488894460319
0.214160610172506
0.182777650617953
0.185597370563523
0.176451762939353
0.187309269456103
0.21650843954694
0.198100006742074
0.181731269714796
0.161503200243922
0.205409172546765
0.186447175502251
0.187739690136416
0.174110613601629
0.160563462323793
0.181641795171089
0.171787364813962
0.16219004084694
0.177946908943494
0.172567504148154
0.192543124865036
0.181056273398235
0.213726270720267
0.191013626227888
0.162134072190278
0.161714224285672
0.155847306898242
0.165798558670606
0.153913141317481
0.152868988853712
0.195756913230667
0.153493811272931
0.179565019120681
0.166052844715905
0.178102946854534
0.165318770761475
0.166232648475504
0.167467680668959
0.173290543620678
0.181949864276813
0.205867535568853
0.172366845058555
0.201948618259327
0.181781195156172
0.194736720055797
0.177907258657662
0.196730566174953
0.187093857608544
0.202114974974312
0.206777399033217
0.206540429097532
0.199549531976273
0.215205216344437
0.203433611559694
0.258292836970028
0.220533007657123
0.242120545184928
0.246133184032086
0.253549953990322
0.282000399934647
0.248703935831498
0.260335172314001
0.251391736979458
0.26805240740958
0.270563925276521
0.261589944897432
0.302845483112528
0.28693053843107
0.287102350092786
0.283437800121366
0.291470143962564
0.286427332612668
0.297440655217235
0.319403405522333
0.297631489721358
0.370494449292047
0.310374704814335
0.337075426143261
0.305103367712867
0.31548679852137
0.316835690403653
0.319851262264811
0.315151923179192
0.305688451196186
0.332720845349034
0.334497598001762
0.324325972542876
0.330110181866161
0.322678720513512
0.33208878966851
0.324340043283565
0.338974467096806
0.335542107271829
0.338162452059851
0.348018218683599
0.335215735541298
0.361284671401756
0.392691688957967
0.357804695453239
0.365260999507169
0.347691519669832
0.371897340042447
0.347513193063669
0.370275438454815
0.383633862718586
0.368463634912006
0.372185023293427
0.374029051963125
0.378579904965697
0.372201940453214
0.39411823439731
0.394244834023912
0.385796354189882
0.399152115005186
0.366707675820808
0.466948453895785
0.394273430734518
0.422681687254736
0.395212663362064
0.416237633091197
0.397068903071208
0.412940094950303
0.395495124433964
0.41212079649746
0.397705084378826
0.408589153002246
0.409212452529789
0.404230706921859
0.40510795427796
0.401873838932254
0.404731031791948
0.414572593671706
0.398445052758907
0.405854702867423
0.400748113514266
0.404317852961838
0.394257718455939
0.429939631113568
0.399520770714688
0.41174928069553
0.397077762110482
0.412035102165506
0.415693884555589
0.408401430473386
0.39259511119766
0.404742783999015
0.392346340452315
0.41470756773992
0.385814291297152
0.429460149187465
0.416489359121943
0.419387451028229
0.403436564299305
0.414215756515939
0.410070586286199
0.418601037973113
0.413229424802256
0.425666639038254
0.414069156211631
0.424094148715484
0.422817820756078
0.419701496665854
0.4216596661997
0.422023425910987
0.444153683496988
0.434383235508559
0.413712573194819
0.420292150918621
0.41137591501923
0.42530484970277
0.413809886324969
0.421533557721539
0.404270145835949
0.412974021226679
0.394245205019517
0.408532737007028
0.412243511835386
0.396270839775515
0.409494721976712
0.386414469472758
0.390944262608809
0.381462094360219
0.383609426202163
0.367211191124863
0.368597581392588
0.373978297598794
0.367843023490748
0.369967189982329
0.368753091975195
0.365560648938455
0.363638844382795
0.364586621734753
0.361725471102008
0.364030056488377
0.357701098108566
0.36101873413474
0.359777631933664
0.362779849358878
0.353410983053754
0.357499892043127
0.373653569010867
0.363622608439033
0.373145096633075
0.358779541162775
0.367306634531679
0.355105860166671
0.35427907258989
0.358167506783215
0.359416397042359
0.355327871829232
0.354490407864769
0.3516199084502
0.352523224587401
0.360937796239606
0.353658244431741
0.355902052584702
0.353362585960308
0.357013469528331
0.348071081721616
0.354148587295031
0.348540889027338
0.356115750616955
0.343081703618172
0.360298675888564
0.349390429555137
0.358618895466072
0.349082024029883
0.352254928264475
0.3503214327705
0.349372153402529
0.353989843585892
0.352005231878147
0.347680755657129
0.349071924687187
0.346875859958744
0.348285724025318
0.34535460680282
0.34626729012577
0.343020104027284
0.347392446678824
0.342961530954309
0.34075419860784
0.337953027075249
0.336570464639893
0.332700801507388
0.333517817961087
0.328989842624638
0.329395786574781
0.319353058113474
0.324847442123936
0.317094346314053
0.317711048037364
0.312093185781649
0.313370735511396
0.306720860239302
0.310245393472968
0.306115472823065
0.30645939681625
0.302710953743106
0.301595753502826
0.301555152551119
0.302713977851693
0.299341699438861
0.296257411053067
0.29858858584639
0.298806565434594
0.297809655510073
0.299509458218026
0.298469924532121
0.303860122298283
0.300223941328979
0.302712737101137
0.300727413159148
0.309073157844401
0.305036325473953
0.304675854538919
0.310321798421451
0.306340453665821
0.310870451118871
0.315335032030355
0.312810270729371
0.315693123743519
0.313675702990931
0.318630153323397
0.31811700498511
0.318366498162384
0.322318729536098
0.320173001593099
0.32007934564062
0.317555676840981
0.319181409146269
0.320707426495164
0.316623751184472
0.319821305141325
0.317373784463042
0.318969312895778
0.314381962937137
0.314684500681828
0.312819451395601
0.313294364146955
0.312548467373315
0.316214952176184
0.311449909165475
0.313043630640492
0.308902948303114
0.310044261337626
0.308468288015106
0.30510740385887
0.301543920868126
0.305538883140727
0.301743874397126
0.304597222787358
0.298327067555598
0.299258695997965
0.298652802001806
0.299885101614521
0.295911617852707
0.296867540727988
0.295356131248005
0.295732642218141
0.291946814966663
0.293135172039766
0.291086747137588
0.291405231546272
0.292345831588156
0.28911588576268
0.2874985833098
0.288993313542898
0.284846479529168
0.285634219293401
0.280784685183038
0.281200929177325
0.277000741134986
0.276924786762105
0.274677225271508
0.274847750365964
0.272209194080662
0.270006387613671
0.268265783617535
0.26677938178278
0.265895021476149
0.262647197641998
0.262434577754462
0.261058970274061
0.258554311618474
0.260745240314446
0.259717027696136
0.261021120917038
0.256203828716138
0.258137292491463
0.254948094794575
0.256426008067623
0.255854108843181
0.253971095337674
0.253329515030796
0.253815148712133
0.249393355714565
0.246077197316489
0.243603201542969
0.241747287655292
0.234953491445909
0.234958641736237
0.232137898386466
0.22916410738875
0.227801004972104
0.227716772814361
0.227003621594556
0.228320428650451
0.22794224410923
0.233860525150287
0.233197834880703
0.242828732819532
0.247231237397365
0.254431083651273
0.262200061774539
0.272947573100133
0.283033012625925
0.295200688868393
0.303745228968912
0.319266577814687
0.32520310782963
0.34510283857345
0.35508658953817
0.368719140664977
0.38263607289989
0.392463313262752
0.403739441466196
0.414660840883115
0.427083381984366
0.438422626312474
0.453113850367151
0.459519248349212
0.47078032460825
0.482277064739146
0.494287689797478
0.503239344586713
0.510259085932226
0.520579819739935
0.524952328893691
0.534249033212767
0.540802880490303
0.547423685142974
0.551259776203364
0.552222554693917
0.555834392441189
0.555341793724284
0.556165866662626
0.558646043417711
0.5568370546299
0.562911164037192
0.564025800788581
0.566825613776768
0.555514668645727
0.56025871148535
0.558857313517783
0.554460952628105
0.561324399008949
0.56471931480845
0.563836631741102
0.569114039396082
0.571111261186183
0.575241733343624
0.579008115985175
0.584707080564728
0.58733225890941
0.592831117866665
0.595400216877182
0.601358590037691
0.607747066318019
0.619225566403094
0.626448194715459
0.635018676888008
0.638917412761589
0.656477814394273
0.656728825027006
0.670185247602203
0.66745537759579
0.692290587141042
0.697195137185735
0.695476364851794
0.699590314221653
0.705917428701079
0.706225823579423
0.703054189783726
0.702360943487025
0.701780608374123
0.702687202114158
0.701237254597819
0.701176377362552
0.701145122945596
0.69385765605375
0.703410237323268
0.698728225042029
0.700255887346732
0.703602782467686
0.718111823865849
0.72936361943434
0.731479020669863
0.741744411643712
0.761620717535087
0.769924331022983
0.777230388686335
0.790605059422061
0.803774534209706
0.804702901922105
0.828813708498502
0.820866203671686
0.856000286187189
0.857973305603685
0.886066534327885
0.892003446962594
0.895616598463266
0.918389302972702
0.923055713866412
0.953477604268877
0.956863951537501
0.983961380258041
0.999393215876634
1.01602520708072
1.04318200743831
1.02808457498817
1.06213894566166
1.08106937638732
1.09169417808461
1.09879034841671
1.13509063421791
1.14184002396556
1.14555843698096
1.16411603519608
1.14517637254581
1.19312343720532
1.18305724422209
1.18012834207259
1.16410526465022
1.17301556301789
1.1707338597551
1.16975521082119
1.17182982372576
1.15185300808856
1.16529054309458
1.16571646469762
1.1629764234231
1.14233825920309
1.15304613950497
1.15699677432458
1.13248652313381
1.16380996098709
1.16450492687645
1.16210439422767
1.18542719553666
1.20151676320442
1.17911536124599
1.20758006639336
1.233085934438
1.25734872139698
1.2646908382184
1.26130057094727
1.27739544119812
1.29389043785274
1.28299202399552
1.32986699774878
1.31656708436251
1.30875319534268
1.29773261420365
1.30956110520932
1.34344137038825
1.34233436866525
1.34172936601308
1.34919845598007
1.35430081654516
1.36458299376484
1.37588158032825
1.32791299653675
1.39747005861186
1.38006880229755
1.38957836477373
1.36673831119393
1.37832166161229
1.3750316908049
1.33227005501978
1.34642847339403
1.42110903868508
1.34773911515964
1.33713020016649
1.35513999003126
1.31628218431767
1.311629917063
1.30165399039217
1.26524948345812
1.2397351787572
1.20131863305286
1.17814903843877
1.14400167998163
1.11078104672524
1.07761292451071
1.04557444063599
1.00084704615836
0.968348635069355
0.947019764651793
0.899727727096577
0.870699066343684
0.842376116275987
0.819617474605059
0.804173368648263
0.803446066233611
0.789792772239444
0.774189452596736
0.789018411942908
0.758117933225768
0.76574025858352
0.753816590966379
0.742190567155092
0.737181334362526
0.719557012851415
0.706087160116239
0.695339145275782
0.683161329293737
0.674302995012265
0.661607015074164
0.638940226713861
0.626640054930319
0.612509827757246
0.5919855817973
0.582576672322231
0.564604524137242
0.538631126269082
0.511571666333139
0.490995920827846
0.4739915183756
0.447849016177901
0.427448484000646
0.408790978100349
0.398113572319423
0.377631840171034
0.35904150614221
0.34545143995767
0.330866781681589
0.316622052626966
0.298331685149415
0.286620870590736
0.277710604832032
0.266538623690982
0.259277236441898
0.253970941502239
0.247868443093722
0.240864965358118
0.240483093425987
0.23055668917583
0.226630945431346
0.225951125157263
0.224531829808194
0.228244735068954
0.225014871875336
0.219686178152013
0.219998998123607
0.222783926976835
0.225249741837048
0.221699539334947
0.227379098484791
0.230290375654439
0.231389450924158
0.228339259156747
0.232298025598778
0.235942451371964
0.232126431301526
0.232741155538725
0.240869670435637
0.23462511794103
0.234250544077741
0.231185617800591
0.23225126934789
0.226636130920481
0.227353211046147
0.228817785664691
0.225483391875131
0.225859528587489
0.225038456411865
0.223585442297081
0.226868453631692
0.225551526058196
0.227469950657333
0.223388926236065
0.229608147498092
0.233698014634501
0.235333752809433
0.235348540344719
0.240654634393277
0.238710329888614
0.24342397148016
0.241688911325349
0.242616863420018
0.24593063485092
0.248317601169018
0.245561854579376
0.247877178567909
0.251139405879195
0.253574863832095
0.252499338132347
0.256898018059657
0.255506768096948
0.256758960808856
0.257212176059575
0.256697480361584
0.2584747198422
0.256637654658913
0.263639518434083
0.26731272939338
0.270317981468713
0.275686139234326
0.280064104956083
0.281655300712158
0.284620916221559
0.297095064275995
0.301357988512135
0.308697259046818
0.324518669563239
0.328715591248065
0.334146143831048
0.339444835792814
0.346223389871174
0.34386233271716
0.345776345235244
0.347794416871583
0.335264820826799
0.332199315179904
0.337959983524665
0.333452127088237
0.315310413944986
0.31679677359599
0.306606831489361
0.304751116009588
0.306618025446726
0.299374918411365
0.298906300288289
0.303467812166969
0.30122782879525
0.300257881660856
0.301689656803887
0.305234583279292
0.303723415481292
0.302645141358325
0.293875271660569
0.303349396517964
0.290526641133433
0.295484220815764
0.291050007822944
0.284498349766281
0.278342654356899
0.283277003026076
0.284808527701197
0.281704713149332
0.269326429366332
0.270413295957727
0.268305637429646
0.264863188486512
0.257869705063349
0.263562585843478
0.260694621827905
0.264969870784141
0.267040115892958
0.261338620090846
0.259963775724209
0.265103301151899
0.253474933462238
0.262608276376043
0.262476802976689
0.253486392764125
0.24503872563272
0.247797849830264
0.247723821887939
0.253903737929142
0.253999747207964
0.249269298775252
0.245382239165299
0.243158823310298
0.24171181997439
0.243129084933777
0.239219954250162
0.241881997565223
0.232758346433608
0.236401472973148
0.240031053588822
0.239244292087712
0.233355922507481
0.23830941785146
0.242381531086043
0.235371980882066
0.235914201902855
0.232764272909448
0.225164325714788
0.243407541535986
0.234320951117202
0.241434210692499
0.232114017862063
0.235271934615183
0.237844160363161
0.229496598700652
0.229076153016737
0.251318025545616
0.234327616149159
0.240310656497599
0.244452108282534
0.24091384855737
0.241757866718662
0.255233421935431
0.243124911695315
0.247132434443648
0.254245711806232
0.252642622524404
0.256402016379953
0.261644387796782
0.257962216612382
0.26590974482387
0.26600185061389
0.268533207445239
0.281723651773369
0.289582935974616
0.286430409055366
0.292540399565293
0.296194384333655
0.298997023321141
0.313745888489414
0.318446100546521
0.318652327009873
0.329634799099504
0.334769121203227
0.350613123301531
0.358902377622004
0.365069565793787
0.35219634749026
0.383096661527272
0.393760673840201
0.411731964539757
0.412796536844291
0.409522476902268
0.40172830609835
0.42031928286536
0.41734998889553
0.436221546358221
0.436619063163721
0.430826126888345
0.428376378206941
0.45290190859507
0.414193687276852
0.410962539092675
0.406117149201165
0.414645751372757
0.416613256450869
0.412253967816797
0.407597689852333
0.41305714594281
0.406002943310428
0.39769392576389
0.387525372318363
0.415460062434339
0.428370460427632
0.416678512272811
0.407579393563241
0.410504782758503
0.395770163445665
0.392918964097834
0.418151854169167
0.383699953374156
0.362909145556991
0.374351317459515
0.37739144673999
0.405132454910215
0.37510646757834
0.342100318439374
0.346478154896866
0.376566032398765
0.388479316466482
0.373261023669981
0.361158440819716
0.370353261215977
0.373886184913754
0.363003702233088
0.363063758783249
0.376646306371426
0.3966715155225
0.390617199491567
0.364015918372921
0.389141684184085
0.393328917655259
0.379173131509126
0.386689117556156
0.407663754008685
0.380096114779605
0.385787690782084
0.385383434485217
0.383671323750033
0.365661451863995
0.403615530327806
0.388902979441739
0.359857899801468
0.385936233391846
0.418471170862438
0.407537080789581
0.375752715300854
0.391185739408419
0.412886746359196
0.384191216214541
0.416004088741783
0.401511504551763
0.430110056156124
0.430048428691869
0.424341633231473
0.421300637509693
0.452024718889006
0.43210189730802
0.435810726006597
0.422959737258426
0.43585318137393
0.459836701552727
0.458277596868464
0.511284419952395
0.523666398932655
0.469709014099089
0.513725913375223
0.513358622037998
0.527777964420051
0.538002303874708
0.554368943797445
0.542578134673027
0.571489390370887
0.552431728859758
0.548027739999174
0.538437697825417
0.515598890811933
0.493238015940907
0.517269668414819
0.495870092310392
0.483739507294895
0.493605362750832
0.500961958647878
0.490175118667242
0.497153302008392
0.463200679397781
0.564373629062596
0.487930508895195
0.548954798239775
0.527362016554236
0.422616712529375
0.417450970708844
0.407069932442283
0.546398587757105
0.567131749729375
0.444274855555177
0.523421806244031
0.554408610636063
0.493791405277919
0.451785123089685
0.535476422812586
0.477519704969287
0.464960968443761
0.561083239105827
0.545142140251714
0.46836164416394
0.586121247957797
0.465454585164455
0.442423042760498
0.444237258224326
0.815118766711227
0.546147135456027
0.475326406611033
0.348143830801536
0.39476520119109
0.461800227668165
0.443177549132976
0.406738093065305
0.726215948651362
0.610078323605288
0.455016918946026
0.860735095969033
0.981192131244203
0.67335997551313
2.50235711189113
0.814441008496909
0.406602327666828
0.569150416250439
0.543962384208394
0.420338059253339
