3596
4000.36533379555
650.420452594757
1
2
2
0.0561698349296898
0.063587159568415
0.0575209192786023
0.0769898588965743
0.0520947003266587
0.076124867220945
0.0586942119103855
0.0681580728033051
0.0541985037023121
0.0662516897386095
0.0509178119198175
0.0640079077021576
0.0531476082231303
0.0617595717326613
0.0600303043430644
0.0760737228626028
0.060152143277634
0.0666578589313283
0.0440881889972947
0.0624027634240168
0.0573844138439182
0.0605566824744651
0.0453841189715977
0.064898629185975
0.0500756523468608
0.0601113361334232
0.0558651031296137
0.0646192128636293
0.0574054002709814
0.0583077081762744
0.0508694122554171
0.0633379491232864
0.044968995821379
0.0704007361886858
0.0547810076648793
0.0678559372487956
0.0659401654428502
0.0785024568239123
0.0585748353406898
0.0791597948269337
0.0596213526740243
0.069916166281973
0.0571618150931947
0.070816120780362
0.052680095197093
0.0638623883195693
0.0532931783819572
0.0612612841441406
0.053864295930509
0.0726650018858137
0.0543683515091745
0.0602991746011276
0.0580087698192984
0.0656839229287487
0.062580297576113
0.0825694555901296
0.0570246298844034
0.0652250371672827
0.0430572422624633
0.0569069256408453
0.06105228493465
0.0683491942367069
0.0510204758341781
0.0695996305975061
0.0544169462192868
0.0634980080330285
0.0581244612468044
0.0630259636087741
0.0568593866194612
0.0601677491118349
0.0542089347700352
0.0749657150115719
0.0672616155770467
0.0623179819318751
0.0550091079615185
0.0617162085462013
0.0564093711545501
0.0679861880646885
0.0491054305850802
0.0729356738374814
0.0637258215694144
0.0654074080943674
0.0535498642915857
0.0560647409422242
0.0552068762532537
0.0696486930593792
0.0489800538059217
0.0671808484144137
0.0625355723967004
0.064149706752106
0.043964942658779
0.0653990226711477
0.0454994183692009
0.0595782399242524
0.0479028132107353
0.0634146763720708
0.0511893908750036
0.0657694548437671
0.0524636327276632
0.0745158980823021
0.0459860343734093
0.0882727112391503
0.0563622165596675
0.0624936279162472
0.074893916669827
0.074962700130391
0.0576919029476516
0.0839645499518885
0.0700546415783312
0.0624549439715822
0.0478299777439366
0.0603110706780166
0.046176223741704
0.0586821560801788
0.0426298059620078
0.0796612643589591
0.0695774054776767
0.0697105489147912
0.054137038492906
0.0628140437848802
0.0297908309615777
0.0825389856475592
0.0698509698906802
0.0670157514947076
0.0517384871478614
0.0563847660484018
0.0414004904929567
0.0968348562699128
0.0605399361912344
0.0669944636442332
0.0413948822535307
0.0673263295150969
0.0414132746010841
0.0570998660325261
0.0626141780958839
0.0674297084606175
0.0412138731584361
0.0636685343475418
0.0625565852150365
0.0951552165886004
0.0539347898739609
0.0607068372626757
0.033294961918527
0.0689575604668917
0.0754419991223182
0.0717699031545005
0.0389765118394759
0.0757337455408919
0.0462006381253224
0.0657735547679401
0.0402808320587356
0.0579931400593065
0.070219075902232
0.0574091358899137
0.0151607390894921
0.102344749816575
0.0646806144921851
0.0890875031160997
0.0633831759422282
0.0635232363834812
0.0332669301256085
0.0589546083030183
0.0414137781843219
0.0554499401145341
0.0512350028996778
0.051098938542756
0.0542587500775497
0.0770073228156129
0.0487384674520967
0.0595118108578611
0.0774840810972884
0.0674841152762133
0.0350716266657012
0.114214568997195
0.0616360484595727
0.0580601758110222
0.0588211250441001
0.0774782783601223
0.0384240907607553
0.0713279775409442
0.058448443863987
0.0652648629063212
0.0395066625384166
0.0576185440948088
0.0455232881384638
0.0744777451445005
0.0560575960134679
0.0692528600260102
0.0426933152821998
0.0576094287958193
0.0478997906322737
0.0951661471188196
0.0509993242740041
0.067441276021337
0.0378433909031055
0.0384661056575174
0.0586609799789471
0.0839287947190525
0.0516096577700972
0.0680089390260862
0.0506175263174307
0.061956883682068
0.0434939037426733
0.0668789652333927
0.0390102963477434
0.0591762786256294
0.0649272848245218
0.0738820023101573
0.0444795154350734
0.0562135841210477
0.0396370137549402
0.0495505112902163
0.0847411578403002
0.0778272663939084
0.0528578200504379
0.0518607977156502
0.0404445326340689
0.0766443339253112
0.0553027352926377
0.0625624493796362
0.0491907684538865
0.0502495033132529
0.0530732390392727
0.0595736198499596
0.0464581949369826
0.0638043752642359
0.045537371350592
0.0545167469956243
0.0478169465443973
0.058014473344995
0.0556716587204119
0.0626765271781052
0.0490559857118399
0.0573365193974016
0.0363071553456013
0.0655010254732375
0.0650117763743837
0.0647302998947825
0.0414071350715924
0.0633362955042999
0.0498455926829065
0.0635776632559152
0.0454933339168803
0.0571763276967558
0.0336506421272934
0.0628798183046171
0.0683698474105384
0.0682010789781562
0.0531924988798586
0.0569890076019101
0.0557078205994578
0.0693925454466311
0.0474955219029013
0.0515973993596092
0.0581326894040887
0.0541018755373827
0.0480734552580757
0.0718176449652689
0.0564906888234924
0.0616841059124663
0.0641663523453183
0.0568049367413738
0.0570064486790964
0.0501644033313102
0.0411675569753279
0.111706487499781
0.0554040635945344
0.0726847663038848
0.0843104009153276
0.0711123015067705
0.0614925075172082
0.0496804375712782
0.0336097847501441
0.126936482383268
0.0906426146250501
0.0627414978304161
0.057584931933798
0.0787781543664788
0.0546506860425026
0.0719514776344429
0.0417121732326108
0.0778788544092633
0.0525212887848514
0.0962480333203845
0.0903103345432995
0.0653300532017927
0.065079484329774
0.0725347149368325
0.0465554194805163
0.0602621959158802
0.0514927591144942
0.0647861845692372
0.0723601722485691
0.0693875965434865
0.0628439100909122
0.0522574649441209
0.0579466738318679
0.0851737197917565
0.0724436189320069
0.0600916378025028
0.0761874461270129
0.06203033215681
0.060515123555955
0.0596125626819988
0.0553133029481953
0.0768648323514137
0.0492798638484652
0.0687340960629114
0.0859418765422616
0.0716057040947594
0.0702364853582909
0.0794024046921142
0.0664641224577699
0.0693891931822419
0.0575250530339224
0.0702309096255155
0.0619687043888186
0.0664268816262406
0.0592069438628435
0.0912264422698305
0.0654345780068933
0.076479187147069
0.0620574059944977
0.0743221260447026
0.0621498059118797
0.0797862900938311
0.0626183799125209
0.0658471541717863
0.064903618227369
0.0605439818774852
0.0917015695599527
0.0941038244050815
0.0510458495608273
0.111970983124211
0.0764931593816559
0.0799167657233884
0.0540862387398212
0.0684725323644137
0.0618895440236999
0.0833080033051223
0.0758032297609756
0.0837344475491475
0.0755101840801609
0.0952455436050574
0.0796858539971682
0.0820482525042923
0.0803113412047206
0.135072602341989
0.110232889937426
0.110855691753851
0.086551281883219
0.0829647328050239
0.119610203642385
0.0982877196933337
0.109519909163507
0.113494948998311
0.084519484420289
0.0980287252903385
0.0981829148660869
0.101152473037375
0.0879814544744471
0.109681882609784
0.0929054945500902
0.105845047919929
0.0950027659448616
0.115101779017524
0.0906499099034671
0.122589238560344
0.127995179939209
0.125733659658072
0.110821079773544
0.118682343936064
0.0975528444187294
0.152329267718548
0.109779865877202
0.179977539498949
0.120844128641539
0.166681195477768
0.145187340384059
0.141720381465466
0.13005769670705
0.13605997962553
0.129294636305829
0.145665893452703
0.13962935722811
0.15176024580883
0.133442620915942
0.166667334115978
0.143198053861092
0.161778760398142
0.146944565740835
0.158845940927148
0.158919461407221
0.166792667469411
0.158099510964524
0.161180441744851
0.167467128900032
0.217405731614996
0.189605318024126
0.172266993029067
0.181690341331687
0.182995338699291
0.179593090814707
0.188848244086342
0.187681311074378
0.198679185714636
0.183699020350932
0.224345842174441
0.193039734017871
0.224821846660448
0.198756706358325
0.209071130251819
0.229638823298575
0.224801658141378
0.211758275584083
0.236681182589295
0.204585846234673
0.216495024125301
0.224748030954913
0.226877845796526
0.236739925869248
0.250999902004225
0.222282999171673
0.235953082394069
0.228185178769894
0.253136044813471
0.22622782281287
0.267797846445189
0.239192640762631
0.268132734869957
0.258742717404208
0.261882887411274
0.259079160937812
0.29976832004021
0.253675011360354
0.288467561045379
0.272639750834896
0.288249055790539
0.264598378586439
0.284442874581111
0.309846408546454
0.315656623042488
0.307865657368205
0.330292903927929
0.29678274986514
0.318256234412711
0.302371257078691
0.327027689852609
0.302371867600978
0.329042842055501
0.318195368861389
0.33436969845917
0.304128604942605
0.362344041315374
0.315129320100105
0.364364760553264
0.3289165099591
0.354634100798311
0.334671748164116
0.366743545495866
0.341424861627342
0.360916731790287
0.387268376253851
0.401532554686531
0.396040501718958
0.4092809665151
0.36055279916673
0.415090401961208
0.371345211694463
0.410035794494961
0.394520368378957
0.416389821703017
0.395228576309678
0.424568485739918
0.399420957806719
0.442120430101615
0.413439715050007
0.440767604134879
0.392978878755738
0.436607430395497
0.434385198032288
0.462120928089088
0.429668155044445
0.47055908918642
0.43183157919796
0.490725427507755
0.429617645974978
0.501858980287202
0.469762559127907
0.458327421051423
0.477928319845388
0.484708345956344
0.445944355157242
0.509080528748939
0.500783320876369
0.49279817828536
0.489609832736913
0.525882908226844
0.515454672760251
0.536908658435777
0.49967911111599
0.56876404781449
0.531166489995768
0.547895574685995
0.512192807781754
0.55032536405615
0.538211863171198
0.576862741381871
0.561792849260258
0.582562346350397
0.548882806681901
0.631617084470636
0.566391755802896
0.600723386930624
0.582405465036361
0.593601832826099
0.560813794194208
0.651989464691204
0.592411158134759
0.616607041372446
0.573913565775939
0.649277976676501
0.638682170814065
0.63356709544364
0.614138770571847
0.654837725772954
0.62907057011313
0.700782677619718
0.610657718874236
0.654934869857441
0.666149919400623
0.653259540353359
0.675749608478479
0.656155598047455
0.639915026989106
0.710654763127766
0.657819128380738
0.698498739607302
0.65582745825731
0.723958262489705
0.721831850121702
0.753603175146572
0.727892801647287
0.714477845823883
0.687380828398695
0.766128556810486
0.710359425467191
0.724190151388286
0.691935395726732
0.763808520882044
0.717251526718499
0.81348769068732
0.765584245670899
0.817498539073837
0.746736309026271
0.745182008680937
0.743006866654776
0.779066216551274
0.785039869029867
0.809647520967524
0.753131470643379
0.87699479971953
0.820337064041929
0.844100019338008
0.772894350199164
0.847697453406013
0.83010250203005
0.810435709301864
0.785844388060938
0.842329741901098
0.804114945239312
0.861961095167523
0.81453747240758
0.897769426044145
0.848310434783606
0.857493466787234
0.871543124249907
0.90943220686281
0.831419487951498
0.901443644851332
0.857475916869654
0.912348889738847
0.833827777928286
0.887112000839229
0.887102298402649
0.940743878034765
0.888738688878832
0.932049627663208
0.934618000189078
0.988875270533653
0.99427181343952
0.936297374693579
0.888663198200986
0.987431145859594
0.908850113366713
0.963243737956885
0.92532912622908
1.00392104277632
0.994919624360382
1.05065308549767
0.89515208063546
1.02846817772587
0.919117229369627
0.99294197292727
0.978136697890753
0.991981101270139
1.00726544408038
1.05426496105871
1.0263081603463
1.07446990802023
0.978937988661919
1.18592669986073
1.02510657804819
1.09025619583034
0.999787873585954
1.16608812427767
0.991524160223197
1.15996014599034
1.05458258779063
1.0776181479597
1.04378025726054
1.00890105493029
1.07960029607967
1.14157500222682
1.0437688893816
1.10718994604306
1.09803968400928
1.13936807971679
1.03690185739884
1.10385884322397
1.13902026663871
1.14697943829846
1.07624686732759
1.13118502517774
1.07904770066547
1.18633840559411
1.11814929702267
1.25623614001139
1.0903122552031
1.10589241270604
1.0426109266242
1.18147319421869
1.14610624461789
1.16838870695317
1.2343111801502
1.20682724812269
1.09490243898796
1.23567351770519
1.17417759297368
1.24356214139921
1.02437180027739
1.21891572133741
1.22260773792773
1.11008760879188
1.10067264105076
1.23019423584684
1.1106135767343
1.25258135531558
1.13181249695995
1.18900939413975
1.23108182979747
1.23984391371879
1.16593162725294
1.25713288664892
1.21048839221739
1.29775213546256
1.24949795017785
1.16581708889992
1.13516453113284
1.41981954785006
1.24961772396523
1.26681074489633
1.11510559301938
1.22761755566523
1.2005222262954
1.25023244891524
1.09520055691209
1.2671521318897
1.27596566978578
1.38914606431351
1.30208192257273
1.27140804718672
1.19351977204645
1.38080112509822
1.2633186273138
1.36983401540673
1.31714715902685
1.34186244010824
1.21667065286708
1.27361976151258
1.29020792286935
1.20499949440439
1.17595788617511
1.1704959256962
1.22577426747726
1.33329614077013
1.30441831632581
1.31319711103927
1.22031452191347
1.32159833630365
1.21443169400857
1.43154573339517
1.19903706960024
1.28308916180074
1.20649143023225
1.30527579658591
1.35203041615546
1.30077517570996
1.13984885266423
1.28916403046344
1.30906746174066
1.44705175387944
1.19288376640514
1.37435206699029
1.2504100660459
1.34194035177623
1.26852426492212
1.36697240139674
1.23901708722815
1.3218654525639
1.35868096944581
1.34427303167985
1.30154081031462
1.26774091668632
1.30994775193173
1.3500652498842
1.25560488189625
1.34684853262496
1.27474014825537
1.29146403170632
1.24801299004076
1.31190887390548
1.16635851061975
1.31136522472224
1.22067900299301
1.24760148599725
1.22885482313666
1.23315336283366
1.3151673033253
1.32339937924304
1.29053409881648
1.38101138291746
1.24015959474935
1.34817837489752
1.21806350928726
1.35091942042963
1.32841364787272
1.35673206435783
1.29746033779179
1.40484075555519
1.31991600661379
1.24212185106192
1.27906661192495
1.3389930184079
1.23346384729291
1.27500024194495
1.35842238730341
1.38959844032918
1.38191444970649
1.34711614404986
1.25081854955437
1.36379497821748
1.28396434400678
1.30509123836903
1.19569560101897
1.33251163112357
1.318965010732
1.3782618767227
1.36156936258909
1.43556431206271
1.26122952555199
1.318385399403
1.29397682887087
1.23305556838762
1.25291793100614
1.2884579828831
1.27666230261164
1.24279400503355
1.22633588113467
1.44066570894606
1.30510655074791
1.25086249293709
1.3168675723103
1.31897048673344
1.25789629872184
1.24821621504715
1.31362723778327
1.29038340243562
1.23357816777667
1.26070900638892
1.22970726913738
1.30350210655392
1.23844509218231
1.39093457192618
1.33578201915159
1.23611968688055
1.18922008485531
1.26699396274922
1.2498148016404
1.32488894346468
1.22942463900248
1.30433670786448
1.27723334660707
1.26714025803228
1.25511043309501
1.26000048282064
1.27231039453909
1.27328748461897
1.2962903193995
1.32598148476866
1.18798882602305
1.27257566850924
1.27221374571833
1.2025409634032
1.22929496261517
1.18969521349505
1.16086919517727
1.24859869718047
1.25215169870548
1.25524141587222
1.19584575109503
1.21449974769657
1.22257047326133
1.20821606437623
1.21973165154931
1.27999047593958
1.14817607563796
1.20126214906574
1.24565883471339
1.20822510447179
1.19426349875088
1.21158353126165
1.19843210400765
1.25654876011606
1.20229636329517
1.23541071932398
1.16609605344985
1.14656266394828
1.17351628339067
1.16109189692789
1.13358229860022
1.17982871838767
1.13742361404183
1.1971113762699
1.19509271231842
1.16755137228574
1.15646562495165
1.13540094141788
1.11381466011456
1.18887010013452
1.14830875709187
1.10609361001139
1.13283435606936
1.14472391859038
1.11228093777691
1.13043988258388
1.09926353567094
1.09832811603747
1.08247971100713
1.12591424838125
1.05863079588495
1.07592147580495
1.06490193551323
1.0935214744254
1.07392203871088
1.08143982458007
1.08359422960422
1.09933973651694
1.06704588301171
1.05777528833926
1.07687261311209
1.06689993435554
1.04592143778808
1.05017542405878
1.0457767130534
1.02316004696591
1.05277016816408
1.06754569484699
0.985978459442033
1.021242218767
1.05548187596155
1.03841550236051
0.985411347971035
1.00805277836152
1.00258188079719
0.989780368189375
1.00610583143161
1.00874691531755
0.961641266362579
1.00244748370048
0.994621082008782
0.977533088181203
0.967170891648649
0.991276606806279
0.980477402977352
0.969448693565936
0.932278026115317
0.948489320055809
0.969720836534904
0.967375787885295
0.930709124112981
0.922553946085266
0.907912892128372
0.924595994177848
0.921034176209865
0.922342220869841
0.917115969498909
0.931312614772621
0.886403551322755
0.902112690151188
0.926509013716773
0.886917613885372
0.890445954971691
0.886884693084968
0.874601034055793
0.889093493932707
0.888179626842061
0.880257631941038
0.868168810425466
0.86843832285139
0.838438425867839
0.828918039062151
0.828900511487905
0.857740245093647
0.872239490558196
0.847295059184773
0.833145045929314
0.837950534934226
0.831284026343064
0.819276818756657
0.813627409448742
0.803845846096678
0.809801838521695
0.819387951118939
0.802702490315998
0.797881150968275
0.78386526630099
0.782197092005364
0.774926958728242
0.788458247232591
0.768507469206174
0.7633395451164
0.750589198070289
0.747552581955087
0.766381171830497
0.745653935357503
0.740970479281858
0.751514512672044
0.741628310300254
0.743726946339328
0.747041558030273
0.761020177687392
0.745980034524536
0.722755802908897
0.718584101422804
0.721450110099972
0.714637152156457
0.714045492881023
0.705916524592289
0.696468484228598
0.705814704531479
0.693248513571045
0.681529308021344
0.686860624996505
0.680887817184861
0.674750687264852
0.664723145130339
0.678025340662285
0.672650273526481
0.670347279019489
0.676380091145965
0.66745861909474
0.669538077721532
0.661828028735895
0.660224024592177
0.6408378565187
0.638473399331688
0.640368669144915
0.625214550356872
0.630139996688007
0.642955000436134
0.626641123716428
0.617833233748596
0.634951067658156
0.625852298290195
0.615647865109038
0.609816889211127
0.601493640238862
0.607832757472008
0.612494657543266
0.603263023785422
0.607533710058244
0.603179807233829
0.590598169576954
0.597495215822637
0.583486549263467
0.579953483139157
0.584791971645091
0.584009477206532
0.578216940440626
0.574564140307129
0.576230603408057
0.56823322498486
0.559845426565562
0.554217966248828
0.565372822825322
0.564903327286698
0.555462259225781
0.547131776179649
0.53854789144727
0.5515169231004
0.52991743017701
0.533296697577151
0.533218168895394
0.51712503277734
0.522089264995966
0.527645858944548
0.527491320799021
0.520420245107991
0.513714772077172
0.514103069161637
0.517556527223181
0.509959611455984
0.50725059890382
0.510055419162254
0.498492800660053
0.500243318304507
0.497427137322279
0.500738074007987
0.490642727452687
0.488035825724046
0.487959177353717
0.490588941530844
0.479966177353137
0.479850767472055
0.47484090245352
0.475479215526579
0.478837945750243
0.471247150458253
0.46970981860452
0.474656146446274
0.469441525231522
0.467804315330977
0.455903080173596
0.460808278305126
0.45785876414914
0.453637062586269
0.456234627409029
0.453994486402451
0.442940019200133
0.447224769759651
0.447499247343333
0.441954104749667
0.435859349394995
0.441327477953053
0.433270074280344
0.432746207047049
0.433439960887705
0.431976198065616
0.436051867755242
0.434519299146603
0.425991167837442
0.432658974908523
0.427656337471577
0.419707754363727
0.418245263916632
0.419376607833581
0.417157907598972
0.407624935789086
0.409470624828692
0.42668002233225
0.413712032686475
0.415242063193542
0.408227233984573
0.403223095186109
0.400245625069928
0.411483466452301
0.415573416168876
0.407585004569215
0.398923826979696
0.401987519099679
0.406515555480949
0.41486852502731
0.402731124066805
0.410659594242194
0.413310877925469
0.410028717430235
0.403858318189877
0.406431064236205
0.410358985776567
0.406820410532001
0.405221347039516
0.423194629465441
0.419988739262827
0.416402353743441
0.410595021167385
0.415510924466117
0.414800901138372
0.415630752567137
0.420811813809256
0.420815411949722
0.416205734810971
0.424450790228411
0.423595545580377
0.430870636340628
0.427329993672519
0.431698420459462
0.42230541901712
0.438369523586935
0.440293930349696
0.444501560801817
0.443706585446253
0.440798725590826
0.448826345517318
0.453501867444034
0.446405922643281
0.461089351146511
0.454957053311913
0.462989116179182
0.466696861389993
0.466021573453809
0.453416202914861
0.465613499815961
0.466591554993182
0.477212489755375
0.468981954048652
0.481255212313821
0.489451883672717
0.475429729988792
0.479900944055622
0.497401010220852
0.485851992761165
0.495488377640021
0.490845410118055
0.50342524926918
0.511645609884351
0.517201705373651
0.511857465351264
0.524952135815202
0.517511393605911
0.522146367918153
0.525872471045566
0.531341412973556
0.531951134162418
0.544411781506045
0.531606678637505
0.5407924078267
0.533354931498174
0.538226411468098
0.541077727793101
0.54597756083267
0.541927910508696
0.546564291212938
0.538457270213034
0.549941449440191
0.54496705646998
0.54100014677452
0.541113890638277
0.54374126556139
0.549875613168442
0.537487166347379
0.543045065790612
0.551459421822508
0.528519761960683
0.541064824949694
0.527874196785346
0.542982716423386
0.532493357703693
0.535895425349799
0.539171254451578
0.543167936909147
0.535943456820301
0.54705340679637
0.532361088870533
0.534956869536472
0.531801104677876
0.542399394113143
0.534003530758388
0.535109950851067
0.528642173936056
0.535627611102744
0.538270301077078
0.538220484225597
0.531002789560385
0.539874947178741
0.544023830104091
0.546191866598899
0.540433409099006
0.546733883315108
0.536092013931193
0.536962982892437
0.528483862617153
0.536994925634776
0.536611013129252
0.54242543244666
0.542502993366354
0.543541796548329
0.535381275744322
0.53947040253127
0.526112101766716
0.534493445445769
0.53456775318874
0.531749890821824
0.525989240595206
0.527014492753012
0.525281616907723
0.523774663631589
0.51731255946405
0.529583593473388
0.509365119311321
0.517365785383328
0.508703719612792
0.514542897259438
0.502458621500613
0.507958177196026
0.502614003321977
0.508387823827041
0.494809804634264
0.506386494618907
0.498933921370067
0.49143017399373
0.477887418099505
0.476503253525411
0.470038998251624
0.480289819149857
0.469025152459973
0.475954238323609
0.458233261768984
0.458560365972885
0.448886778798378
0.450109143449228
0.447473513809891
0.456552014865391
0.445230956629661
0.438982356634874
0.434990389930706
0.429031965741873
0.42723441712582
0.42882539796236
0.427681560906402
0.424053237660941
0.413999588591864
0.416742640005304
0.411619948061321
0.413928689300578
0.405802259585458
0.406652984203075
0.404694499452023
0.403327286521085
0.402575838628393
0.40373555364686
0.393903142859069
0.393915596114086
0.385529851542517
0.388604059623938
0.390498675511658
0.393646091210107
0.381376307512824
0.382108473463728
0.383915141328001
0.384601421038272
0.364421130706144
0.373187185580338
0.368350003751895
0.37747039008023
0.364167494650329
0.359974661680603
0.364519438773286
0.364618181812592
0.357572374294675
0.36064711242487
0.354666136089836
0.356305339428872
0.360142640697171
0.356745662440522
0.35302656960787
0.353141727457434
0.349764686297098
0.352426502050842
0.347732258071391
0.353239645873913
0.340919427010409
0.343173606143087
0.334833797769351
0.34573947274724
0.34295679551925
0.343773795510598
0.339354508511179
0.335533067716171
0.333550346199525
0.33623649101285
0.332329147644137
0.333467723806446
0.320534884705858
0.329275725187278
0.323496000568939
0.326445914533673
0.318694584488734
0.32978626520501
0.321298667276591
0.320857112021716
0.314040832082158
0.31723570175068
0.318276079582436
0.315693102880018
0.312739292835918
0.317663801892634
0.317155830661343
0.314675955911285
0.312183406233783
0.318205557858943
0.310146885207656
0.314793593620708
0.306960300474887
0.312601590049625
0.309063094097316
0.307377573853617
0.301775726680249
0.309351879604934
0.29909361549795
0.303274297568068
0.298522353481166
0.304493696666241
0.29883318093926
0.305422892232716
0.294617133458472
0.302213705441703
0.300107013074803
0.303614179094052
0.294793217521633
0.305445879605818
0.30036345400213
0.297314586347461
0.293152828910661
0.296404400928691
0.288668655382885
0.293345777194081
0.292153019531437
0.292517119364962
0.290277873455988
0.289780912540323
0.288203323127334
0.289503462914177
0.285554087441907
0.290629316905062
0.286860446955011
0.289162583427221
0.281754158454408
0.287320936785294
0.282980006802255
0.283564787733561
0.278158472481844
0.288333162822108
0.281352161640211
0.286061736112488
0.279882833529999
0.280943471836782
0.274357962934218
0.282860574522633
0.279907668067489
0.283639975156668
0.274279333408262
0.278496973762389
0.274498036712327
0.280971435890398
0.276329847306761
0.283750779132913
0.276063017298359
0.278860813777975
0.281128398475737
0.284396217639608
0.27533949054721
0.27852456809772
0.272828203896894
0.274637955973422
0.267695669661725
0.278216068886012
0.273774591751802
0.268771261319009
0.269240142867119
0.277888580445087
0.266817715621813
0.271520671505833
0.26404828730554
0.267899150544955
0.260171625446383
0.270017745269573
0.264988755639588
0.267498252828763
0.257903783123435
0.264450574486213
0.264699746092787
0.263766290546178
0.259630432836262
0.26456977941486
0.25870900447718
0.263984160771065
0.254674864300966
0.263058117330486
0.259933740300998
0.269088816103361
0.255324913878779
0.256407541978628
0.259462644280994
0.256540002073873
0.25049273909758
0.254643223450036
0.248408686979461
0.252960178564565
0.24472578428591
0.257427004128293
0.255912966674127
0.256074269992128
0.250003485981102
0.249444716201716
0.244935558289088
0.248897747502344
0.245654094189112
0.247577618124698
0.241992577429708
0.247513764016342
0.239125310105431
0.241721618146296
0.2422410296699
0.247630800564288
0.240325522234748
0.240325889433489
0.23334758918312
0.240547585558578
0.234785946363355
0.243207668120835
0.232795452008342
0.238829076158164
0.229511768696192
0.236045600711473
0.227771071118033
0.236454576992661
0.224759014172389
0.232425759566322
0.227427988562085
0.232121731321163
0.226494965539193
0.227504866749593
0.222475308413775
0.227919287638117
0.222897372022901
0.223936490040499
0.221656355500379
0.221138783070219
0.22014766290242
0.223521982240142
0.215137055056973
0.220385354952576
0.216443064145827
0.221031813265844
0.209816319788486
0.219844695178883
0.210097729216011
0.210883352575465
0.205375036197788
0.210964040685045
0.206176595485149
0.210153286595069
0.200337689017039
0.208395081377294
0.206236053205048
0.20972128223042
0.202991766236836
0.206725581284759
0.200337025604508
0.206061518493534
0.199214749671436
0.205960556632889
0.197257348303743
0.201001617006287
0.195880698681948
0.201425455377379
0.196247217186764
0.200987196103159
0.192890914073018
0.193997851627398
0.196385782023443
0.198667325857409
0.188448204584709
0.193190195961556
0.188035861052974
0.190908235987596
0.193751796030659
0.192824739067443
0.183676562943266
0.192794047881286
0.182292499326184
0.189515254331097
0.185460345146455
0.185353211806558
0.186173015728283
0.184675113001232
0.182632375579952
0.187634352357231
0.177997006639256
0.188500150108219
0.187037256753005
0.183350014952195
0.181802699740648
0.183215412651337
0.175821526160651
0.180049052264349
0.177180652546659
0.179683666648848
0.177576648106636
0.183054116541274
0.172079822074151
0.178371638194235
0.171883147802348
0.175434822562587
0.17217747939102
0.174497683412644
0.168839251233239
0.178162953792978
0.169113608760714
0.171731369170015
0.173376147689319
0.169111570166559
0.168744713201115
0.171960475445941
0.167573550830781
0.16690104177342
0.16874133905676
0.167557186092077
0.164134425255258
0.170541395509862
0.164231093524914
0.168211363711834
0.165271518569652
0.168256463763108
0.166499693465798
0.168206383937304
0.168153765390898
0.169446647003284
0.162703612739786
0.164413125470347
0.164487495095534
0.163249221530672
0.158167860067746
0.164967503972701
0.16152707244881
0.165586287531463
0.161167769275606
0.165815618141349
0.162591207889656
0.1644339696255
0.160344314283894
0.157689110034109
0.16122313711032
0.163331353875066
0.157388123065783
0.16200581652416
0.15448079320765
0.159777808337178
0.154402136243444
0.159590683107049
0.154957466820529
0.159429908517592
0.158864487800974
0.15775829274393
0.152007550934713
0.158788053897488
0.152358348461029
0.155156111591004
0.148266672894164
0.154008770493461
0.15213910455241
0.15861345610281
0.151841914853985
0.155261397547964
0.151514196664012
0.153461545495156
0.152865527343759
0.155145120512829
0.144687881106811
0.149463040270895
0.147044753021649
0.149244529889741
0.149862476970038
0.147159958030816
0.147514317093318
0.151313119228498
0.144820173544875
0.148387914050381
0.144368751099732
0.147108422708528
0.146767245999615
0.145145760159324
0.144337319877953
0.14894182849506
0.142849590285342
0.146605371642369
0.140525968057501
0.147886766566944
0.141848263324224
0.145894580705606
0.140225855365007
0.144047402103521
0.140939606977196
0.143628711308085
0.142343547054229
0.143249318962842
0.140260756302304
0.14405274624807
0.136000236169988
0.14074454470695
0.141089445320851
0.141366037322246
0.137898859642421
0.143957007644285
0.136710069910807
0.140492020151891
0.137009297492273
0.140909122661563
0.135348306160301
0.141271798852083
0.137590949930132
0.14269112015763
0.13435650983359
0.13938076694997
0.135067573715547
0.138540799127316
0.129575417859776
0.137296030280751
0.132697788998797
0.134472883592895
0.128435745737079
0.130333740285424
0.129324721987364
0.130456528024465
0.126226978949785
0.128136301258874
0.128642429444876
0.132359585470991
0.126800036191991
0.126803940646223
0.12533982073452
0.12807653179048
0.125477964396524
0.127536590671931
0.125728610522817
0.129259838747737
0.122696217886294
0.129205908408625
0.1249501093025
0.126575351902657
0.118178485307922
0.12507383553034
0.120958614162589
0.123679348947774
0.120133319798153
0.122625877703763
0.119216952928259
0.119786967961528
0.118063242456573
0.118980602916327
0.115579632002496
0.117971459805406
0.116335624295145
0.118737757490724
0.116155697461094
0.118656554537252
0.11391668942202
0.118944416794273
0.112626045992106
0.113615723225939
0.11102327110422
0.113645636450101
0.11181626882284
0.114724322261479
0.109584084263482
0.114343963277251
0.10940034726726
0.118143532104583
0.110681425576182
0.113794192487726
0.109236563414251
0.112946668393202
0.108701097580028
0.107738949877259
0.105309240037123
0.108693322227764
0.110374537702952
0.10847343820772
0.104260299289009
0.110459515613698
0.10727711763233
0.105788373303934
0.105616935688552
0.107728158983148
0.104553194251057
0.104686418500755
0.101908596112425
0.103818855456726
0.10130938884921
0.10593119188522
0.100187257303531
0.101978471720211
0.104270535243954
0.103535625156893
0.0980901680823606
0.099239547017229
0.0974076991042824
0.102521315889386
0.0987332899059695
0.0988964262838929
0.0983771011813235
0.0998993256576085
0.0976690697683242
0.0976756493917214
0.0986599375134763
0.0965748822883045
0.0979116047502496
0.0970554084253986
0.0985285551252133
0.0958167083971428
0.0982624348858433
0.0960049877428755
0.0929318541558442
0.097288387836854
0.0966196822154796
0.0943808486233038
0.0923572056118878
0.095788143073819
0.0930661786438726
0.0947633871831818
0.0924548843610359
0.0957214538397179
0.0948235194035245
0.0931339501405316
0.0929340164255011
0.0965499324338163
0.0970363487409312
0.092846139532533
0.0943410554032552
0.0919603705312491
0.0919782098544427
0.0979046190546503
0.0912950656936553
0.0983353600883599
0.0934284220607695
0.0912420339232008
0.0929684777137228
0.0878337886697568
0.0825783632411847
0.0830122526748946
0.08730644937221
0.0928594706267834
0.0870710267091897
0.0840035758943607
0.0831449924083811
0.0901889844893246
0.0814364813240965
0.0821963325453047
0.0937346702537199
0.0837848514190321
0.0832302132811983
0.0896292780339244
0.0814061434218548
0.0844170646313004
0.0775561923315174
0.0841529160482769
0.0955571505331629
0.0801564955123821
0.0904507704031227
0.0901509832132085
0.0911606445940309
0.0809528756007598
0.0947297832906076
0.0822087883920656
0.0914565697284591
0.0787201771984486
0.0885291179351986
0.0760323312890169
0.0867780586629029
0.0788541057144698
0.0926738662419316
0.0790793037372257
0.0969338902500904
0.083145628608324
0.0972735474782945
0.0685016300277369
0.0819252323795218
0.0731641852783213
0.0858812239464436
0.0818353453363324
0.0951470411226798
0.07674044366423
0.0736378215559347
0.0764597715517697
0.0824721557559238
0.0884740030785906
0.083792195608314
0.0832889579505452
0.0724413327306951
0.0984242961953478
0.0685767995844844
0.0965246454682079
0.0611174760306759
0.111874230339358
0.0546221082812376
0.109605658750819
0.0607209080490086
0.111002511058416
0.0574152328379963
0.107195108659181
0.0679346042169927
0.0983210813583006
0.0790152694210496
0.0863983434126727
0.0798935890049151
0.0817906687684195
0.0844056212295199
0.0837893970542231
0.0782869036043983
0.0834782403970429
0.078247746946355
0.0890293144881485
0.0765317265613809
0.0899907958251412
0.0740642826156705
0.0878860665478833
0.073511160615902
0.0838299094206077
0.0767477550381985
0.0855631962426851
0.0786078893984886
0.0850717346900831
0.0798894585846263
0.0854571526272269
0.0776914891339784
0.0858937657814581
0.079936027878577
0.084104709027198
0.0749920500756718
0.0839051028894724
0.077351658333456
0.0849747394498501
0.0786606245367749
0.0832036388035461
0.080369285928093
0.0853621684469132
0.075143846749202
0.0854995493265739
0.0775297677808557
0.0850897578399337
0.0779944355807129
0.0815041685877721
0.0816834944446029
0.0865180235830623
0.0760053456637413
0.0858459033517431
0.0769219917748768
0.084636568670802
0.0790706722261345
0.0848074957008848
0.0775464562242417
0.0831639141707489
0.0782099037572322
0.0866698121692783
0.0801738054029063
0.0836342738979274
0.0810023556463313
0.0861561172980669
0.0767965817850626
0.0854913898900923
0.0737959209414487
0.0862621794913548
0.0813137832129905
0.0849389014399785
0.0809145899936437
0.0837550856673101
0.0783111100070457
0.0856806606604529
0.0775588798384928
0.082134968364735
0.0801912427073693
0.0822149689644096
0.0805385523804701
0.0823682480624323
0.0816165066766022
0.0843632204673263
0.0782496198253075
0.0852367202959184
0.0787286514825058
0.085593960950537
0.0813553702413631
0.0838240102274861
0.0799975138240142
0.0836753166876866
0.0805872699979856
0.0835492162130248
0.0834058398973677
0.0861466199555084
0.0784144860455959
0.0861736416785086
0.0813991429594015
0.0864174860227985
0.0819829648087579
0.0879968507884684
0.080878428928076
0.0829720770290122
0.0824656697250748
0.0858437622867499
0.0811286559378124
0.0843572766473625
0.0828175307329836
0.0850794068681875
0.0835776844483607
0.0874728872167119
0.083319591780019
0.0853427668157421
0.0836873407722796
0.0860843119449471
0.0850817006932112
0.0906005538086295
0.0837990712235771
0.0896270226430636
0.0838640193913714
0.0874808259756907
0.0835465969419952
0.0878317692160388
0.0846186539486556
0.0866877427875507
0.0830808473733916
0.0837311580493292
0.0842941593012831
0.0880344481341276
0.0851362283597617
0.0884723455392044
0.087609167632903
0.0887529436939632
0.084680314148585
0.0911158209102138
0.0856808278597421
0.0862214930055243
0.0844633531052469
0.0893509231719863
0.084164886770277
0.088309242596078
0.0850025194744405
0.0899617541899016
0.0845178745750104
0.0878756763696666
0.085984132505038
0.0911888060620697
0.0841681740582147
0.0898345562700362
0.0864025196392205
0.0910835494890281
0.0877318725635667
0.0920014556034369
0.0883190504519116
0.0911883505840813
0.0873964221418682
0.091759933118114
0.0866786807997128
0.0924239027134755
0.0873545323278506
0.0915826537340097
0.0865363431599588
0.0913508584421781
0.0877949272247232
0.0905746066856925
0.0882106941532529
0.0930938606566803
0.0884051870121763
0.0899123653413354
0.089456065159145
0.0922364249453644
0.0870092981797134
0.0920679107342246
0.0891558443815139
0.0912133788387333
0.0908875919742618
0.094123352145806
0.0902501295118187
0.091955111866065
0.0928671160873314
0.0927811646187852
0.0869954105982251
0.0932333217654859
0.0924018488014923
0.0941953356880335
0.0896912553263974
0.094447749154029
0.0885569651617434
0.0921206590178765
0.0873357032645589
0.0952708638742955
0.0869121246286093
0.0894936791130513
0.0882130668411014
0.0926244522678239
0.0876638225134386
0.0911116719738099
0.08830126852462
0.0900854992897276
0.0891997782017691
0.090862102052428
0.0855700952168344
0.0910693096309876
0.0889249147438223
0.0909211368134443
0.085213941669722
0.0894164871211389
0.0880175433859104
0.0856991719004278
0.0857754606620069
0.0903991015328919
0.0841593793840017
0.0883398348968092
0.08778711794593
0.0884996482287932
0.0879155247143753
0.0877027480098223
0.0830786373452316
0.0889457162432795
0.0867364203509377
0.0887948812983349
0.0842317365805958
0.0867006825553045
0.0850480771084471
0.0874374797645146
0.0831540778773292
0.0862446003293206
0.0849087613502674
0.0880766638916552
0.0845277734723609
0.0872812062060108
0.0828242653380991
0.0878631458432015
0.0844470119653576
0.0872821279832771
0.0839570677282855
0.0847455713359603
0.0816637755722374
0.0861822687570628
0.0815286720610406
0.087477286961125
0.0831340197911733
0.0864347552772764
0.0822731211347473
0.0850589583086728
0.0825514934720103
0.0868651557762207
0.0820584580257077
0.0856053948840793
0.0831657068467714
0.0856636649883156
0.0820259663840538
0.0836373569500946
0.082185888874494
0.0836096752920488
0.083036567001423
0.0837811770340397
0.0829507398548157
0.0834441992009517
0.0851220162163
0.0865543912182039
0.0816510616396702
0.082482282455569
0.0814449086737024
0.0843776897237062
0.0820528261571457
0.0869216984608559
0.0824193218853059
0.0835887817262628
0.0810454459338162
0.0822042323288233
0.0783898810118017
0.0838985536583025
0.0820457357058122
0.0856560817223331
0.0774337840016315
0.0843502421616735
0.0806380115619558
0.0859756369215775
0.0810394168164057
0.0822641478789437
0.0788824776758305
0.08172275508884
0.0786556675127409
0.0785848626320463
0.0798528436426765
0.0814246769447353
0.0782369360889775
0.0787692679619483
0.0786903396282469
0.0803423507374756
0.0813131361745988
0.0838981996587291
0.0801208992424472
0.083102117376857
0.0780855218938422
0.0829411725523358
0.0745363361252824
0.0794160116305876
0.0780001922724359
0.080529182247204
0.0769651426406803
0.078314026934047
0.0777754891782147
0.0784209320107917
0.0754597886837682
0.0796834498739994
0.0747132681751241
0.077356777902574
0.0771723587683204
0.0815075417108566
0.0765090657567242
0.0776327673984291
0.0723048256087172
0.0767247098442661
0.073369688338055
0.0772868051928893
0.0732432274085773
0.0779702150412576
0.0717260507886057
0.0763187844662113
0.0729643514422149
0.0754774756689248
0.073733182361013
0.0753588476881204
0.0740731102398531
0.0708549489628678
0.0714953410851526
0.0714825351711013
0.0697112389852977
0.0745329893421993
0.0698191992255747
0.0714230878646863
0.0701704591865739
0.0734375157982345
0.070547645838474
0.0704165887272193
0.068910537269699
0.0704122875833934
0.0676520363734929
0.069521215865626
0.0716569406062365
0.0698992197902119
0.0690118818046543
0.0705471184767857
0.0662405792221986
0.0685941266156757
0.0707473411299938
0.0672773532623661
0.0673156289783405
0.0707939555067516
0.075934628963126
0.0702214888209316
0.067208346583508
0.0700173567947486
0.0671018296964519
0.070149820062555
0.067166164064321
0.0688388524875584
0.0641109506906627
0.0685162716107437
0.064685530590804
0.0673595983627652
0.0640095367365743
0.0664130023024308
0.0630961672170534
0.0679196994325541
0.0652964940466982
0.066800192234942
0.0657444791956696
0.0680186536497593
0.0648741457069949
0.0676251045531269
0.0656197472968142
0.0645112869868352
0.0639184146618146
0.0630927297107263
0.0665546616888121
0.0711398094078572
0.0655113940578382
0.069615793078149
0.0632540186932982
0.067082115818077
0.0606041151703662
0.0667196302098565
0.062387729560604
0.0637138671026431
0.0622028159385333
0.0661761939651417
0.0597943848831821
0.0646018282991574
0.0624167601554543
0.063532824677215
0.0607501705054336
0.0647560437744853
0.0613559118584637
0.0634283621274023
0.0625343760019116
0.0680605578645992
0.0579857923007413
0.0671680965915521
0.057810312547089
0.0643198399492711
0.0618379786619096
0.0680796875407575
0.0639743359709981
0.0604445949215277
0.0621912786199358
0.0600744712441864
0.0603013950170695
0.0606830520743062
0.0583700664269485
0.0593884607739819
0.0582439831479882
0.061849183637963
0.0619161214929079
0.0591431989347504
0.0597924842041165
0.06077262530419
0.0612558691965893
0.0579698616810466
0.0610544966618051
0.0608235869469621
0.0596973727905629
0.0601385707527187
0.0671299626263136
0.0677919895228554
0.059990054828923
0.0603583389688019
0.0652895423344147
0.061540641410503
0.0709358947849069
0.0563321091904048
0.0619110661640045
0.0567711030278089
0.0615277429263423
0.0601362142840943
0.0611512779951236
0.0614602199224435
0.0631668954947735
0.0621628215361882
0.0587537211324419
0.0624802250423719
0.0589490072627431
0.0588181528155478
0.0598103989414866
0.0597225526584992
0.056220868628358
0.0591078988126639
0.0597269535893837
0.0594165397815433
0.0602193352524023
0.0594690795435242
0.0593337342540767
0.0637497386419151
0.064632265968766
0.0594881542925566
0.0586851653109029
0.0570931530553642
0.0586003326184252
0.063114178696442
0.0603063560931085
0.061736585354258
0.0532675521216501
0.0615451718770669
0.0542972867846364
0.0615986400312294
0.0570259325861931
0.0605831101731215
0.0550675524315631
0.0620340337520697
0.0577763597874956
0.060761389453735
0.0557559667126224
0.0588997607603631
0.0604433738190722
0.0605179060431174
0.058925323655768
0.0599993195981166
0.0602392828411529
0.0589173991856185
0.0606465957462361
0.0621842413250649
0.0712568967988808
0.0686518682416284
0.0606193346630292
0.0632348406681785
0.0605825746747045
0.0618464282756579
0.0583409345864586
0.0627267251691229
0.0584287145341107
0.0627453592519182
0.0596639563105937
0.0621231351746014
0.0557921689899129
0.0610027616493372
0.0576253341011049
0.0607882862731352
0.0556384629599832
0.0622962023331842
0.0545453237471906
0.0634958481580046
0.0523397075548628
0.0669684790432285
0.0563838323883052
0.0701888791178072
0.0505175941154434
0.0696038693794022
0.0543131817841856
0.0771710815247405
0.0623934932304654
0.0613088510876875
0.0614381151661819
0.0601054988197569
0.0607625715891617
0.0612278709626734
0.0610037706192378
0.0640104167081207
0.060327039622187
0.0600718147280753
0.0602144402400213
0.0610544192656228
0.062088892333688
0.0729951751383176
0.0759513050901128
0.0768906395603428
0.0568046072238977
0.0607218227486332
0.069739340220213
0.0729065222964304
0.067795883926764
0.0579160583918138
0.0669136273599399
0.0598027890759766
0.0636109543997188
0.0593882024211669
0.0648237369873911
0.0642827713734662
0.0642536255437227
0.0633170205859259
0.0609387846296145
0.0637241568693669
0.0601064507340212
0.0649901662546777
0.0629701667445652
0.0711179020801477
0.0677519720201917
0.0638818101529722
0.0666534149181546
0.0653714362141183
0.0650471250398682
0.0650516218106474
0.064466188084704
0.0679624404532665
0.0660582382194091
0.0733509339902367
0.0711299441090979
0.0737782455503973
0.0694352815381616
0.062808150685656
0.0744791262752209
0.0672737263549002
0.0692549753951886
0.0707845487347046
0.0746388157789086
0.0916305441998194
0.0643950235113306
0.0802450867536734
0.059680760026344
0.0775812299056402
0.0575849255336979
0.0842871474971105
0.0666298702208272
0.0832752986628515
0.0594501832303696
0.0767331151034095
0.0645634077931667
0.0823421324039352
0.0732981746874019
0.0740365421305726
0.0678693505743882
0.0774719544798131
0.0801237462991567
0.0732119187506625
0.0755217986537165
0.0755972493158809
0.0948152316589867
0.0864411121232278
0.0759694003873933
0.0839971386489592
0.0717310931653814
0.0937932226420224
0.0699750677742529
0.0773492503014296
0.0708272043780528
0.0755776767686124
0.0837554603489732
0.0934749406269338
0.0807523383350892
0.0780615001489564
0.0768608235460973
0.0912213069831922
0.0828069512247912
0.0909098015195552
0.0746843494739808
0.0882762344737063
0.0760084889825658
0.0977090919607476
0.0953110513427727
0.105647554985289
0.0912958392096449
0.0970356328111598
0.104589096706481
0.0942217370896665
0.0980635365360877
0.0901424716401049
0.103052861529086
0.100223486305108
0.0943233551344487
0.0909276192689231
0.107204107177721
0.101411723893719
0.109819046020367
0.0914309708076112
0.103938763001558
0.0988383004160757
0.118054888711002
0.133351796276222
0.121480166138986
0.103720931362049
0.1127548910707
0.11389473215042
0.120837364032976
0.109330452615652
0.112209145888897
0.111249075401463
0.110639111620122
0.1182589136782
0.117535425986796
0.123641401477711
0.12323281073536
0.119817585938173
0.126990774279363
0.133072106610902
0.159052893844704
0.134197660927905
0.149203003378793
0.119904439965059
0.153082649950753
0.137466350580074
0.135170026785729
0.136173638109834
0.138051930789383
0.142918303520165
0.13897817955224
0.148063984821174
0.145766690688704
0.152900293199119
0.177096378651378
0.151224483193599
0.171139735710636
0.136851231193207
0.203930565986325
0.168188549587854
0.209333530825822
0.162788901756275
0.183047784902989
0.199451205731264
0.207874993080311
0.206999253674642
0.191816699661882
0.19503414758835
0.199516699771923
0.206232869164733
0.215066553263181
0.22240480711357
0.236981356708789
0.227304074220998
0.235323506251682
0.23994998140986
0.28949186407596
0.289574765903182
0.261274667705365
0.270042208621713
0.275543267227346
0.281275094710686
0.288280157772572
0.29063374813035
0.283084246388596
0.325451476605076
0.317903114476801
0.339287939666611
0.310062239063828
0.349065045457047
0.326647755591297
0.360879568491246
0.354343976483738
0.386081901818812
0.367820182376655
0.372444128745207
0.389018622562363
0.380040868642573
0.395514951069578
0.397888089165408
0.424816843926865
0.41056341596671
0.414195405622063
0.422848917790189
0.427385787902661
0.433291368223218
0.424586278579007
0.445309981670871
0.434527742430468
0.500972591747865
0.515693951356548
0.473345704081642
0.456093747991482
0.446058753484273
0.476442371755336
0.456701131886186
0.483747846172624
0.496725426375539
0.482536075549304
0.471331783217897
0.457750310286088
0.472932386947725
0.463529917029446
0.481194569100819
0.463858758916422
0.479240451847169
0.481327538087135
0.468890123308541
0.512203702745627
0.505290729950623
0.495620162335654
0.457989168513891
0.481241040347278
0.463227474305827
0.470506548542829
0.456334350461023
0.48805910706898
0.474614813002325
0.478038545644315
0.450243981158883
0.462084765976503
0.455735541487676
0.47453068208694
0.454467335342284
0.4397540343251
0.442115614743235
0.441902462559575
0.422591153124006
0.46983446819105
0.443612354438335
0.449399204332297
0.413799336545041
0.42102456892627
0.419695996599274
0.418715619517514
0.413146719710168
0.429370859990058
0.411325065807935
0.417891878835315
0.405030474297073
0.412844944092034
0.400932119093623
0.408810495229734
0.404191959390158
0.406079302939757
0.398187472968311
0.395134644786035
0.395722881711007
0.397385868301876
0.397491062214298
0.394058469954514
0.392335135662735
0.392781365191424
0.388154441627337
0.385985647791306
0.385330743326058
0.384617390013524
0.388630469205328
0.388670138870686
0.385701499591737
0.383479932629862
0.3805449283534
0.379595848822036
0.381781881396032
0.380741733165067
0.384681341583679
0.3805038448229
0.380291944149639
0.367832493452847
0.378211830957231
0.362982280612048
0.369198236176704
0.422200960106264
0.378327983292537
0.377052541218025
0.353605835009155
0.372335611428751
0.342857481811926
0.361789435712359
0.370194511170639
0.369215374628063
0.352291002816762
0.342577873270646
0.335236607014981
0.356388054930967
0.333404642179372
0.345834083318009
0.320936457103853
0.331996107739208
0.34101308372331
0.343950970329688
0.412360101674831
0.355552458402862
0.335723291016055
0.300325872214693
0.342853347524826
0.314973289453237
0.322322451058755
0.295353938771353
0.301593248356245
0.315844209939816
0.309000725436749
0.308619714257459
0.293095318553297
0.290965097171362
0.315120755761004
0.3152405036714
0.297951495322752
0.312421995247656
0.296226615229246
0.303371212299244
0.3143077560584
0.338705744573667
0.284018076744856
0.279680137704705
0.271647300264436
0.268725526074209
0.284238913023109
0.27654581071184
0.277257707098051
0.274375280410158
0.254306411161918
0.267266518989885
0.252311638314118
0.277046114321356
0.243639432075209
0.280654985251602
0.250413155375177
0.262388412186346
0.247864021035084
0.259777970913522
0.288395355298681
0.275810609355659
0.253389122342817
0.233364409636485
0.273061599644087
0.254183107345916
0.258480446599796
0.245018684414188
0.230194477892871
0.249817907085067
0.236478182515427
0.233200064536322
0.244266427993026
0.241564201584525
0.260292273425039
0.253890772647976
0.283398186468111
0.259587440244324
0.232548415919626
0.231487314465199
0.225135288561082
0.236527255530435
0.222503620485533
0.224643174553194
0.265804517940913
0.222710889396854
0.249754841138162
0.238071005153057
0.245394636985561
0.235933276934356
0.241397214500278
0.237214338957986
0.242924822860284
0.256385678463566
0.282591804371923
0.248093420260962
0.273573077661207
0.261369969222922
0.272634897775413
0.253478812655202
0.276731777722362
0.265990672909301
0.286606857528684
0.285225841234238
0.28637526872174
0.29021720112459
0.301764033885674
0.284911888523708
0.344015115939499
0.312892042020387
0.333141747148501
0.337561887701513
0.345789775295096
0.373871934294688
0.352777677463629
0.35903937459925
0.352969701253512
0.370187332732846
0.370747164227277
0.36546874427702
0.403438092710066
0.385948972677222
0.396211007008333
0.387866042622973
0.403539094201704
0.40386070230437
0.403389225848498
0.430597900055111
0.417562482926222
0.498219211661625
0.427460509266571
0.456321005120023
0.423463335483453
0.432416705630674
0.430165420180432
0.441610603069529
0.441369801470426
0.438038813241825
0.45609846269447
0.465621081888063
0.443241939508765
0.457873638637705
0.445368345178464
0.457650353288865
0.454642454707864
0.460979619581652
0.462930225067157
0.465705962715501
0.478982574579316
0.457912277474659
0.488231430282099
0.530097324462076
0.483183087733114
0.493167051024543
0.469941048746167
0.509376456558832
0.491410112855398
0.517515417120006
0.517491687357072
0.516823597270349
0.516107789485484
0.512213602958985
0.526861141384565
0.520813319784028
0.535823848520725
0.542965348836794
0.536697801431884
0.554984743612511
0.517733157582172
0.619134751451015
0.548639314879075
0.568717456877017
0.548054988322513
0.569948021261553
0.546019335496325
0.554638624571937
0.551912587347602
0.557479414154129
0.55982456452953
0.56477946078881
0.56459344089585
0.570102777781176
0.570330096939754
0.562570203631266
0.559323364394436
0.57801752333445
0.558847473828695
0.567061876268472
0.559555282875121
0.563315834786357
0.547100723278437
0.5907132066244
0.558011879285315
0.563779965759542
0.543783295178355
0.567274132846622
0.564582594925308
0.565284518393853
0.552425931333807
0.559746464242068
0.549894357214458
0.569565126134346
0.544264111113133
0.580961565919849
0.581639663850938
0.582196338455495
0.558784334268391
0.575525060949758
0.567020090010713
0.582904407933942
0.571514246874077
0.58487757422792
0.580972778468264
0.597378185003146
0.592344110305059
0.595197305926312
0.591783200150419
0.598077502205339
0.609153216018701
0.602680420604327
0.582525727182057
0.597683469665198
0.575378377678609
0.597817168784329
0.586730563374223
0.588087401683823
0.571496734191735
0.582445782083476
0.557817263619208
0.580138815507124
0.577341514837995
0.562824841398646
0.565617160248912
0.534543140652558
0.543640520314677
0.539987806853391
0.538462282274186
0.535821178443171
0.532625574098504
0.530125337335497
0.529683610672063
0.523631677464527
0.51732855345321
0.521542260804537
0.514987476064435
0.517273740945425
0.514287798808543
0.517211497083488
0.507486989576451
0.515039794752151
0.503278013489295
0.511214948461879
0.502109327218655
0.507201437085049
0.51908904764356
0.516905684569886
0.52296245290129
0.502564922247355
0.519948242468338
0.50625259997817
0.510017246258683
0.509179593144528
0.503811137332498
0.505226717781438
0.510014433982525
0.502572457293227
0.500593703227704
0.503004384409663
0.50978243473846
0.509847567864136
0.50193840781688
0.498175343870047
0.500999444122234
0.502955775667715
0.502917234671706
0.502695219582715
0.495216953659094
0.511060464867658
0.494276466811012
0.507708700249221
0.494734687212711
0.505397746676264
0.499526472139861
0.5056581156398
0.503302009632588
0.498836514301813
0.497021321425698
0.494059878822082
0.49818746539908
0.49558764790086
0.494815478480273
0.49524177842075
0.495316642141992
0.495797619553684
0.487805353406747
0.487647670975652
0.485108372069382
0.482886926878712
0.477770703121394
0.481909668598843
0.471574582015734
0.467172137686586
0.461816236667407
0.458438786258148
0.452703504574698
0.452193845198289
0.447834056198592
0.449520239213514
0.441947940823181
0.439342820335125
0.439686903491355
0.439403798417438
0.434763126985301
0.43362201512698
0.434564114975751
0.437550138581122
0.430243435494926
0.433599022188771
0.432791545465429
0.428747289330535
0.427488736867196
0.43382180352245
0.433473748388869
0.436140221436794
0.433327740250738
0.435113159844166
0.433413544009736
0.440128649399933
0.438953773883231
0.441836473106551
0.44064959806205
0.444868969777359
0.443531511259946
0.448512352951841
0.450545189445886
0.447502238642304
0.449704710650464
0.456397726420205
0.457003653149961
0.457327498685943
0.462069542861442
0.45865278589785
0.459704714211705
0.459520580787367
0.463182181873783
0.458680181088522
0.45549923238972
0.455963314796781
0.460522828698327
0.457536052996377
0.448691319568161
0.456141080389771
0.452215964044758
0.454859205374773
0.451064217312038
0.447924881279159
0.44843099339007
0.446568846571928
0.443185149985353
0.444704021820046
0.439462353845119
0.441186185156446
0.435109217011987
0.439960262066918
0.432353843602222
0.435897803288528
0.431885446024437
0.430776619791276
0.42799800985202
0.428481241192338
0.424917473617267
0.428175887837033
0.42336585220004
0.422924811613382
0.423782540422749
0.420871678322586
0.420517341744514
0.421384468633972
0.416922838192616
0.41512443722702
0.416646082336712
0.415353100548048
0.409793764859026
0.412323589179583
0.407397500945509
0.401988508815666
0.400128359767284
0.40317934635712
0.397434794335241
0.395642403565517
0.392881676188417
0.390346317058655
0.389528947985951
0.385313065632646
0.381138876484945
0.381590647328528
0.376462695707425
0.374817750815692
0.370730473163893
0.371043466624244
0.372124067717213
0.371829890449787
0.368128690840549
0.37098625821369
0.371057685580525
0.369262164093445
0.366381401622754
0.366911982510888
0.363147638522742
0.362730672198949
0.357258077111611
0.352047676374514
0.351216744431553
0.343713759290828
0.340252486672815
0.335762330887296
0.331415393310269
0.330541691508577
0.322016873635315
0.324304356834068
0.321951028784901
0.325111505897476
0.326532159192558
0.330093327475949
0.332767720498893
0.338026863129427
0.345490411798312
0.356058147782008
0.362681927534569
0.379375670646427
0.390137118977712
0.404628932985099
0.421037226051223
0.436547463571994
0.454165543826721
0.47167170048155
0.485036228609869
0.498619189101216
0.511825429681982
0.531478838351049
0.550301546267106
0.563425747205222
0.581716289170648
0.597865260900044
0.607861135875617
0.633613840472462
0.646743299163873
0.658598687763418
0.671482663170796
0.680333277684671
0.693775935837858
0.700247802834328
0.716501702053619
0.726922615531772
0.730278251728683
0.737783633947042
0.746047886472982
0.753784735049884
0.756149689948965
0.758675409565279
0.756506172513663
0.758113771664994
0.760456836170933
0.76175660966669
0.761167050412049
0.765629133076468
0.761888342886621
0.758855545331648
0.757346256045602
0.76309575719633
0.763757263858829
0.768502556570106
0.773050307689289
0.768031061356217
0.771382080890283
0.778722924692696
0.782311804966571
0.79879176614046
0.795214326128488
0.80489235410639
0.809315581156977
0.821581564628707
0.828644022220239
0.8479637168922
0.843028323555252
0.854071749760725
0.865749005539547
0.883415209544881
0.892506944559135
0.906126840970688
0.909252563507485
0.921806473886298
0.936947203220916
0.943100331654082
0.936096370563999
0.961197763596689
0.959842300642275
0.962186759686962
0.955188853319247
0.94483982723822
0.954160602222804
0.946596253655483
0.937559042158515
0.928202036283785
0.930703756237102
0.946813140024568
0.940911704594296
0.948001334676634
0.953936592210499
0.96106726826924
0.971833016958397
0.979195164514898
1.0087750561698
1.0062813910257
1.02053399254317
1.04355165664724
1.05484562890425
1.06221098451113
1.08430646510246
1.08423156395571
1.10515900005186
1.14346474278772
1.14324454465823
1.1584606115145
1.18470610611447
1.20594877650064
1.19407884420171
1.2196373265192
1.23928905275482
1.27747071048086
1.2884047107625
1.32939647852431
1.34493611580397
1.35062983295604
1.40923958564863
1.4226349362282
1.41304794598657
1.43419155582168
1.50168322789209
1.52901322153847
1.50065407655522
1.505374482852
1.5721066324273
1.61450188713218
1.55579614232762
1.55294901911664
1.6793533061302
1.56858355428255
1.61978215197267
1.65987238520886
1.5929739477634
1.63877225442411
1.55187894447176
1.59448903314351
1.57135207955273
1.55989823388319
1.62321110849524
1.5417611437099
1.56141699839318
1.5919357868666
1.54298149402654
1.62522896895719
1.65225582021112
1.60668785636852
1.58516368479355
1.686472029818
1.64548296670167
1.70193799766702
1.73136258504619
1.73029651499405
1.74087198929833
1.75012605612596
1.77104078186674
1.73978030089703
1.83225136497577
1.85372600061272
1.73087423415141
1.91115039604361
1.79480409582267
1.77793265439797
1.86475525777058
1.93645270600553
1.96244178157103
1.88484606334829
1.96393596110329
1.8672042473508
1.93462602628565
2.08319868289254
1.91686867465541
1.95443140023688
2.07603829392078
1.92720123080922
1.97045316251993
1.98634714751435
2.02700627106739
1.96073255939472
1.99767123829018
2.14127534247936
2.28499448444081
1.9249365431425
1.93889968829095
2.10762190620152
1.86534545840069
2.01861652987603
1.87561813653832
1.84411268594392
1.91550106427289
1.81507257180187
1.87216382176937
1.72443922257018
1.64353607527825
1.57790484165474
1.59117568311784
1.49978563787692
1.5151169466069
1.41178951195473
1.36103304151117
1.38424122324708
1.35476092618459
1.32279173083732
1.29701433040458
1.30023699053089
1.29184216510736
1.26978885757326
1.26794366448219
1.2005511743909
1.25472898531963
1.21746419750202
1.17215174402301
1.16434476031045
1.16532641255922
1.14471541016202
1.11455082220174
1.09217306878255
1.09441178862125
1.04842116702246
0.994574776832187
0.998469667380623
0.964699621154271
0.937113766678134
0.912301945175285
0.865580869115433
0.833384045864935
0.794458060903847
0.767094477223839
0.745763516165662
0.720677553510958
0.674432643381789
0.644789508106344
0.621739738344403
0.599421714210474
0.565686530472899
0.54636120513971
0.527512096968735
0.507080260917054
0.488160023284656
0.475619015945798
0.467848156062833
0.452753433925139
0.446014807984124
0.439435422369228
0.428695941449236
0.421678756396354
0.412607712320112
0.40906084126335
0.410992036779565
0.407994566385839
0.405153562642577
0.401903834746476
0.401446371260349
0.402927088169463
0.394898871499957
0.411528406464917
0.40566605033985
0.408749189599556
0.409559514632453
0.412952073400504
0.416484497547574
0.412561360265939
0.409936574073204
0.412373652093957
0.416575886369874
0.408814118927453
0.409433646779767
0.404389511308646
0.40115267907478
0.395607415040338
0.39709726114534
0.393625003280379
0.386309991776154
0.39303086541929
0.392843068052605
0.38615786563046
0.392505521840325
0.39471364965942
0.391982813132495
0.395669661822649
0.394349781013283
0.39494134292752
0.400941083013832
0.406903946634848
0.406987694411158
0.410036942577841
0.411931276944814
0.420214853369117
0.423844543150687
0.420047338059746
0.42198329237805
0.432609341393087
0.427793417656276
0.427147496637263
0.425876858468086
0.426432541749597
0.432080324681106
0.43120291873589
0.428680451164471
0.433784085133107
0.434759095775524
0.436539913819512
0.436376283567873
0.444636679938693
0.450483469100945
0.45815283508202
0.464354876829779
0.470414436590666
0.473380599434427
0.486156353429128
0.499169880315844
0.512025117397548
0.528701690692672
0.539220693650873
0.54577532948011
0.557890262417353
0.565823551321252
0.576547929351903
0.572493157437249
0.580269138143809
0.563082265296992
0.5558803380934
0.54449179633627
0.537913578976597
0.52958244564783
0.532605341692111
0.523605584472398
0.514548711568493
0.511362461240333
0.503577247723298
0.501105596852175
0.504340811075408
0.502296731116174
0.506489796730888
0.504862440660668
0.511579139971853
0.511592788402229
0.508485257781945
0.508565250191331
0.506189788555929
0.496370917139511
0.49645745926915
0.482945992050825
0.477849112209837
0.477587806237034
0.481028352284829
0.468131002864205
0.472373836509506
0.467270233726848
0.460804515383764
0.456094078523686
0.45020415887917
0.442905462569528
0.447188141337009
0.45465751652745
0.450713070241362
0.445072406587405
0.447348475606777
0.448900374711901
0.450305929530242
0.443856918723037
0.447350065459598
0.433167362847711
0.430493952024422
0.42912947174118
0.42972481176957
0.430425299109158
0.437348988932189
0.43594679786051
0.435444802017034
0.425701243587581
0.42185938222962
0.419238336587549
0.419870083388883
0.41713457743395
0.420434152457838
0.403895518126521
0.403678022641392
0.403307759164588
0.411511623768509
0.400642107539798
0.40409119777198
0.406402119280882
0.393898489142839
0.397611310215261
0.403703986157284
0.395605693490036
0.407563368411157
0.405240172883461
0.410084936632648
0.405757552258767
0.40987105645595
0.405711215455843
0.407258154885959
0.395433819089038
0.416892726219437
0.404693770290437
0.410705051625448
0.41237237213968
0.415783774674175
0.413751558784835
0.419083428166599
0.408673011115786
0.425873263035195
0.422898114947443
0.432999919793697
0.427484524169889
0.435743036680449
0.434518778142551
0.441307145905589
0.446588690673649
0.452190565870018
0.470067436984671
0.475151566899766
0.467441172869663
0.481825791845184
0.48259225188586
0.51861878454985
0.501240895202135
0.514361073655473
0.530882329033943
0.561788203392027
0.56019061075473
0.582307102072523
0.583153639866339
0.584254545269243
0.596315580392777
0.648842010164102
0.634842131454096
0.645923704226711
0.641126827424356
0.655644322445487
0.66010464040733
0.712305932932984
0.714009310345503
0.713894383409263
0.713483193737377
0.692808813090613
0.673389931928478
0.698822431587852
0.699547358925137
0.692849555874612
0.696814749203795
0.681721934641668
0.66958131455435
0.683955451785763
0.684268021096582
0.677679464548474
0.646369850978092
0.669020849692484
0.677272405769822
0.688666485885057
0.67043734074958
0.706770741484524
0.670125666276167
0.64663028219614
0.645861961864297
0.709728217545991
0.643239349507713
0.635860338259981
0.659292851232446
0.620058821050548
0.626864301309234
0.605752301190975
0.622473200248066
0.631781681824156
0.626909889803632
0.625663323124231
0.561957284216535
0.644155127979276
0.668564748457068
0.624860725500794
0.626401704216291
0.609074899850693
0.601171837660329
0.616822871186083
0.624460612034973
0.639815352718944
0.623684734041819
0.639471237344176
0.638041962103975
0.661954247734792
0.586282879257013
0.631815502707878
0.636052384440599
0.694112414722789
0.667273848406604
0.608016582133485
0.614543231984354
0.637098674201339
0.667067212843141
0.693057680475929
0.658805206129457
0.697263334872228
0.674775780839451
0.674368751141258
0.679091818583619
0.731924963630348
0.688058067392422
0.684478461398594
0.690164350232409
0.718072841395607
0.751981374896531
0.773380815603609
0.693568498626267
0.71418033941388
0.803796673641003
0.813975902845875
0.723789451960336
0.781688095067365
0.767790070107297
0.783952837348444
0.813863003733208
0.821002077931143
0.781393225415405
0.837784213668602
0.831104450419107
0.886794239298297
0.897157663957939
0.868067077313056
0.846339059204492
0.805272774211673
0.769171670555706
0.726780314645071
0.859591673424036
0.889457718549723
0.696011229572123
0.779425409219642
0.761554961021085
0.846750111721778
0.741359708234403
0.742436174816376
0.850094328909245
0.832418026918491
0.821432752913374
0.997701449704004
0.847196152966565
0.926817033886963
0.928379218319023
0.800337738815918
0.721060624645337
0.867879160932395
0.749293013789481
0.955901067006758
1.18212875864079
0.874049454561101
0.865665565400438
0.726868666910765
0.910256491710032
1.97415957984802
0.687256960157837
0.680927875209447
0.900562549982744
0.742561220240474
0.773140342440491
0.728848238380838
0.704733490843362
1.03318861536798
0.7245174909792
0.947728368923539
1.47831576867911
1.18901598111827
1.06928061138036
0.988614277278814
0.888153135071111
0.999100659514791
1.19225310593225
5
1.0794257713463
0.840129684035571
0.963253098230913
0.955325823703134
0.810522518097104
0.855932592490186
0.61836950184032
0.935407802896731
0.857883172617611
1.33449082671641
5
