3596
4000.36533379555
650.420452594757
1
2
2
0.0705463123738093
0.071209463240573
0.0670656547144509
0.0825340583802486
0.0646261406878481
0.0820218310661207
0.0737920716179732
0.0724549762625487
0.0613048986933253
0.0686318760014673
0.0615368950738925
0.0765065126174509
0.0640073525269614
0.0707901695908134
0.0644699996597127
0.0887563518902172
0.0699956367500238
0.0778899601789916
0.0537995380260407
0.073815023511878
0.0737350785909634
0.0734153016441941
0.0582327250774535
0.0747479207972227
0.0594248556053356
0.0683293323227903
0.06029058391294
0.067151284351717
0.060067524167489
0.0752889358363123
0.0654222190448367
0.0749570125679586
0.0656598070644212
0.0786775897599198
0.0649212261835202
0.0740899882277777
0.0717782353108955
0.0786134957129903
0.0659916344534056
0.0737097632618137
0.0608944941847563
0.0828480713597756
0.0623023881081975
0.0783210537477036
0.0583626147425832
0.075747470758645
0.0599451575862506
0.0760033823257852
0.0710224300822576
0.0708704184042796
0.0562812377205246
0.0799185085863629
0.0704089562553175
0.0649277912937004
0.0698234182050777
0.0818262294817711
0.0604372666320687
0.0743508608908846
0.0527110615577823
0.0679424636416842
0.0729726014216415
0.0791502818857677
0.0695599069040649
0.0803421106534762
0.065865433333805
0.0695192589697798
0.063673386015096
0.0685888101449528
0.0682771663583046
0.0756534870925053
0.0676011101343157
0.0770502893254556
0.0700014397126632
0.0763666969202384
0.0694894657078567
0.0726149282779666
0.0648413405304688
0.0770728474790405
0.0508971079337504
0.0762851607715796
0.075142746398868
0.0733731999069464
0.0591479588149729
0.0621784789021247
0.0627787824236829
0.0785277558836223
0.0550844665418652
0.0719873731364118
0.0710788691359733
0.0745004569263456
0.0581580456083671
0.0757315151833868
0.0506933090973859
0.061321552065587
0.0583872239063795
0.0757705281982774
0.0645443656304612
0.0748957069336561
0.0528819988596612
0.0750152037165651
0.0572424078176555
0.0834141855873918
0.0729005641479305
0.0849682481971914
0.0713501158599808
0.0746838440702635
0.0628884952720311
0.101510665812826
0.0750805664779652
0.0706015866697878
0.0605970190098691
0.0657045065298827
0.0631960162941698
0.0663883089969785
0.0556473595537108
0.082838520751847
0.0935704166277857
0.0711153814773881
0.0593635812346003
0.0686999000371898
0.0390048396753133
0.0748446822978536
0.0783321458436511
0.0756467288862493
0.0605179545650562
0.0696743430462689
0.0531975848320433
0.10357014548588
0.0732857664357009
0.0738198285258765
0.0474647732325069
0.0723607568356414
0.0442769432658892
0.0734808409561653
0.0567089193463668
0.0736596727013234
0.053450381877728
0.0715484324846095
0.0695577390713889
0.0976435596246376
0.0707017723837773
0.0681837269598724
0.0378796101907938
0.0670421086760108
0.0836494537901914
0.0741583010780046
0.0500178894427733
0.0841814467312506
0.0561544876585741
0.0706152851799798
0.0524523786074119
0.0654725392090364
0.0753011794770869
0.0741196760077911
0.0325212774248827
0.0924627171746897
0.0708166177665158
0.106837973863425
0.0672387730398498
0.087057728011745
0.0494318949260409
0.0707102772661244
0.0457756210409404
0.066462888470834
0.0537597388788302
0.0629006093968979
0.0641307274229198
0.0936624696269489
0.0527341333654084
0.0680819558867698
0.0720217930200027
0.0694109945438936
0.0520835683903878
0.1077709984138
0.0632553483355741
0.0682182616252397
0.0616729730420606
0.0832044211430643
0.0410342698146242
0.0910413973685229
0.0671795298085626
0.073649598588577
0.0508307076341911
0.0701925261733853
0.054787586417073
0.0903453169158311
0.0617913493381081
0.0754255260077053
0.0438759165978088
0.0645333687651866
0.0486334659848581
0.0955698180377082
0.0592499436370616
0.0808370319782819
0.0457083089437373
0.0574313524606752
0.069886277592064
0.0888586284916043
0.0569402129147564
0.0679859192927481
0.055640892687127
0.0712128735145573
0.050923585911704
0.0725852565280419
0.0478906943561595
0.0603917981206318
0.0641134051914459
0.0811658495182807
0.0470748101319484
0.0617062753976927
0.0480571390956571
0.0715811559874776
0.0959490363721418
0.090909285605982
0.0568843305364733
0.0750919291599046
0.0493693321289001
0.0810350738667272
0.0626681219985916
0.071871154120396
0.0590214885524621
0.0685439517064998
0.0588395539243106
0.0731056834542126
0.0549276468492532
0.0641600398303432
0.0489277407451351
0.0616798448879969
0.0561255484573517
0.0720480919736931
0.0546468434914364
0.0695965683576079
0.057209931162208
0.0631901055711593
0.050357412717995
0.0801856271932156
0.0683319217131223
0.0763254696736199
0.0512505904221441
0.0734449113485904
0.0569483300527006
0.0720572707460884
0.0554402619100145
0.0702854592881894
0.0381710241121527
0.068546788264492
0.0689165660790767
0.0855756365617898
0.0556902787984894
0.064785498891613
0.0713988875679269
0.0735528533201439
0.0624385641272947
0.0624244572583558
0.0651677935131086
0.0588079749856219
0.0495206353309813
0.0825183013764032
0.0703121032859291
0.0611212567955564
0.0629806230365358
0.0696856891997934
0.065051122409846
0.0572397212685278
0.0629313027941831
0.119745634059313
0.0630643184120495
0.0770290047607493
0.0910770409253592
0.0804924743010101
0.0738263365913288
0.0594514175840083
0.046567204058587
0.149258101492397
0.0999020444892868
0.0640201322178678
0.0665880740114998
0.0866370407196649
0.0655101070992656
0.0779974687793286
0.0447096360554255
0.0945418340502214
0.0595366987704867
0.115755997926953
0.0850477757691847
0.0778236805700416
0.0755424066915794
0.0814676965533765
0.0573474253431423
0.0746829997722035
0.0596008475764281
0.0667824364786258
0.074695003036225
0.0777813240235866
0.0807126056625365
0.0641262280638964
0.0740107240938619
0.0776195101953992
0.0855105559715153
0.0664580804091504
0.0675230379616696
0.0777536084788405
0.0748532400961075
0.0758370452625039
0.0665982243227352
0.0823790894574462
0.0577934407936519
0.0790412643287481
0.0925168126245076
0.0784011049321965
0.0775252354130968
0.0909767937466075
0.0766831206649512
0.0709367218413092
0.0694311262393612
0.0758281416859512
0.0677486155261016
0.077067207725164
0.0664969282130351
0.09437158211644
0.0753184558565042
0.0805937829443228
0.0633052442311699
0.0744349452720678
0.0689045754758411
0.0871935295491072
0.0762642675038949
0.085174384049901
0.0683609593435829
0.0745396472465882
0.0990228056185094
0.100401164278654
0.0604323667357057
0.121958037874575
0.0880785731627907
0.0960741184785477
0.0733171546729021
0.0821563615981979
0.0754052553829332
0.0963989506626207
0.085842840282016
0.0969202046700003
0.0873787473361772
0.105495171846051
0.0912716029036998
0.0923131687695026
0.0869146588791933
0.149306711940944
0.123397369018488
0.120210650871465
0.0935093420226512
0.0981519067789633
0.124547856356826
0.11016691745781
0.116913507303076
0.121976026546038
0.104992431069514
0.109535402201516
0.115471991584763
0.118556106137427
0.107375609608699
0.123786779564652
0.112060021069726
0.124079781551639
0.114424058324702
0.133522143758982
0.10584953199128
0.136297059253657
0.154212963626242
0.1463600620224
0.13238636858602
0.135176596982622
0.116399000442686
0.160035255371312
0.143269564775814
0.202652199213894
0.140492489076881
0.19508099813207
0.157361037043526
0.170198082519589
0.143550210625244
0.166537040516058
0.157237879622389
0.170325228778546
0.162398777803311
0.177351139714729
0.156913799202106
0.176879761141178
0.168720170557004
0.199954074528092
0.177113868392361
0.196891776095348
0.193403618684672
0.198079159791288
0.195504205298343
0.195787870760937
0.209771961830181
0.260692748374232
0.227847595731966
0.222035624483806
0.206497309819921
0.217868132337352
0.214745467693448
0.2205757223456
0.232202056554097
0.24118829497118
0.226449233311224
0.265465999109414
0.235002026968768
0.274726810746383
0.239893932926492
0.251212847656353
0.26133631860896
0.266443179935753
0.260743750844915
0.311200469905007
0.272277100087373
0.263612575541705
0.28583648282813
0.279690351233665
0.275128952805177
0.299655925637969
0.276433033828588
0.292201408615342
0.282974590125012
0.311258667433506
0.299700085489756
0.319835236337294
0.306010864957888
0.328953378505176
0.313635214809568
0.340619117978758
0.329008799681101
0.37204293286919
0.313840890524671
0.361009810374618
0.336009871913298
0.365553241582777
0.344019985299946
0.343446295084165
0.380870582893892
0.40968586430024
0.385346567849226
0.386769123386728
0.363792044012581
0.394834098068981
0.379991019315881
0.390449597369223
0.373087838285041
0.411579745754096
0.406285784980546
0.402200219726811
0.384903264646939
0.442674533131382
0.425808404411228
0.430588058176989
0.432628965486397
0.4503427165807
0.431528069570196
0.457087112673727
0.43301386337942
0.457865910051558
0.481645917606878
0.517712853006197
0.466382425583356
0.504481261772859
0.46023129230225
0.50674337718589
0.469466044376837
0.516599281815896
0.503232531076185
0.539915318463161
0.50281061997611
0.516618534757744
0.501893859284211
0.534471562041338
0.510699605540207
0.546709222840256
0.511503428219109
0.561082375282721
0.557459879207531
0.574786003399773
0.532258511283115
0.590817763807445
0.545185501729129
0.609399887136466
0.539059648553816
0.622598171733424
0.55777421239062
0.613754396725502
0.56851447607886
0.656374959484381
0.594930705160137
0.638040642901384
0.623989949122257
0.630018278602225
0.606713610586783
0.648496321826059
0.604527247392736
0.674592628500281
0.645963802586836
0.705559595796471
0.66194047809251
0.682859043397173
0.664426203473117
0.719845531793659
0.677766798832984
0.695677412976138
0.659078738130851
0.711693830807032
0.690916771843805
0.734989013982359
0.698106670717002
0.742069913570255
0.689845372434307
0.760816583157805
0.673380596513425
0.742545071356952
0.730651552095194
0.774659928246398
0.769906421455166
0.854258219766846
0.775526765068614
0.844542798068035
0.766977547899606
0.868148822102703
0.80658904675632
0.800603121796396
0.753716380137078
0.850241316880859
0.825940339818341
0.831138626110956
0.785565147806387
0.88077576721384
0.820310477418853
0.867306360135638
0.800040274536402
0.833619333142065
0.867638165924483
0.911781958374992
0.860752415240823
0.90261456110956
0.871090642133133
0.99261348113162
0.851917456552039
0.914325644774419
0.873572596597708
0.854412941201145
0.922738246530924
1.00127654070279
0.847820785889249
0.938410668378877
0.885430281749
1.01469097314004
0.938390171857836
1.08834225661046
0.847732552624219
1.00074411597239
0.913534038270972
1.02443849664929
0.991922586667933
1.04568900688638
0.973233464806542
0.99775449927406
0.998904286128001
1.12268044857535
0.939168369770535
1.03528638814474
0.992063361357426
1.0583626511985
1.01962424934491
1.07462056313983
1.06517763099729
1.1095601425254
1.00502438591473
1.15243798756044
1.00750016367832
1.19766791682778
1.03805972630329
1.09308393796091
1.02096225934082
1.15397486524541
1.05250200261108
1.18790896720893
1.10732137661962
1.21789193641617
1.08433893304522
1.22567888857683
1.06482015283856
1.21464203443251
1.09474807676995
1.19327203829486
1.07400734009346
1.25314901074765
1.10759332965469
1.30859528451757
1.06461242877977
1.23919099968832
1.12942947356436
1.20193199102503
1.23602595579698
1.20847083713762
1.11647692185889
1.27890195569593
1.14710047514655
1.26994340107916
1.26708331659236
1.33038954891867
1.21000712975468
1.38479954304005
1.24871663379532
1.28410097296196
1.26260889667582
1.58623877559163
1.26910273291482
1.42418896037228
1.3847122528219
1.29518005004448
1.27131661891844
1.36531349877352
1.30176602462293
1.3161379514245
1.28269430055383
1.38583372267724
1.27410244466257
1.33320052283766
1.30354719898882
1.3354049668536
1.23859376511825
1.40846128575932
1.40406956529313
1.60742439509745
1.30507830444006
1.3583491551035
1.2635713141576
1.34966659678295
1.32318873560661
1.67614959247352
1.27724191420146
1.53111577775852
1.26899668610582
1.4494203459464
1.27562458703562
1.59303198482413
1.59631573732288
1.56653499726306
1.46214072391153
1.37902717780282
1.31406293071311
1.62653255875439
1.41393330972738
1.57561601810622
1.26375688194464
1.59489277458709
1.52252286690091
1.67749306869122
1.47235417628409
1.93039628147069
1.5185551601727
1.65100685132821
1.36187870009904
1.70114228311648
1.35142201908211
1.72183731999967
1.41878655875271
1.56399175926151
1.461023971265
1.7285354331172
1.34451032928921
1.58084603669116
1.44811553538465
1.57190531054898
1.48911914360988
1.66324351391749
1.3201224276861
1.73833217167868
1.38789453207701
1.73059923622076
1.39224809549555
1.47975622409001
1.70909688725545
1.76781970976788
1.38745230706874
1.68967283582492
1.42044836603087
1.72982520630521
1.47870209816147
1.52663326456921
1.62754482997506
1.63828722488294
1.50681684362486
1.62214511011422
1.55847751180231
1.91981942732442
1.43965771015357
1.62483375490846
1.35412060125133
1.63791458443199
1.4565560001093
1.74076196703342
1.51057275590201
1.48158225378116
1.55637534075264
1.77341099859045
1.59810404556495
1.76175885721389
1.46228659465006
1.98786155756788
1.53145700936737
1.69504277922829
1.60752029388821
1.70518347857027
1.53354964615495
1.65910368355007
1.51342952741046
1.46061415506718
1.44189452715869
1.61260507104983
1.48986376094191
1.73918405106237
1.56345859773241
1.78886352071533
1.61000018593958
1.75909988782636
1.63598796259107
1.92390163746553
1.52300431474876
1.5013993511072
1.48340899820111
1.65344472925196
1.49350817964165
1.68367373744548
1.53360452089005
1.81720245736902
1.33574322021653
1.63995336980107
1.66339995494492
1.7768107283123
1.51148375705568
1.6043098654717
1.63151382465547
1.70206731591569
1.44614318214165
1.61379572876567
1.5391007941546
1.65290445746766
1.53966589869402
1.65718176485342
1.55770549564284
1.7342107292285
1.48233630490033
1.73601450666642
1.5491884622254
1.86701408746378
1.55482383607537
1.62115041740902
1.56315582724704
1.73450090408155
1.52739656356547
1.66914804854246
1.55936532108203
1.61018242608117
1.40282025062119
1.55833658594162
1.67899504085397
1.57749392865581
1.45538751080065
1.55104818461022
1.49452735300836
1.59540574251543
1.48889323186216
1.71463821970035
1.55428454199385
1.52579864842291
1.55955039847984
1.53646558626206
1.59828132018916
1.513811072355
1.58222690406701
1.55141483934799
1.51872463125393
1.64901157610111
1.47514970067233
1.5242534656776
1.57082799002763
1.68728173239172
1.47180302186209
1.55080178610231
1.45486636489971
1.71922438153529
1.53880325586223
1.50298861025759
1.54034163999906
1.47877353404833
1.45503005913598
1.49540003242273
1.62870235867819
1.84347895397743
1.75335196800696
1.60239768038197
1.40204434851502
1.58518779222114
1.52704447858057
1.57002459396272
1.54904843637542
1.57724031106193
1.46747209207504
1.48907116731676
1.50653485026872
1.69036266284133
1.3246856027461
1.46302977861946
1.60880544451428
1.59449539849242
1.38652360216976
1.44317448657999
1.39792266919656
1.42678967641883
1.51463448590514
1.43533379944394
1.43563171642097
1.46899092166383
1.41083442357787
1.36289091971258
1.38628426706962
1.54358177581959
1.46555225436982
1.44427194491425
1.45288949176673
1.5146647399512
1.38262966943822
1.51699151956977
1.41899639440566
1.46283794091525
1.34816692639636
1.42095554802515
1.41971465183203
1.46252002114664
1.27532515210931
1.41319707501535
1.43428491131673
1.41810961388461
1.35435330479609
1.34179294967239
1.40632414254093
1.40167601643225
1.38778512574891
1.36013313643209
1.28152033294746
1.40205976125085
1.33005853658962
1.30830027348312
1.32805763287678
1.33879448736845
1.30388140723727
1.2958714515837
1.3277566315191
1.30583927072056
1.28959791450358
1.31267935804846
1.32916967872579
1.45172181389144
1.3590813085378
1.31659348315679
1.27527054574913
1.29373160475178
1.2181658043366
1.34299996387529
1.31127867435061
1.26016780942051
1.27767394925706
1.28999959679484
1.20005863610599
1.23167443143408
1.22304927462603
1.257312642738
1.28637440539406
1.21950015881273
1.22556150205527
1.20220550410324
1.13638083639283
1.23299389098194
1.12835376461737
1.22658287496306
1.23642966957586
1.21834041197528
1.1848661122108
1.16496477217574
1.17759018697016
1.19802169146941
1.12674645036787
1.15915223996654
1.14182229320864
1.15241546898097
1.18300380566704
1.14243227590288
1.12156230362945
1.10468485681139
1.09636635595477
1.11939352320078
1.03540986790153
1.09629080494185
1.10525551454471
1.10290641120373
1.1050867087018
1.06500938281351
1.0178384600964
1.00706381458217
1.08969951136857
1.08608612514208
1.02682201497563
1.03604636779627
1.01215899091955
1.0426816955942
1.07282271702132
1.05064685873944
1.01503298108085
1.04067036844025
1.01993252036758
1.03705501865633
1.00053164395297
0.963623803515047
0.949174780532128
0.982971520629566
0.973741233702463
0.953733520614473
0.938293862130994
0.970699689403675
0.935170822410039
0.962583340366808
0.980597687463754
0.966117365344954
0.926171344179947
0.935318891606941
0.933599405175441
0.910430967899965
0.88992792328183
0.913589791376125
0.908492557973123
0.926809880422008
0.919636350658666
0.906605649160563
0.879690777785195
0.873864027770336
0.875314023003153
0.886373126322511
0.845333253399491
0.869773774845119
0.865823128239207
0.878499719475755
0.858209419327197
0.846367737976595
0.848279723076061
0.844281671165732
0.79746755356018
0.829816730357365
0.81729920325748
0.810989317022847
0.810675128750112
0.82722040225169
0.818283149412628
0.800905999482127
0.773947512419532
0.800567076185164
0.807053336181053
0.78752151026996
0.786356868380509
0.777244863268987
0.778141192631972
0.778552371035061
0.772885057157422
0.773827992294818
0.754433726422672
0.751183120839078
0.728035175674937
0.742707612832927
0.725210159801133
0.719146591823348
0.716599240172059
0.729933614347943
0.724741587075751
0.709189374006367
0.711022191624452
0.707428236443641
0.701168624665636
0.699543096430434
0.684706046327617
0.695375195328709
0.693005550941265
0.672622748442187
0.672915241491857
0.690436435776792
0.682258356438906
0.677947211781885
0.658627424522623
0.664916871536166
0.659898737234647
0.654126689456674
0.645599142110643
0.651422921039618
0.641086478013841
0.637496247819605
0.630062744863877
0.631685152611664
0.628570668504681
0.641290389824617
0.636046949300592
0.624732902451725
0.620069379825489
0.613697307248728
0.60550704911711
0.603027184143295
0.594618268368048
0.597248920130183
0.603465373934744
0.584850327757321
0.58468553345785
0.594915411309576
0.595014824899554
0.582301438527052
0.566196107328091
0.569018950173589
0.566252844543477
0.566352787792477
0.563121677266475
0.564389231312468
0.558910575289791
0.564094150122848
0.558116402053707
0.540047305009977
0.54820750457646
0.545869981643177
0.544742371229678
0.541280201690224
0.534609477525441
0.524647815261439
0.518920173346913
0.524814477868762
0.527326436720869
0.522757137235493
0.520412209264141
0.509984850409274
0.505341367470396
0.502280881132422
0.491648430431968
0.49665319578611
0.498535424102104
0.494983446730674
0.499554775305356
0.494163143141274
0.484176030456152
0.490435698386128
0.486557916692298
0.487498835541405
0.480039736933044
0.478163752352948
0.47711095526205
0.466073586653581
0.467478789620338
0.469595872344542
0.469629564732397
0.470750233168559
0.46778738421409
0.460507079467334
0.461711254504325
0.45861202551251
0.46068531852242
0.465051552852778
0.456474287211608
0.450081628992634
0.451784687282877
0.452995451749098
0.451938149994831
0.447070896448624
0.437830554096634
0.441024293062189
0.450743879625415
0.446799771403015
0.44315249816871
0.444891611016424
0.437436225198454
0.444551320847022
0.457227204356651
0.441029776667255
0.447478245634655
0.446329904363362
0.444559933120497
0.446521290918033
0.448668387982832
0.453114245479166
0.453181977569644
0.450294923118406
0.450939249823668
0.454026838303122
0.455273790613466
0.449237985160435
0.452350707682542
0.450085280040454
0.452875298697453
0.450165061147704
0.457809335975536
0.460865168619875
0.462244752898665
0.468344069807019
0.465090231370941
0.467415902774653
0.47555557353656
0.477128162039909
0.482142408072041
0.476056503370354
0.486254943027247
0.490917333888862
0.48062940524276
0.48219778133149
0.487126444834906
0.496521734454389
0.493706626884788
0.494848498478894
0.504041705656899
0.502470528632836
0.516410305004322
0.509672444795968
0.50605247756687
0.51709347791241
0.530629376743754
0.518662208751491
0.530844223033391
0.53084923965087
0.525007376897227
0.533829884667043
0.552104281235434
0.550901280745443
0.553197833512681
0.556279910712638
0.559712599437812
0.569836145969268
0.579916360469312
0.577733445358052
0.569754128945235
0.569283914915647
0.582726612894399
0.575980478708299
0.59058045531303
0.588873424200592
0.59828481829333
0.596361210477816
0.59848147584485
0.590236493631351
0.591213318903706
0.609263114887008
0.602604580044039
0.602871247792217
0.597378254198292
0.590200494673083
0.605835593336518
0.593953627550349
0.592020485368969
0.603566608227984
0.610114965691469
0.596136374621366
0.601560829707232
0.59857938645472
0.601381748675528
0.598258200549961
0.593719963088974
0.587384967924025
0.601057806227891
0.590428980958413
0.595643748642731
0.588105085108785
0.602559400029665
0.58502925400684
0.574681381482188
0.589343045311719
0.594099504763032
0.58437124283591
0.592136181724667
0.584186216912423
0.593876317044624
0.599898742220419
0.599980071661214
0.588018830764435
0.590654834176994
0.587490470501995
0.585747557595499
0.582957781941564
0.59639295870611
0.587658626376052
0.592602133870446
0.586057420264293
0.581533647994759
0.591207576025533
0.597595742424396
0.586542078229352
0.591933619093927
0.592920068133705
0.580865984719218
0.576899287291394
0.587420811798416
0.574901266519488
0.582970338905267
0.575499425664355
0.576509780792393
0.572416006475582
0.578453607995362
0.575067844950779
0.575516835298872
0.566921768539372
0.575457568043119
0.55769866032569
0.552282087692117
0.549739504607046
0.554043955688207
0.542011934895872
0.543196611979312
0.539793263189181
0.528496161500518
0.52948097445648
0.529791966532183
0.516913276486086
0.519513654869894
0.512614299346985
0.515130662636696
0.504294821011344
0.505864779331906
0.50309815510158
0.501006974148899
0.489633882279568
0.488225766108833
0.48077115617764
0.479006615353199
0.469773808617225
0.477262120055877
0.474577533485236
0.468657891178013
0.454900905437176
0.458558264697236
0.453698600012731
0.456327447787886
0.443228143793911
0.443515416381495
0.4376637830917
0.44022832226168
0.43652627405613
0.437775362617392
0.427828389673
0.425841317715799
0.424494661115577
0.422482565277527
0.422085838468816
0.420126701043881
0.406682306918178
0.410154002043139
0.407556780670492
0.407039719433537
0.4018142909261
0.403993380703238
0.402664546336872
0.402551810907611
0.395070430876457
0.395463030654684
0.385653591028447
0.387674925483594
0.375458884052016
0.383871760924723
0.376594804839724
0.381129015974637
0.378033921468008
0.378657231226625
0.369467683644057
0.376133858081876
0.368899323857713
0.36773658552976
0.370490694885024
0.370863725668316
0.364280498165812
0.367141443296045
0.36047977433896
0.358482750295177
0.36251305637758
0.366992443582413
0.351387436860843
0.353314401970576
0.351609624428839
0.351188687048697
0.34561683068133
0.348070388724583
0.345594440666358
0.346230779125957
0.340098735078871
0.343426688645032
0.335608141834478
0.336822162230229
0.333308181795686
0.334968502038606
0.337681437116793
0.335385667784304
0.327298551043891
0.335063385232795
0.330592309851944
0.334094833337916
0.326960350591559
0.327508579949122
0.326577436520522
0.326498670545263
0.32637449290194
0.324189309618238
0.317908851541669
0.323617511398734
0.319771154309615
0.31956931062656
0.315189380426718
0.318339171520042
0.319219011057126
0.317696851058679
0.308100054486835
0.315147005319207
0.304629829647922
0.311582631743134
0.311352186851181
0.31350731556654
0.310253227430955
0.303858655637956
0.299139359882403
0.305012004850009
0.30009624510274
0.304264793799139
0.296607965117041
0.298597317744703
0.297035178833782
0.300198613758267
0.300138594437422
0.303973660024008
0.2960371620852
0.295737561394157
0.28918141739039
0.295213087267233
0.295926564103191
0.299208789242946
0.292274682098518
0.291799650014108
0.285383996624638
0.294966425778612
0.284438428153487
0.292249945134763
0.286706242040498
0.290970929008465
0.282332406711375
0.288741537617085
0.284135951264774
0.287573738653174
0.281022225557455
0.289986492936336
0.282078277683012
0.282001028469812
0.280566562796915
0.277923341133869
0.276137329377422
0.28181009835123
0.279973557587123
0.288104625353117
0.278783959696243
0.282105503326421
0.271879241686559
0.281553102042985
0.279776574500367
0.28295262354601
0.280067882333053
0.275742633352892
0.269913461106307
0.278067887517254
0.271185173440516
0.272936881523871
0.270264587023274
0.274832105062319
0.267410409727405
0.272538947598239
0.267319112338142
0.266941596597943
0.264116868724111
0.264735313058336
0.267786738562459
0.270799193904704
0.267899664168167
0.272881031709452
0.262633028659765
0.266205279271739
0.256384282952686
0.268304229970541
0.264143655518037
0.265391994517836
0.260587710893274
0.260910065800649
0.25351555989813
0.259539293327674
0.254185590182689
0.26236594345326
0.256050012581815
0.258296394179064
0.255463317709978
0.256280145275463
0.248311900843552
0.258251782766625
0.254577109198977
0.252199466983522
0.253148607464714
0.250288904619967
0.24439907047264
0.246436292992513
0.244257722072665
0.250479273151743
0.245504023522128
0.245225203373793
0.243071473022095
0.243171639049197
0.238519671079978
0.241033677295021
0.239000231452719
0.242015550640373
0.238755728621716
0.238230205845455
0.240216174588016
0.244554112321829
0.237992818421924
0.242935228639823
0.236619063297296
0.235677259016719
0.229043120659951
0.233350642831676
0.231779190538467
0.234405923860048
0.225815858007717
0.231156189169904
0.229404335408622
0.22994249510877
0.226771073619397
0.228430422995012
0.220341813899361
0.227095120296478
0.217581396658784
0.221168085003141
0.21823288628378
0.224518774387284
0.21645202396236
0.219468855427022
0.213675900920579
0.220634502376904
0.214937107036906
0.21659383889249
0.213141578494718
0.214796888209695
0.21306826545918
0.210931383987862
0.210138528661766
0.212732053523443
0.208233641957787
0.204153946813165
0.200844487919104
0.204725238248739
0.202818750924744
0.200893829421867
0.20068285939342
0.204420622308031
0.197023982519071
0.206133915469948
0.195958684437868
0.201009332316059
0.200045867556549
0.199317027654949
0.192239754320114
0.197858220993262
0.191353754464752
0.194500739330804
0.189541902352621
0.192057412714693
0.192491181802854
0.193896621027593
0.193067998852402
0.193540420736325
0.186169792277082
0.185229772278863
0.185489705586536
0.1892955462798
0.182801752771734
0.187083670404549
0.182758422644345
0.179256995579236
0.186261088865431
0.184131633492837
0.179063514673746
0.184020753541605
0.1741657353111
0.184076143467237
0.175511143014188
0.178306634755472
0.181577973020854
0.179057473008186
0.172738897394206
0.176045033635298
0.169773653390034
0.177995750836941
0.173001673292189
0.176156376367253
0.172280985004345
0.171623941324158
0.167596650746441
0.175070353425003
0.166229180769457
0.170844394437077
0.168809657444001
0.172622427695966
0.166735749104181
0.171671696905184
0.16540985532667
0.170083561322789
0.164717953311547
0.16694208567235
0.159898277411209
0.166804642057798
0.159509641335759
0.166573344373927
0.164004833943925
0.164417465380528
0.160204739537104
0.166294336435766
0.160234085592845
0.160756250845983
0.160978329852464
0.165592429147222
0.157511438629241
0.162025423026925
0.156247469169934
0.163115041695415
0.157926228662235
0.157112217871339
0.157235967036196
0.160949463012069
0.162232881424653
0.160911355470749
0.150403300091079
0.155418339571642
0.15230988957048
0.153961952773426
0.152832987534399
0.158987357878022
0.156251959872662
0.156537650073278
0.149862399906047
0.158956629092859
0.156204540150064
0.152070845965046
0.15430748755361
0.150411475085192
0.152009555934862
0.15391273809009
0.151572543941729
0.154306395554013
0.148263659559149
0.150153050834491
0.148349200573323
0.151768570601582
0.154391003507597
0.153699573600566
0.148282146666964
0.149327877510589
0.14751335996275
0.151082367672832
0.145749081116078
0.151939599898542
0.146761437024568
0.147339003273767
0.143568902754629
0.151809108902558
0.147241778789734
0.150635126150023
0.144698734114839
0.146983834564308
0.144321240415435
0.14443365925812
0.138275138145007
0.144979190503783
0.138432519338638
0.144728366612635
0.143751724965517
0.141631746102026
0.139988440438518
0.144555769257071
0.141991354651271
0.143568630393592
0.138906418334226
0.138307156735369
0.143651359310855
0.145037659169778
0.143635061812827
0.140371740114242
0.138764606496147
0.143714587812215
0.135934508217333
0.137470273604237
0.134796313363893
0.140433445221494
0.137366930106989
0.135662245450797
0.137600835335194
0.140589136317678
0.13723755496331
0.137272094471934
0.131938583669125
0.137337450756979
0.130884758591004
0.137059551309082
0.134429617562138
0.136889339266367
0.133091582694237
0.133300310529838
0.135858700901263
0.135472899869439
0.134120144066493
0.13633437199437
0.131671837055703
0.133323684414557
0.130628694235157
0.135147248886777
0.12985800034222
0.134174966753918
0.131532336671621
0.130743105694121
0.128457560638856
0.130177236106241
0.123786103505998
0.129117378594266
0.126882746189429
0.129089628637683
0.125205832419093
0.126090778111815
0.124076149381764
0.12649553491767
0.124634413590392
0.125531769170878
0.121145898622757
0.125388509534251
0.121134733390086
0.121393943260188
0.11896834330261
0.124360375606555
0.123307730346631
0.12401793009431
0.117875159306266
0.122822880679279
0.119869961034762
0.121723933727576
0.117010738900808
0.12027459324435
0.116466877834938
0.121863185425277
0.114978348422546
0.122133354320705
0.115962850677371
0.116057245124015
0.113959262019009
0.116652392852816
0.111575968990837
0.117407346420421
0.111787767355298
0.115008806484765
0.112102435377501
0.114735329825418
0.109034997803042
0.11417367127294
0.112260082353392
0.114555253079514
0.109666854169167
0.111601450303505
0.110654897539424
0.111065723364477
0.106908411754328
0.109508513770097
0.103438394289656
0.112799787504825
0.106227031861527
0.109874210047842
0.106959501673746
0.110017291285642
0.106000332749529
0.107733270981388
0.106722328086501
0.108210334671868
0.105148856197749
0.106519149276877
0.103809880826458
0.105820863014804
0.102063198230659
0.106880252851429
0.101482080828849
0.104409575404086
0.101359335145855
0.103514763844747
0.099556345967875
0.10356022987587
0.0981514464135334
0.104135575223266
0.099699781613862
0.100297675862638
0.102481966661121
0.104391149092366
0.100085945055486
0.0998599955263879
0.0958829459822571
0.100282438022559
0.0971598715039028
0.0998337712989836
0.0989395596572386
0.101004698158646
0.0958191141553896
0.0972640807547492
0.0962367783793191
0.0950086485116489
0.0992151497701814
0.0978754807490455
0.0910228656500023
0.0977312060597776
0.0928834346214074
0.0989865019625964
0.0918622464885232
0.096415543000239
0.0959125895396655
0.0964238842625413
0.0950785809671334
0.0949866307389458
0.092768124565533
0.0967229709636032
0.0927195713547903
0.0959654590585556
0.0945866994035655
0.0959194530367685
0.0910824473209149
0.0942422235181745
0.0955691669679156
0.0965657831466952
0.0948311418122403
0.0920820069792194
0.0936497791394933
0.099502603179209
0.0948527430399544
0.097532803603439
0.0966359068770814
0.0965232815936227
0.0900510776438011
0.0928933702886109
0.0836954040535184
0.0858116392441726
0.0836994815587579
0.0911619310371257
0.0869978754545438
0.0882550030637232
0.084440949049629
0.0919937374536565
0.0826549572037776
0.0857856350359116
0.0881369055034447
0.0868484608438876
0.0856252637659053
0.0868305063469287
0.0839467579115643
0.0812177916385647
0.0866583221474558
0.0915540720586296
0.0937204541358808
0.0797795354339458
0.0933169507506173
0.089806724294126
0.0920984015816788
0.083212834533002
0.0964225665935761
0.0809786888185151
0.088434504473206
0.08196518731251
0.086246155182253
0.0763662025190891
0.0875542740367173
0.0819611444494386
0.0974233079166293
0.0822618543250027
0.0910450589690927
0.0806635720656579
0.0931632609283966
0.0741685569873957
0.0812978450515155
0.0767145332249344
0.0893053837639368
0.0819763993447729
0.102105274059901
0.0772777196239054
0.0830928587037664
0.0747258526853746
0.0863170650775835
0.0898263571676626
0.0880640631026791
0.0818683122806498
0.0763320190269152
0.100928356794583
0.0750256025196797
0.0989277909083211
0.0665330860708685
0.110709810459316
0.0605276330368785
0.104729494787773
0.0654612619672259
0.109523391217622
0.0635411459472681
0.109030642762662
0.0696479821267583
0.101580363041608
0.0765137140904408
0.0887811055435854
0.0826939869510733
0.0860220963457679
0.086327917128874
0.0867914876872497
0.0829489636369211
0.0861037710898928
0.082558055249998
0.0900896600166355
0.0794642562803972
0.0886667941660916
0.0777437357781849
0.0930508663756047
0.077996183898447
0.0867959751331087
0.0836069143144623
0.0871378506864104
0.083914454334198
0.0881849547321608
0.0803481956109494
0.0882037032677775
0.0816936788687448
0.0892892656999711
0.0822831162605821
0.0849210906549264
0.0802173918744603
0.0876504168796913
0.0796308795793337
0.0878672364726865
0.081697298208405
0.0881627331953255
0.0811764121006634
0.0883998471126432
0.0797402019869553
0.0869493179525004
0.0785504718927297
0.0871031955750363
0.0821644508407848
0.0882616778807975
0.0827089105665914
0.0882431327494227
0.0817528386882954
0.0884918005385413
0.0804297711842236
0.0875376354479681
0.0832116253350871
0.0904614247446499
0.0812763246577697
0.086335432615505
0.0815046280135654
0.0880101888083325
0.081819274733411
0.086456930632322
0.0836818906174183
0.0891575940812518
0.0796330621267602
0.0876591048752797
0.0792037664815038
0.0898331659134614
0.0841277095854817
0.0861959130070444
0.0839523246000865
0.0888694199625625
0.0813788098274034
0.0898176913890315
0.082972256792455
0.0890734483283333
0.0833468575694102
0.0873474261906827
0.0846397738357826
0.0884234407609944
0.0830699749505397
0.0880622981737649
0.0824890948378076
0.0870835616708545
0.0824726933456528
0.0886048117169542
0.0828937653962001
0.088757606260644
0.0848751400302614
0.089664883101485
0.0835285511817531
0.0853610764271315
0.0905444788327482
0.0902949267105551
0.0818176319452924
0.0885238435826604
0.0846116305432547
0.0893050633085486
0.0857280164655612
0.0912122451860619
0.0880462172318869
0.0902655804465984
0.0832718239725811
0.0897730073155674
0.0883138834136262
0.0898481895220772
0.0845554368924994
0.0898787170259039
0.0875208729287526
0.0897961084683903
0.0885307064849938
0.0906777110234172
0.0896260419208733
0.0904556763638894
0.0888182195806867
0.0923227748393165
0.0878840395665227
0.0920938447591097
0.0891833088105661
0.0917881537142721
0.087706993447331
0.0912156760993972
0.0887891185401385
0.092898570970868
0.0897191620623751
0.0911350488844476
0.089776621970481
0.0916310952259254
0.0910584149912741
0.0948939878098723
0.0904047146501642
0.0937953856092524
0.088448514909373
0.0935803322197532
0.0889464713291559
0.0936692189686215
0.0898689285616113
0.0924347339722161
0.0907563056808319
0.0927827275637955
0.0902384171279994
0.0955659546589312
0.0906011822270493
0.0926624116400751
0.0918659653424031
0.0971389410996664
0.0937425266830536
0.0951650862302996
0.090621868200773
0.0951219184584633
0.0926741506124509
0.0951019373996246
0.0909524517849256
0.0975636733971083
0.0938769005097416
0.0967423994702337
0.0942985430830693
0.0959380431953052
0.0895063246125442
0.0989066875379842
0.0941228500874196
0.0981278740228111
0.0950375729024227
0.096929483587355
0.0949199899961383
0.0996203971330876
0.0948152761672433
0.095622214614192
0.0955456158413377
0.0994086631010521
0.0950382228952969
0.101000554452148
0.094741445441288
0.100340433331385
0.0933774617539111
0.0964846606161293
0.0936590248472287
0.0981439176959779
0.0953911269491002
0.100089632674635
0.0959545619494867
0.0995889578980644
0.0954912010308433
0.099816508970151
0.0962989939256575
0.100283456747254
0.096148694178257
0.0989848727473894
0.095410042329995
0.100049330675835
0.0926886680119234
0.0970543126178659
0.0967804594271261
0.0992264433685303
0.0946164129651946
0.0985113401187169
0.0944569479261858
0.099449582040991
0.0955179585183053
0.0963176258148668
0.0931601460153406
0.0993646353709714
0.0954384229734116
0.0981884329660263
0.090874622859657
0.0950353058637981
0.0918740667997965
0.0950216110508568
0.0946465227386174
0.0958691860877103
0.0905307266794788
0.0943078886718094
0.0940780714745828
0.0929389811224838
0.0936492012515367
0.0966629798409116
0.0917164795377928
0.0967574564958679
0.0925507655954219
0.0959742319691378
0.0938869366264333
0.0967382521067116
0.0911417670313674
0.0941542622011951
0.0911752243773805
0.094714991705414
0.0920551153597704
0.0955389380888185
0.0901148998011417
0.092566206174052
0.0898875063569194
0.0942402473495197
0.091154979282448
0.0946849779968658
0.0901122197225089
0.0929716460343852
0.0900269219476644
0.0914113563166708
0.0885181913411219
0.0942452984714696
0.0898525447737038
0.0947929271905047
0.0905865880252565
0.0908444136819079
0.0898067500350152
0.092859353813597
0.0891025500201999
0.0941195633716201
0.0894479708907518
0.0904541136123917
0.0897651268502228
0.0930861995430199
0.0879665235327291
0.0901142815474798
0.0884338607943629
0.0945508857643079
0.0893167650021816
0.0909933134002402
0.091959843389807
0.0914688424030498
0.0883454619563168
0.0892950817978758
0.0860487532985721
0.0896651405339869
0.0881545115918587
0.0898384066550525
0.0888313648769319
0.0914903192715726
0.0883357322128014
0.090746120906126
0.0871911772558121
0.0906666025080436
0.089443556587977
0.09193498901664
0.0874764433919328
0.089800056919625
0.0857522309015683
0.0919784035900007
0.0875648621801829
0.0913163142373926
0.085541075629926
0.0894738803303729
0.0842408221846109
0.0875770013254451
0.0863164121807621
0.0882811198902678
0.0858820738895335
0.0887412787981113
0.0847633414072784
0.0858844343906472
0.0860784786211804
0.0909811826135625
0.0879600530121136
0.0899508638824355
0.0839688776022092
0.0889898768250332
0.0832053296388073
0.08837089026268
0.0848019106880573
0.0857525182765726
0.0825647914281111
0.0848885461230328
0.0837217485123683
0.0862780186049164
0.0813986412049915
0.0854921934363691
0.0814203375725531
0.08547309537736
0.0829898723555546
0.0881138479462093
0.0827815688288042
0.0833869722702923
0.0794900024315847
0.0848105607261934
0.0779472019174272
0.0827118406500964
0.0828728706141232
0.0840507967050929
0.0781133490069314
0.0811880192453952
0.0781209322327278
0.0841740428121345
0.0804067787867729
0.0816704151497642
0.0806912940203315
0.0779003822739149
0.0761327045880517
0.0794795061119819
0.0771348939267116
0.0775324608415811
0.0775985063205776
0.0803592304422808
0.0746292765196433
0.0773847086944474
0.075284086139623
0.077198889858539
0.0757876333096788
0.0757157690553525
0.0728428567735246
0.0760552072904096
0.0745740190169573
0.0760515089391866
0.075139004958465
0.0732062560824741
0.0705447609592103
0.0742038779455561
0.0737785476683725
0.0737563018080557
0.0728781900914799
0.0748492820175303
0.0822554360182865
0.0749884443648499
0.0727847590963944
0.0755946010249642
0.0726147143676394
0.0756593752490225
0.0722717565239337
0.0719951098085033
0.0677577242293557
0.0774032082314406
0.0739266757441186
0.0739665708294811
0.0715571691969789
0.0714872856462226
0.0691641386295087
0.0752362995480812
0.072240845449135
0.0729465206089178
0.0699664840127944
0.0723020337862063
0.0710272740455139
0.0723114924038402
0.0710592063782691
0.0705839750923822
0.0703151910026165
0.0733389400260084
0.0731006422893828
0.0753193361323061
0.0703810427589267
0.0732367260647164
0.0694716790205315
0.070975571624641
0.0660175831810483
0.0727441958349988
0.0671677596697389
0.0694945998285907
0.0681167223791849
0.0697755420809196
0.0645702759159569
0.070697882100598
0.0673810435954245
0.0698126716890824
0.0670395884913239
0.0718847060394496
0.0688764299281362
0.0707960566498246
0.0652599170342554
0.0712991639282992
0.0652124538031676
0.0718819574850947
0.0621860521178567
0.0689640970790244
0.0636796045841001
0.07726236022792
0.0713597123090504
0.0680582367144589
0.0674624469168467
0.0652520147792835
0.0647255185009948
0.0668810254298576
0.0643415979563777
0.0655939182777712
0.0623599725733008
0.0649991320814907
0.0658415044661006
0.0665317053390655
0.0648123381527882
0.0693154158909516
0.0678857068268757
0.0637727263902491
0.0643875631445192
0.067394001421874
0.0668149972395544
0.0648299231043102
0.0728631226768746
0.0714786662507896
0.0640820193555645
0.0676788737290104
0.0689359312576925
0.070360218565773
0.0744996305328075
0.0603100804089883
0.0694964578356519
0.0620342508264586
0.0680499990807669
0.0638372814577393
0.0640839553036591
0.0641804149252535
0.0691338469050236
0.0659691163117238
0.0639773121643062
0.0696071155684388
0.0644348650870126
0.0659805147760075
0.0641942661152748
0.0651522344779061
0.0642759113116601
0.06292472066467
0.0636371072062722
0.0658294538369894
0.0637333941483689
0.0668916359702586
0.0643789416952076
0.0639821723998904
0.0700003985344307
0.0632111143955541
0.0637202763271674
0.0640232555747326
0.0632000815304364
0.0655885964220322
0.0666158474237476
0.0658779053436617
0.0602449817847995
0.0679376641258056
0.0599302414174785
0.0669761124594543
0.0603141968246676
0.0660181818626985
0.0617295786802098
0.0657761658370181
0.0603114674568653
0.0636152472251154
0.0605278671484924
0.0635524202233597
0.0642909328805006
0.0661409229021782
0.0647493160988575
0.0655410801911552
0.0648705061754716
0.0640425806117886
0.0635854362927949
0.0705725958886621
0.0780235073025153
0.0731368932942154
0.0670056145213983
0.0692865328815909
0.0664798147917685
0.0668882368793644
0.0662050065461708
0.0665332963181305
0.0632611048048344
0.0677211976683558
0.064987349398423
0.0670740726210672
0.0620265953285459
0.0644959497012361
0.0635566355244518
0.0688640037333143
0.061163973024045
0.0646250929614611
0.0596177755436478
0.0697539148054477
0.0576270265896316
0.0701445751819665
0.0645772065186666
0.0771828654186629
0.0575684678376041
0.0752768919259436
0.0591042996316943
0.0840941827076136
0.0659929837558921
0.0688691393314821
0.0664619756937348
0.0657243738806564
0.0647538144536981
0.0664125926436731
0.0651636465922612
0.0680560801988373
0.0640619427493829
0.0667457936145664
0.0643333806040452
0.0645373067351883
0.0675157744223212
0.0754659516240342
0.0790073573922644
0.0817375737859232
0.0638633346116469
0.069132579091237
0.0746803103811421
0.0798273526274526
0.0734033703087851
0.0655064863274665
0.0717718780706107
0.0645995721106194
0.0700459863003536
0.0669993798624463
0.0680640639227579
0.0693774045038804
0.0712893077707595
0.0687838331633535
0.0670216677406328
0.0696795277192912
0.0660889873580878
0.0690624703202177
0.069177909484584
0.0756247772716697
0.0729258765375586
0.0735090963151193
0.0725615576235651
0.0680535610298182
0.0696181822186922
0.0702103773550517
0.0706298033910864
0.0774044701662854
0.0761607874531991
0.0774866180023802
0.0752039461147657
0.0808603022885854
0.0737461933168283
0.0703279903988707
0.0836613270211866
0.0723229219934288
0.0767886220733717
0.0742161151499014
0.0837362399415594
0.0955804354965479
0.0718607830514753
0.0854785588218522
0.0675916065406637
0.0842217750918235
0.0645647795141161
0.0874195909140345
0.071984500563071
0.0902482942765157
0.0655715658502088
0.0850090839738108
0.0684520557676972
0.0905306666491708
0.0782588062342151
0.0816638989205539
0.074975189539431
0.0831357915595836
0.0841410069664511
0.0833379378641033
0.0804673597740396
0.0809749621941275
0.101119284854228
0.0928775963825179
0.0838999641266797
0.0882851916213526
0.0797881942869128
0.100992431766073
0.075368161976001
0.087031398720154
0.0790423778444128
0.0855806407579832
0.0877618229912616
0.096728156684415
0.0930304593913279
0.0863783356430865
0.0836536725352845
0.0965294471101234
0.0895248039885074
0.100497457272764
0.0826932399689418
0.0955092200863115
0.0824115815427518
0.104613581930295
0.0976080331069774
0.11588538738465
0.0985048661171593
0.108246951913778
0.110736639472828
0.105151300793656
0.105448903115431
0.0981470080653964
0.107588480620531
0.114191385962916
0.105262926526893
0.0989560383996556
0.1098678940284
0.113502923335187
0.12014356414683
0.10212677934444
0.112984483832611
0.105382609701822
0.123172764469749
0.140540540030314
0.130966240521527
0.118440747477392
0.124260406850334
0.125499106375845
0.130666182630795
0.120128785255636
0.125334971360268
0.122669840227882
0.119271355173452
0.129707364438923
0.130475141314932
0.135073726321326
0.133266203024394
0.13419699605195
0.135617372601409
0.142968165918386
0.165916814617615
0.147190236141056
0.16039750110551
0.136441617775482
0.169655038191371
0.15226445785267
0.15212277415523
0.149615324965169
0.15144216067431
0.159707624693189
0.157149234372805
0.165583201264058
0.158398996882867
0.17082052918926
0.189840883022016
0.171792893378627
0.186076560063695
0.153581219364048
0.209557490505806
0.166135151972707
0.232293034302208
0.183533371661662
0.206125400072502
0.207516668684867
0.22605736851873
0.230648962512989
0.212475778312349
0.214713246359981
0.217814412911111
0.224490858724897
0.240471768301712
0.245385001034365
0.254646399219468
0.250089161275206
0.254944752872407
0.250876110514721
0.318845641815242
0.315817230245505
0.289937837711071
0.295370107468243
0.295528572495891
0.306674503055884
0.313624523285673
0.313364816681024
0.316250712999147
0.346440440520594
0.346832493670513
0.36827614817026
0.340333160154359
0.37965018666178
0.360671529182168
0.395641130311557
0.368237678438575
0.416856208451158
0.397113408928689
0.406483800090207
0.418856495999566
0.407740184258331
0.430235945697188
0.432623292808646
0.45551916761064
0.441996468948415
0.447407847955114
0.453124850738902
0.460901756403827
0.472131482477918
0.462023101999967
0.479526089003995
0.468804078151899
0.525278279137686
0.513515500722139
0.516576977510557
0.500148642493817
0.490702643824534
0.518422004545979
0.50168312567411
0.516212843051015
0.525865269626782
0.527988106570351
0.512238020815041
0.501404783121486
0.517432692149452
0.49894477851157
0.519494814924636
0.503160070232934
0.511705444502244
0.501973747376153
0.511042561793194
0.523154572776168
0.538007302018524
0.533760600109568
0.516861238310803
0.514634457726399
0.501190487093296
0.517667002692085
0.48865295599933
0.517973709502351
0.498726611416144
0.506272027853096
0.482298995935465
0.503115139221629
0.498650956503064
0.502252497069196
0.487180134198064
0.467034699426117
0.479726133589788
0.47478111708409
0.451524963877687
0.467581675150667
0.461980978652121
0.479871967849959
0.44909494061868
0.455765725783295
0.443396195815948
0.440434489952665
0.430051608776608
0.445424843604345
0.42721708080416
0.431604692644984
0.425717447427131
0.430665629294889
0.416270438037614
0.429254653866589
0.410729149235052
0.410624838174478
0.414656806972493
0.418244114992689
0.410882439345784
0.411762753293626
0.40932096729304
0.409196561648852
0.400850159192576
0.409248394746301
0.401673536126703
0.403189959560688
0.397476783110081
0.405768025704467
0.397793387232562
0.395369431192781
0.395837622289844
0.390263060689409
0.386191887813847
0.393764486698737
0.388944377323029
0.38774104572396
0.391427517036183
0.385791152700933
0.385818993786362
0.370211138168957
0.380350213586349
0.369510497595868
0.376029626387728
0.389490710443947
0.390456030338018
0.384147669618181
0.357359563197277
0.382169878233939
0.3498181007615
0.361521115417854
0.36504205897829
0.375456986542573
0.352077176895584
0.349409113615586
0.340721764114705
0.363329359688423
0.335506939000614
0.349868949819875
0.324814323114391
0.331683437981697
0.330914658275332
0.341071986060648
0.384647628407565
0.344078365731045
0.339655669799813
0.305000399268221
0.340899064016714
0.309048620552958
0.322268327658815
0.29752090693118
0.300261787688593
0.313069494544811
0.31024502650404
0.304104720959533
0.286042195905136
0.287980873955239
0.30801932567595
0.317526684986725
0.297586857639935
0.307112231821002
0.287409074472815
0.305782291611803
0.297142129001351
0.326559154062533
0.288046954693081
0.279427955784543
0.269936244040775
0.25989342117715
0.275699275505927
0.271375351983674
0.277523716007219
0.271117679306332
0.25442848004891
0.26117149842918
0.253597533578356
0.274833452793599
0.24136146807603
0.276934176188411
0.251768981550971
0.260828715125082
0.242829501546596
0.251239627345961
0.265166627591265
0.277805804873231
0.255418343044844
0.231763172798626
0.268566437532229
0.258210372668155
0.260291251070239
0.248908670362751
0.238725293691539
0.249859704486484
0.241627151384823
0.239619031534543
0.242950740798629
0.249731691456427
0.26180103186904
0.248720691175142
0.280722872881849
0.267144865766096
0.23853992769574
0.238277814810385
0.232778447033759
0.244906828540302
0.232701715686278
0.228196498120028
0.265103231301195
0.238716726677605
0.251421311055831
0.243415976282798
0.265925550181691
0.247168876509935
0.247797662926072
0.248489361994732
0.251252644774324
0.265682327300242
0.289924629011246
0.263991264414648
0.284200919881463
0.272445614934676
0.288791328903067
0.273158597950437
0.291403143895664
0.279894176203261
0.299467884880257
0.30420038408463
0.305204740733645
0.308023131719103
0.31975331649198
0.308260570469049
0.362614538431695
0.331318474786767
0.355327419065477
0.34807504060262
0.369322126589105
0.393185305953033
0.382266021427447
0.391009469520061
0.376999059644882
0.391139602904446
0.40312892481158
0.395150195479984
0.435625463020171
0.422788616152463
0.425697693228571
0.425376291371639
0.433971683638042
0.429062185478429
0.443467335570445
0.460359306359107
0.438615374317781
0.509143011639125
0.467744241436193
0.496471071529356
0.45962459508103
0.467440857663966
0.463002918312146
0.475483604067305
0.476934320404783
0.468125424475731
0.483502634989766
0.490181496959241
0.487712518734347
0.489512399162592
0.480948275042737
0.495171706419432
0.491114584526902
0.50079085905906
0.501694293854259
0.501227104093043
0.513170360252774
0.504468674236156
0.521713750332043
0.567820936063346
0.528862734818364
0.53314843001358
0.516904154525902
0.542349271802263
0.527976435686986
0.552285243966387
0.552156497702125
0.559754227598192
0.549391688933536
0.559053815091955
0.559276865603424
0.562525161563151
0.580380561749544
0.586225731708081
0.575376971676604
0.590975884637656
0.553368905978685
0.627609315382158
0.584398629179213
0.618152397637946
0.587282429173102
0.600956778941333
0.591819485834477
0.603156213186128
0.585675557762427
0.596759985117341
0.58804838520257
0.599593134309171
0.591770712940225
0.593632685748886
0.602093186489901
0.596682405821625
0.597932513662089
0.61041942215031
0.587495206314157
0.591786299950477
0.592940114689417
0.592994198886265
0.578363723995159
0.602105244599335
0.589253007015894
0.595098386489933
0.57507641695905
0.587926931611682
0.596510252886815
0.586370323947182
0.587579343911796
0.59409644752854
0.572536601476158
0.601648177431069
0.573542921657709
0.612293204603468
0.611266062289909
0.615674321192734
0.598272086305836
0.607986427505923
0.596912836201489
0.609790564617783
0.606939589823104
0.624317852152545
0.612531349659549
0.631261622522638
0.626840612367017
0.622253485835954
0.617809734316757
0.629805543923882
0.645078518126608
0.642837740617534
0.621362430607823
0.63340868657619
0.61138893385667
0.631956800805766
0.623651950706215
0.626456753756611
0.602610875971618
0.622533307260272
0.586424839793585
0.615339835912299
0.606131646712914
0.597230844675791
0.606103508428199
0.578463745167462
0.581332646415472
0.580094429275112
0.57992202587426
0.569650079785616
0.565359733151883
0.557165903450089
0.564104603690853
0.562801724475041
0.551193831827335
0.552285064923062
0.552009215633967
0.553878799326492
0.546306823310828
0.549279297783182
0.551658909725473
0.545575091819142
0.543241118333096
0.547991340833582
0.53937319108047
0.537767781562245
0.549636975229356
0.549463294918036
0.563726864148348
0.54767065438421
0.553774406076093
0.541966954739344
0.53800074879826
0.542127401836414
0.543971016428765
0.538984252902266
0.537217283973751
0.538286368174754
0.540070834321248
0.53507307372577
0.537764244562113
0.535678693087574
0.537219599357669
0.530900022751759
0.527024205872901
0.532938072681987
0.527568084431464
0.532139972277623
0.521335001673715
0.534221081781674
0.526501407095916
0.533562728175892
0.519870722888766
0.527656446598932
0.522281323689349
0.520519013146575
0.524934921196667
0.526649431421199
0.52003573818151
0.525009281098544
0.519245455643587
0.518017782355163
0.515543621550776
0.519071698422941
0.510267682470983
0.519568366737873
0.511945815111224
0.512633485027128
0.508968416704401
0.505549365610347
0.495096785590059
0.500490494161665
0.486074065888091
0.48863644124687
0.48092438866262
0.482766437131351
0.476073652834477
0.478448871223989
0.468010722959913
0.462528631075976
0.462305656499474
0.458381671173308
0.45467273320638
0.458482245092196
0.453908977476511
0.452679018685448
0.450767250190553
0.45223853452859
0.449861830251943
0.448000903642237
0.453267664154262
0.45254709374402
0.448310335626401
0.449206783382609
0.45025155035127
0.455545983966725
0.45174901096453
0.455650021924726
0.459356564421798
0.458581105928056
0.459175253392223
0.464292401346138
0.461357858681954
0.464186150247236
0.465785668878299
0.469316438187212
0.470687432379678
0.47424288565332
0.475472274154582
0.478042307378429
0.478690842370167
0.480342806110234
0.485856328077684
0.476211104721387
0.479607741555415
0.479284303531047
0.479422698233958
0.480375437668045
0.47638908446449
0.48069727731296
0.477607574519737
0.478340023578504
0.473487309530841
0.475759735243485
0.473836996505962
0.469464145131818
0.46645652624673
0.470693088608051
0.467061393908094
0.465593432071953
0.464692414821748
0.460207108350874
0.461795745234548
0.45707526481909
0.460478522883652
0.457409151333373
0.455944857463329
0.455426718297189
0.452070121827858
0.454012804289223
0.450945207185591
0.447643447491633
0.444581008689691
0.448795505530939
0.442169993996111
0.441332173550798
0.440318004818102
0.44214173697022
0.439825453704953
0.434002304590171
0.439108118489845
0.435043186075875
0.433527307746262
0.433253605005082
0.432812008877206
0.433995752494138
0.425863147126735
0.424709039775821
0.420083528099615
0.4198214374156
0.414927193864769
0.412908895036059
0.408750741668385
0.412002738394859
0.404271326631172
0.403133031582615
0.402969321555137
0.399045513877848
0.397319911863227
0.394737986183896
0.391549029684723
0.398206200442184
0.394044058886161
0.393635123178766
0.392613535857737
0.394197297540519
0.391529364650096
0.390262804220749
0.391714134131068
0.393231986115618
0.386800088862686
0.378847608091183
0.379060641327804
0.374006740333167
0.371516304759509
0.367455955740834
0.358075393392495
0.357302422313254
0.347913274902072
0.347026937556551
0.342350182399151
0.347273377218596
0.345091891683358
0.344541720927786
0.346051492441007
0.353048251646122
0.354402884207828
0.363796306614933
0.371686033777327
0.381438155363697
0.391609796402005
0.405966859421789
0.417045404752343
0.435535192726791
0.451636831567125
0.468959509028399
0.484879885696185
0.510313484259879
0.523389853153597
0.543084852682058
0.556149994214477
0.581781349334175
0.591085834540714
0.613951904334168
0.630433680377023
0.655004424917847
0.672928146117134
0.693994722472351
0.712271346247263
0.732217802145576
0.747451275763478
0.758054717330694
0.77581983023037
0.787195677038359
0.7991958117639
0.811024337915879
0.835987061357269
0.836811293123002
0.83393467348761
0.85755386454227
0.849123868258162
0.861097088627624
0.86008881261266
0.862995572546733
0.867971163145184
0.85911965520304
0.856611939516863
0.851981325637623
0.853458047309179
0.852663281029788
0.85580493030464
0.857488073918723
0.852691811315448
0.84208944351765
0.849233955984246
0.849909537622644
0.86214135669992
0.852777594945563
0.870075733109715
0.877173100592087
0.879921921473876
0.882157372745329
0.891464904567113
0.892780073208967
0.914509604845501
0.928029475802252
0.925089521101324
0.944921556090439
0.966134795718078
0.952666501356556
0.981151993607281
0.988611991807622
1.00210087394619
1.02643629247976
1.02724919853441
1.03685575563312
1.03280458639418
1.03774864527439
1.05320171626301
1.05849306951917
1.04029163764645
1.04182562682716
1.04797041166377
1.0469614417872
1.03717119178549
1.04041834646425
1.02600558009574
1.02973000660567
1.0372181506404
1.04425011220799
1.05236575417329
1.04464621275891
1.07266362813174
1.08966476713335
1.11243079428081
1.13668758976903
1.13717634103891
1.1522469405765
1.16151272768789
1.18474326578471
1.18573417643354
1.19373697127518
1.22160672327197
1.25762103968243
1.26722247982894
1.26610509359726
1.27962220763283
1.31526944846849
1.33399277982663
1.38427230877609
1.37432482946958
1.39520590324713
1.47880385229523
1.49867227190925
1.42181889338306
1.50040961488873
1.56222112667742
1.6007165576012
1.612154985927
1.56958845992866
1.65518213612896
1.62937916239784
1.71338860763543
1.69858547419686
1.69816818138358
1.73177163704012
1.74670429209694
1.74901905667677
1.87074206917596
1.71119600827114
1.70650628068151
1.72376197480728
1.68566338625896
1.68238698576124
1.65530906639921
1.66982315098187
1.69121374639418
1.6705382601722
1.71944180641197
1.67596492561706
1.67910618355119
1.67263292569251
1.69654178349733
1.66454898099597
1.82449846870081
1.7023840776621
1.7562613774003
1.72838880773048
1.82071742216174
1.78975803629805
1.79702510971104
1.94086822499748
1.95178900490706
1.86249572392495
1.91364613109084
1.82896176581752
1.91736198947565
1.85969175697533
2.02534477041371
1.91258843632053
1.96307179570977
2.06708757730151
1.87605569796105
2.08254385884144
2.05099544423821
2.05711639203087
2.0764886971896
2.04412340634286
2.10259090354015
1.94571025396649
2.22937725283959
2.03699952408523
2.09507666518808
2.0757592677806
2.0450807210587
1.97672353807574
2.13923327444625
2.21977029850566
1.9866140997394
1.97919103927173
2.18858944212068
2.21753980299738
2.06108173563676
1.96503037444134
2.07464550571375
1.99360893222375
2.06082989294707
1.85720853517693
1.87381194759015
1.84327530805895
1.7346817773411
1.63076099789416
1.63997691676026
1.57486034867583
1.54861256333827
1.48555140177203
1.49521710757018
1.43187720540998
1.37339881410809
1.33148345611387
1.31558237221936
1.29329626164706
1.30596030779334
1.28324333257881
1.25232007710366
1.26530814247012
1.24531417395041
1.2512382339454
1.22456428575729
1.19376613487525
1.1664882927896
1.16092288773821
1.1362821453649
1.09238427617314
1.08084072333307
1.04693646392602
1.02255032810255
1.00952570606248
0.961055295728831
0.933595002395799
0.901026938644499
0.875190506916128
0.838043853095699
0.797268163781982
0.768691400965206
0.731253850320889
0.708225245400825
0.667148014950768
0.645174149486871
0.613411621543656
0.594528124305538
0.558435975500557
0.546997785679082
0.515718989163387
0.494366929993899
0.483577563855099
0.470102631459576
0.459830732876282
0.447721699712812
0.432773870030363
0.429632068678416
0.413940422122145
0.411049878327396
0.39828246284556
0.398986193563024
0.392140432827952
0.388774944899519
0.389141801822313
0.391268423830273
0.386082570718843
0.39030619821807
0.390036678984418
0.387724768277641
0.389142349394847
0.38749831997665
0.391573381115687
0.395400005209165
0.397709656654668
0.401442472024211
0.40322006665293
0.406916413932402
0.404781820853282
0.406845427202127
0.40808174048968
0.40756468274896
0.402756946499048
0.410697348779711
0.399334706404132
0.401334220220378
0.404334238445134
0.406015745030671
0.399286129277005
0.399197134648201
0.398376701858224
0.398962599015231
0.404678030405609
0.405413400363131
0.403612606663244
0.408278457698411
0.415636227416195
0.410837352780153
0.410344770624677
0.414675234997737
0.415058872521597
0.418033502444235
0.422061823953854
0.422730380568311
0.426418550447863
0.433900723154961
0.434426922826862
0.427014432331202
0.436064183454213
0.432503516520602
0.432466999330958
0.438161489020393
0.43236996032488
0.429197078809544
0.433864977578896
0.444833805661529
0.437189201093135
0.444266946419338
0.443223640505271
0.44831936751986
0.454285573113912
0.461450932771267
0.460566099243507
0.475876860940256
0.479634466149069
0.4934075894328
0.497213415251678
0.512705586649909
0.521327692308442
0.538311099712876
0.539962652697799
0.548603867687929
0.557331477363015
0.56255504370732
0.552043810934475
0.557025394959731
0.550056135664373
0.544076456398045
0.53201152599445
0.518959634249771
0.512887546019959
0.520990212734435
0.508805043584382
0.498153110667059
0.508395686937724
0.494731769477014
0.493351429223134
0.496738548585653
0.500982210981909
0.503385230448758
0.508784845701526
0.505804512693864
0.496781612005691
0.510405176229555
0.513065263469651
0.495366368713805
0.491442273338127
0.488647322692999
0.48322480615773
0.486118186065063
0.478731972557653
0.484752386145267
0.476574776863722
0.475496530052432
0.47019721791134
0.469391096326631
0.458147207878527
0.452087878129817
0.454669143613961
0.471283951107959
0.459002986774132
0.477500422631586
0.463656144315104
0.465179057149489
0.448433458520215
0.455383974497324
0.458500440981877
0.457813619636272
0.464859258808386
0.467098949929023
0.45662344753837
0.461287862113301
0.438934417530683
0.445345425970979
0.444899352058283
0.460383317834742
0.453845832109598
0.438290927182833
0.450677110724648
0.439561796806461
0.421386108730029
0.428147243915251
0.418976030808626
0.439109903395196
0.432383586051681
0.436579991420966
0.424706995788724
0.42638213055066
0.423181212161074
0.434795178044967
0.425334215218078
0.425303292530514
0.423738345036822
0.423380652416505
0.4314161472584
0.439483116147825
0.424166109150203
0.441511752093527
0.43571142449039
0.445528331617989
0.438158452095806
0.43502302028273
0.431723307113482
0.450817948229239
0.460539875389361
0.454943878565781
0.447499706339481
0.461573742068005
0.439055055682239
0.452592895863255
0.453440522677499
0.464069376627088
0.463783847453469
0.463541762766718
0.487302289608051
0.497057746283984
0.476288306503964
0.473091421748111
0.490836888793349
0.492748458126258
0.494074950484374
0.516530693571625
0.516218523642544
0.536194108817695
0.539801092174271
0.558099225532604
0.565755939066149
0.559309520368706
0.568924543375404
0.605131489769594
0.60229051766887
0.656188608078777
0.648700766862335
0.661357238017593
0.653337399859118
0.651378882580014
0.679635185580812
0.702119090918231
0.722757236011245
0.722975664745035
0.733602477540781
0.73966062434062
0.718268277194285
0.723059746326753
0.708343807481881
0.725734878734178
0.70352387420192
0.706886173160946
0.721717818270919
0.720716692280924
0.704235443161849
0.713040914058279
0.685390095565776
0.714686396620954
0.675323167600787
0.70562424112519
0.733278260149982
0.732305557262597
0.686684924701132
0.717349493010272
0.736732558698408
0.714094839187159
0.680481441254739
0.702988415202843
0.715055427046292
0.721335725888664
0.6876239920375
0.669064585110964
0.656510227566866
0.710282690591648
0.711500593503981
0.682687559160922
0.674848988591421
0.688185740872659
0.656357656226704
0.653236664430971
0.672199444842667
0.690143347945439
0.669002767220907
0.677379271148999
0.650396735208638
0.689612270223736
0.667392203775595
0.699335242136478
0.656778960270181
0.62452403884599
0.66371905901086
0.686207328297
0.660491009526691
0.685798633137156
0.655709469714851
0.683446094996555
0.683837366585615
0.71546084674526
0.691814092691107
0.68795627471619
0.708013266074207
0.733849687762725
0.707622603840576
0.753618856713232
0.736852548214321
0.665808390617769
0.69234733939793
0.781180748398743
0.708099134655584
0.781166094633027
0.773022802688563
0.768357526786262
0.6767884130112
0.763726062144579
0.781198854347631
0.806064352503208
0.753523028592523
0.784346147813116
0.807434329210716
0.824968408022638
0.782746880631472
0.965229749151981
0.840497162880051
0.846500871256842
0.867947469008151
0.836900388467763
0.878463401068404
0.998380078170209
0.891296319806289
1.00396428292245
0.903516314667149
0.909837714047555
0.858005783715512
0.844791009811842
0.980411407743364
0.87632512813377
0.742703089734496
0.927658205709664
0.842603473160445
0.827539388862855
0.900942380939415
1.01832467462735
0.881555003050049
0.863211264258931
0.870524859407011
1.15781521546648
0.958158572983194
0.799411583524717
0.872997820575438
0.88778833233461
0.711432330605382
0.83297078261233
1.07783260236215
1.04513835336516
0.681183558459095
0.704191337799424
0.744629918305492
0.83038195305144
0.893291802162556
1.33804706175279
0.781004981689744
0.851658494686897
0.855131449698884
0.710519844084009
0.806515824355742
0.840586966870528
0.644620818137004
0.995528929347911
5
5
0.967718113718415
0.943612273592074
0.753869655014231
0.83124931888785
0.813341069033203
1.0794582985844
0.726479648207566
1.10981827611354
1.04979132997664
0.811390736974052
2.92276753865116
1.54759422070897
0.907186210503136
0.788151885774352
0.998111934379383
1.3384503586384
0.856394605586148
1.29402639267364
0.832325761481166
