3596
4000.36533379555
650.420452594757
1
2
2
0.0752681633801226
0.0853006006598934
0.0779019088332491
0.081727570740604
0.067672555479982
0.0902601664504078
0.0791851018097069
0.0832320928860391
0.0714573768281819
0.0830849043158892
0.0708933617162511
0.0903287852777413
0.0697349486310242
0.0749540670655947
0.071470592447062
0.0841910411221568
0.0803735454443661
0.0762624945017128
0.0707849103282468
0.0890073828821291
0.0839284344189973
0.0784451241604939
0.0701988227780895
0.0889860997253238
0.0776548367185072
0.0831125207985339
0.0740137595202435
0.0779529796529507
0.0727303191126856
0.0796281312245507
0.0682581275569637
0.0858157059088169
0.0744870985375056
0.083181379904382
0.0770308051948067
0.0878987411043674
0.08778530111312
0.0898238560243624
0.0760967718803816
0.0875235198488096
0.0751363908836689
0.0849194459075394
0.0737031888240543
0.0884255881310103
0.0728446039715017
0.0850892939064732
0.0760957026922213
0.0815130280950995
0.0720679882667327
0.0800149425161985
0.0675162662825037
0.0805309971625531
0.0816444817907667
0.0870242042820592
0.0805999278618212
0.0888073574804604
0.070986412524212
0.0830035263655487
0.0645437427791879
0.0860896732851901
0.0805867441022383
0.0859186635438082
0.0874333505016378
0.0847588448083566
0.0717654185611425
0.0830534156889709
0.0878494188338657
0.0833070220689298
0.0753965675390897
0.0785340695124233
0.0740988670546607
0.0933969246832878
0.100099346212667
0.0826461336117406
0.075414806215194
0.0827261853371879
0.0756635915877165
0.0841702260538345
0.0679668116034262
0.0857335991126429
0.0849512085921503
0.0862494958805618
0.0738760542057184
0.0745787765626728
0.0838676242194049
0.0824483266906786
0.0734351100767004
0.0858900305080924
0.0866645731001603
0.0851497968381593
0.0714056360106089
0.0910668113848656
0.0696036616323165
0.0753820925506373
0.0761780681811496
0.0859390086217152
0.0754031177443879
0.0906281010993849
0.0809064621874287
0.0825523847633524
0.073172323956971
0.105530185622012
0.0741786085050539
0.0954098071818228
0.0808679775363388
0.0892775230257399
0.0674987868785301
0.0993813924106095
0.0847102844121059
0.0808602326500805
0.0679774927654286
0.0732276332420491
0.0803094871388406
0.0753220932569173
0.072108814670017
0.0884145142758242
0.0910727737365582
0.0856830527874847
0.0759867742359006
0.0752251126668425
0.0601943279657642
0.0961638995766428
0.0899085333637503
0.0910753656675313
0.075448699134574
0.0771474199214563
0.0683662453230883
0.124019215894035
0.0870201132388844
0.0874045434542046
0.0657741505031572
0.085249331179173
0.0555072734065455
0.0893007782040589
0.066755704077302
0.0830663419979179
0.0615876103269743
0.0794253495325493
0.0830391913888537
0.127058555893893
0.0820509918912539
0.0832504261699746
0.0627323516603106
0.0824770276281069
0.0951325123878011
0.099940128701247
0.0737729704886546
0.09308073333298
0.0692919524582094
0.0765785313330489
0.0651107402534864
0.0873826968461304
0.0875679761322293
0.0821188491743257
0.0611233889680797
0.110130189352483
0.0951016639189109
0.115218541888817
0.0825531587990357
0.0963152928512697
0.0595206858488615
0.0855596362776029
0.0603998333529127
0.0826153158567399
0.071326194636025
0.079777003195715
0.0819720087615402
0.101878824475591
0.0666553153654355
0.0835382559960809
0.0961571741828659
0.0859935415547294
0.0737145880552626
0.122498732175569
0.0734032540112334
0.0799689512659237
0.0828753815915538
0.0884643027388893
0.0629861604682196
0.102401749864487
0.0778873504763599
0.0872301581125302
0.0597360954874372
0.0874101010354038
0.0684902983100863
0.0997281994065056
0.0740507313469825
0.0893272153775789
0.0669262848617444
0.0821897326149121
0.0724834066302772
0.118344017603938
0.0698089182496459
0.0933447289794107
0.0566776797218144
0.0845102946563981
0.0875291053421835
0.106062449723689
0.0746673115184946
0.0821969799205129
0.0761683735910899
0.0852443535694093
0.0671716091789602
0.0811006592562687
0.0619530670046216
0.0943320048007172
0.0737014899049928
0.104870740970855
0.0613246998107867
0.0873901138056057
0.0693869373946486
0.0807246657108935
0.104140669898637
0.100711150389352
0.0776128803889355
0.0853167598802859
0.0734101426881402
0.0998657069739368
0.0821249488882937
0.0871251467356947
0.0770446476008575
0.0878531117355344
0.0781758051423447
0.0849434898962412
0.0741976368422889
0.08610714011315
0.0720469989515362
0.0810636757091294
0.0747230035939478
0.0912022706359132
0.0784819409818483
0.0836823492255244
0.0770389761179527
0.0819958270544805
0.0670374990865707
0.0973294486270814
0.0869172137675205
0.10133012803924
0.0664160584615494
0.0833708664103156
0.0736695798209545
0.0968267794148799
0.0714038638058866
0.0936429367685278
0.0581164933428362
0.0890594310196463
0.078319898620997
0.095593985479706
0.0754897391574311
0.0895274518800374
0.0975189723501938
0.0991456765200527
0.0754227044387611
0.079374197746765
0.0859201758694007
0.0849716790026446
0.0738411184874468
0.102788290192796
0.0795103995541521
0.0814974340391518
0.082254034247174
0.0946129633268744
0.0821775225549572
0.068364734623763
0.0795811129340356
0.139314345269925
0.0895637879600608
0.0956435220843889
0.1126445247186
0.107550581293515
0.0906362018997423
0.078447082465667
0.0807213878693887
0.159592556168044
0.116545144929811
0.0829826293427849
0.0891029016174443
0.0999760553195343
0.090466893700716
0.104140262344269
0.0731268219046178
0.104708299671324
0.0863155955523179
0.15021513767747
0.0961703426050715
0.106965862309742
0.098389534699361
0.102391613433817
0.0878518828918585
0.0986561636402864
0.0865840479143067
0.0952916565622101
0.109474989444976
0.0968862035597107
0.106121974424667
0.0921617239622393
0.0917388625239963
0.114690924217934
0.105569893063026
0.0938485818814484
0.101359187874019
0.0997115617412666
0.0952449909475376
0.0938338429409001
0.0890040444331351
0.109148699539433
0.0898648517415813
0.112650209201212
0.12658485014203
0.111489835131113
0.106553621842688
0.116597983135521
0.10706986362658
0.0997398963119619
0.0976747379214471
0.104592371930935
0.0944410938386479
0.0987990400702952
0.102075843859638
0.132809057360731
0.101773436638821
0.113093061029993
0.101835030703293
0.110589380563753
0.107290122992917
0.123553957183108
0.10891014210609
0.112847784428979
0.108838243727335
0.108995527950905
0.142813643850649
0.133965871338394
0.108467251672718
0.170076294954168
0.12670073690747
0.13440475840892
0.108057622379721
0.130038083300623
0.105600048976394
0.139692245717472
0.127117189994662
0.137301939957785
0.128460677809661
0.157265256294397
0.132046792220439
0.143196705010057
0.139610272706927
0.201028687488437
0.16196754257875
0.171446656430468
0.138704000926258
0.146671802070777
0.17355724769921
0.167937056327542
0.178600645701858
0.175390170468815
0.163801957157814
0.165598557565444
0.174904218917943
0.175300606820717
0.16735811775638
0.191930683122613
0.170298561667945
0.184597247710632
0.177045548329176
0.207162362861948
0.178826882751611
0.210992494038363
0.231807924850563
0.215483085192787
0.207809141787061
0.214303466082616
0.199938776304618
0.240847014387186
0.223489125776871
0.28167639792432
0.221393139218464
0.298317188456018
0.241007436324164
0.264753919346591
0.230916594026031
0.249704652259769
0.247538095207609
0.262768507137963
0.258745712128826
0.276818893697979
0.255685186569878
0.284670132363041
0.266615558726596
0.291975627889407
0.272798162886359
0.295183615723022
0.285865366829792
0.312044368970035
0.290941255589794
0.310322838664056
0.328390620197265
0.385231473329454
0.33173548944223
0.32416166264582
0.321464628936181
0.334206778886495
0.335213931713334
0.339614974946147
0.334664695899767
0.344718376137224
0.349272543533972
0.375706000085456
0.360160154835694
0.402301814655963
0.364255101800288
0.373213591854279
0.397213674131755
0.404634029565841
0.397167961402852
0.422113445917743
0.397033498881849
0.397717295656995
0.423343382245668
0.437402059032503
0.418442887576376
0.438019487103545
0.390264981657712
0.42803940588991
0.439091977310747
0.464059923964107
0.43587493167326
0.468065234973738
0.450902642727214
0.464016908885778
0.461370367289219
0.46344552586086
0.46053148955212
0.509350743591274
0.487904215973353
0.502119772201283
0.484090710527068
0.513053433535375
0.472413583561414
0.51220769079219
0.537914827189613
0.529663349931879
0.532553137916312
0.552956492250984
0.488023897640388
0.554982905455531
0.549163046304687
0.560314956488585
0.518801521753619
0.538235586712444
0.565261924379925
0.588810921521408
0.548951067054539
0.619702949088206
0.569275445207326
0.622315777474759
0.585272476329869
0.616055933794664
0.60509640749697
0.640058871058803
0.610081967623506
0.627698760405252
0.626997835885639
0.705641684460256
0.621208365375389
0.677085425903077
0.603238238822107
0.675955855717838
0.654829010291076
0.719213650701191
0.6811143002966
0.699362176264564
0.66935694713569
0.691836660836745
0.640064598183734
0.729293885977648
0.655582220093231
0.706486092811978
0.700221233738831
0.772659189744938
0.703746088425742
0.772584233223131
0.707757801804181
0.747136379258688
0.710810442977769
0.808407162033103
0.752236294072051
0.7868263812626
0.782582500269285
0.805493317692386
0.709555160212136
0.872068381551282
0.728703992482508
0.795094394099293
0.748428343828784
0.820214313717464
0.745938751189691
0.79700832584009
0.830893921403671
0.897864155969514
0.819194843352265
0.882205559235753
0.789962779360261
0.935011437620404
0.77704262017082
0.849590959394442
0.867831074064122
0.950312606763116
0.809853177791781
0.841999683873732
0.903767305596914
0.961851621021185
0.817245194648524
0.960168603394005
0.851445177942702
1.0349352429085
0.880130909765819
0.927120410805681
0.930341565535683
0.921296996761602
0.836189053449443
0.954857374265282
0.857492352844208
0.982770490771134
0.888085202695041
1.10464989827998
0.950435670409925
1.00134221600505
0.896699445497835
1.05561606271644
0.962473807833454
1.08081427521558
0.933083002134072
1.09577063660308
0.912129348198885
1.05289950890845
0.950703640229104
1.07774346412307
0.960406147674934
1.09433588589499
1.00074601961301
1.15684467535584
0.953454446260126
1.147832865181
1.02562252612154
1.15019142687483
1.06036554176345
1.27438096695891
0.983655751637847
1.10400486299784
0.998315407815745
1.33440545121653
1.03819631514845
1.12811458048094
1.06296984389865
1.20046308498722
1.03767327284465
1.17947055021895
1.07658917792586
1.23749716278577
1.12965438580983
1.14546721499152
1.12467035046032
1.27792331064707
1.19537969470144
1.25004217422658
1.0098723189058
1.20186246590529
1.02480239607781
1.26832695089933
1.20025983413871
1.4210395213618
1.14484939159868
1.34600641828259
1.10346245401908
1.33163114874765
1.2161721791561
1.24164535777893
1.34571465445022
1.44248440733662
1.23114496333584
1.32000485776652
1.15896535544323
1.40215438998257
1.18052121596858
1.6244652976697
1.2027101018612
1.47390165091731
1.19354772420793
1.35032428295131
1.13650553264011
1.32111390205057
1.19409913598878
1.50219649593873
1.21706197224452
1.22287629946947
1.19527254580219
1.44088238716629
1.34612483479913
1.47901118189222
1.17181636668756
1.3804056921616
1.26840284485879
1.71979971245736
1.26093157510056
1.41467191347634
1.30701004830748
1.38610139235219
1.2718434511795
1.61929974796788
1.14175720252582
1.54224069582635
1.35647380184534
1.73299411642884
1.31640277857586
1.68233569287409
1.24036473092462
1.4626386953782
1.28190586171547
1.65618362560781
1.31830192871411
1.71952675913008
1.2480500765651
2.17760325723253
1.31166347804522
1.57211022668814
1.34900606576705
1.43431353390896
1.39710241056033
1.61298699856599
1.43049394253681
1.50321902628369
1.49672681117031
1.80131602546355
1.49738152342143
1.51473075827353
1.52171297003427
1.60917177368235
1.36120156799853
1.62972949499951
1.32710336357834
1.59661405530931
1.38881252741591
1.70993625272449
1.24685492639986
1.78344247145319
1.60852636035094
1.8464398044203
1.4275647183366
2.3545410940096
1.4621663204875
1.57115614588818
1.38470363447085
1.96248758661717
1.51012058418614
1.73705723946699
1.45540524385144
1.60397023013779
1.58242082421342
1.71239642698679
1.50328351400336
1.90914604974658
1.35644662309191
1.55563673531783
1.67762648862628
1.50492707394397
1.69803371466529
1.8440629593375
1.72214445247415
1.96172634145646
1.56640285910845
1.68787910035603
1.47772781814594
1.89904753432427
1.4503730113331
1.59623817519382
1.60022694983053
2.20724656251981
1.45807999848144
1.9931096618641
1.60444405750015
1.77402525562602
1.39694773688786
1.58395795336625
1.3815421815929
1.7144579630897
1.46041845944223
1.85614259510506
1.61362157070718
1.70035114844962
2.20325319098286
1.98291559352549
1.3860045552677
1.66800476785568
1.77130670792481
1.79322943456541
1.50532521030288
1.66007294356894
1.82597338295275
1.68778476883244
1.60808823285353
1.66872392423585
1.79934545104226
2.2351621241408
1.37644695730031
1.67489262133163
1.7852249694564
1.83728325836633
1.52033785149425
1.96029615288112
1.75593254804432
1.82870058103504
1.63275930683356
1.7707931700361
1.56501205316538
2.01476470678881
1.60259786505965
1.54989618843153
1.62598973684697
2.14819602541284
1.55115361959173
1.6207862570397
1.67912720895619
1.86993611481596
1.60152410963253
2.05792628259191
1.70780406693599
1.91327131479153
1.70571435270417
1.91342229961216
1.76504385467946
1.85733907854662
1.75172341234909
2.51120802381285
1.73029114556367
1.67371969370367
1.64034790158184
1.75409242965418
1.60755011311426
1.92889751834076
1.62189833411602
1.75938403099516
1.71981800712214
1.8420843834059
1.6285778551933
1.93786026118044
1.27318745756963
1.65031076494515
1.57713643596222
1.82949736471268
1.56885303815395
1.73960765461669
1.63996062886898
1.68999917950144
1.71269078593571
1.64784835012826
1.59225218943328
1.89084088887767
1.67548255815192
1.72291303560084
1.85136609073025
1.79859028518487
1.61608505152664
1.6883862275912
1.69899194667003
1.60644082498013
1.53251098477883
1.89842523987181
1.70531858282247
1.79603832374459
1.56907884542519
1.66831335686816
1.71468626782111
1.70298000645843
1.62399307548716
2.49461226054064
1.6321268657976
1.53627298506929
1.55537134223061
1.73600359126987
1.52731515576222
1.75142250650989
1.71791891033389
1.75692376787563
1.96312472889465
1.8869829178351
1.69866271585658
2.21826435635769
1.6411271087472
1.57042024649233
1.62988916178529
1.80919426160849
1.71942200951
1.72446794025033
1.80267711335136
1.60368650788894
1.81475661714822
1.69831128266181
1.5968648817935
1.65826286309926
1.74382208635449
2.34867275043912
1.59093020995526
2.32533795849994
1.52925361920821
1.6100303210138
1.70477430108308
1.68568021277681
1.66415551963865
1.99028186354368
1.71580324186768
1.653126914388
1.46143227939249
1.5557221376101
1.66737066990128
1.72713565318469
1.67786850364203
1.80638268301982
1.59628099226264
1.94728300768153
1.60716920360088
1.68293091125382
1.67207879439043
1.69153549027114
1.55184447163467
1.85257090288512
1.66575814668341
1.68451409733584
1.48727881068697
1.76663034205663
1.55032986019591
1.623395952684
1.54643866320362
1.7198178477976
1.55733377864016
1.71028290362806
1.50566178325656
1.69014122475937
1.81804802670446
1.89284769132386
1.71468655305622
1.81202177884266
1.77323351593218
1.99575284194523
1.54933035983828
1.72929620643442
1.53360516106116
1.58261154236657
1.39348791531961
1.61422471556981
1.55453189378372
1.56799451395665
1.60475167053747
1.72627790190134
1.54923023212304
1.58708532091537
1.48859338791353
1.67420241624512
1.51878077693399
1.6808627112663
1.48647961213492
1.45430336891423
1.63699983667863
1.56851620507101
1.55433883318429
1.56218939252217
1.59878701793706
1.59752046901344
1.38305013677188
1.5038419934935
1.44912227823714
1.62843243422386
1.60416798732109
1.60366623420551
1.47510728390927
1.46051604230499
1.48274526470383
1.61912042112358
1.51798278406813
1.48921644320925
1.40610791431187
1.50261297513872
1.54341785640348
1.39420625745692
1.3658848246564
1.40823237239339
1.41887162195415
1.44966198889826
1.44076660792455
1.50782057573687
1.4053875876777
1.42586712306705
1.3574084205209
1.43921996769565
1.42087974427917
1.42745812517662
1.37925787687471
1.42429157688343
1.44036375500064
1.44389660125451
1.30476362047738
1.36344230803095
1.26709180982608
1.37141140122006
1.29899519748969
1.28924472508437
1.27734359881492
1.35170837773022
1.2525442084027
1.28662181405691
1.25601380094482
1.33346956336261
1.24351417403542
1.28335664112648
1.30549416398077
1.23560179232279
1.25409842958432
1.27221033848767
1.22282054480004
1.28401329175751
1.25523996932936
1.19911322526731
1.21498719765212
1.2442855416764
1.22139686246336
1.23699731720669
1.17122295647618
1.15362361732466
1.21646944415486
1.1761005392097
1.17241681990179
1.16975494624998
1.15899160123066
1.21323653486888
1.13749640606296
1.14977157523081
1.20745774830785
1.16224368679188
1.11060454603133
1.09469774739997
1.08969968118945
1.12248274014745
1.0739066241023
1.06312332178127
1.10686891089748
1.09325511358742
1.07848442902734
1.08128272204649
1.05537537490442
1.0670811489738
1.04294935236097
1.07864707323753
1.08757130082509
1.06214281311655
1.03908377056656
1.05153428924871
1.04330663513745
1.04553502601741
0.987694161866675
1.01865739498595
0.994933356972871
0.998487559437148
0.962352030216801
0.981878609766611
0.958701319504603
0.959887134024089
0.983792698444705
0.985247493108766
0.961147055191958
0.963771975830366
0.932251533291272
0.943655417295113
0.934345134916943
0.941818317862342
0.917266413628791
0.937938583619309
0.920240685939503
0.917972254318019
0.894972300690718
0.927786177764039
0.898832640051114
0.88252239774569
0.91675815440416
0.90806820261444
0.881795600241002
0.886053770875894
0.875213156889246
0.877450177866551
0.839874029334164
0.845929163823105
0.870422251292691
0.877903556259725
0.839375561496765
0.847846478763147
0.828124449130791
0.835596173706684
0.828281213414904
0.834805750917296
0.822120119792922
0.809235998861712
0.790227346920511
0.814603005281738
0.797388020137776
0.794989387441127
0.788444152776846
0.797451060634379
0.792423514451964
0.779387628820767
0.773949788234071
0.759563613362571
0.759582763034886
0.763352429703845
0.755733721218495
0.760598048128373
0.732628133703119
0.753951515528664
0.74161285141839
0.72928716330066
0.735380716301042
0.736229261554574
0.726325663901967
0.706983074928239
0.701481146274853
0.716474321672616
0.715124655514254
0.713909131728434
0.701253142219076
0.713329459798186
0.691523669878167
0.68007267188137
0.679957607103388
0.680083605513931
0.68321595797095
0.659564176134737
0.64952736408473
0.665242080693796
0.6564216517638
0.667992218186681
0.661224470424666
0.653819331478539
0.661515989476425
0.652596184274839
0.646366052042096
0.646875282662365
0.630957894958142
0.636315562922666
0.619979009175854
0.627606342035365
0.624068736479184
0.605266337465334
0.611429154931569
0.612984347611486
0.613726327417319
0.611562436384509
0.597756809818479
0.603400856775782
0.602779064615553
0.596591981479525
0.603066976325097
0.589548340632853
0.583809226807873
0.592939455889055
0.5782175582863
0.57451009926944
0.574994767388549
0.565876580582227
0.575741798666635
0.575624512207736
0.568009609606082
0.570932554081575
0.560632008699188
0.560359027155551
0.545605546664407
0.549943118605895
0.55650028259338
0.544344768508166
0.550758143937782
0.55076198690083
0.540145956354733
0.547444436842992
0.532526001489644
0.531142319300699
0.552063846574948
0.547192234955259
0.538135027906873
0.539846591188892
0.53496833005644
0.535345771512561
0.540574843190624
0.538021547788756
0.536674500333266
0.533326582397968
0.538325151495933
0.544730244654759
0.542364399778992
0.541370437713106
0.545117048017546
0.54700749057013
0.535664288498514
0.531288537886302
0.533861767240558
0.534952559449476
0.544996964400845
0.541344058793884
0.540980769703538
0.549188524727763
0.544518080234332
0.536870451186584
0.545963529716014
0.5454525460968
0.539252452008754
0.539873827446004
0.542830265069477
0.541104279557735
0.549086313864011
0.548545805946335
0.562126253941026
0.563338182132176
0.552381759054786
0.556784299813816
0.561742193109881
0.570984037803829
0.569573386750654
0.572893462663402
0.573076542117
0.56427124581852
0.580594303369194
0.583709878843893
0.587964034631202
0.582376180799386
0.585705785520036
0.595816818837211
0.595920414224449
0.598948335385848
0.609983789329075
0.596263877126926
0.602485964432203
0.606667366446749
0.608660408805853
0.613603912559403
0.605680694556231
0.608202158565591
0.610920292861463
0.612750934319441
0.618300376921129
0.612716380173692
0.62169828249123
0.619403094681691
0.629131555319277
0.620650269186218
0.609133497005856
0.614914544121391
0.621134048960128
0.622626921023721
0.62596818571666
0.623164567131984
0.614941027644507
0.613286313724425
0.604838846275223
0.601015133717416
0.60662625187584
0.594206552783374
0.605225775986614
0.600074105674229
0.608779782223006
0.603546254787004
0.594443331220644
0.587469001760889
0.595458879981352
0.598628162096338
0.586192104827465
0.594776274027339
0.611312955025647
0.581561236593083
0.591413529630119
0.594992294343532
0.595477677484484
0.599091432622872
0.597699192051881
0.593820672008269
0.600472893713123
0.58969938344533
0.590359309207712
0.588475579852937
0.602607818504746
0.587721079574067
0.588877865471429
0.598483495276547
0.590827650451211
0.581677986080872
0.585420088411241
0.568935501516341
0.572631601747162
0.578272761964809
0.589728343876444
0.589407094969422
0.579161469634381
0.582219575160289
0.588091684153438
0.582661992343434
0.587211807948033
0.566965188039137
0.568451135133875
0.566782597420014
0.580113407328537
0.572970255077272
0.5606597767086
0.566380961310237
0.567290699600411
0.55389002165438
0.55891874907591
0.543655719752834
0.552045092545222
0.542041459603221
0.536855511613204
0.540807481686268
0.545473036116715
0.5335416805119
0.535011428608579
0.523956592168227
0.520851422403261
0.516711431291192
0.519678832737641
0.515467600430879
0.5226110103439
0.510244300340146
0.500723815645532
0.499495519975293
0.495949540744249
0.484338094226256
0.498144147720079
0.487814676281093
0.484569850571501
0.478525211470507
0.48449220187626
0.47459245529289
0.474184292862595
0.465685379186596
0.464686502061056
0.469102215513945
0.466608838553663
0.460754919344066
0.460549315858302
0.454756878998219
0.454945897123152
0.446324984293818
0.445545063280794
0.443585199169683
0.441120259604053
0.436714367505184
0.438832008521399
0.439119636390721
0.433145261276149
0.427369905790697
0.427129923953139
0.421243766232148
0.427599599929508
0.42274883242568
0.419397105112899
0.414390762515315
0.421773159724464
0.411732063957927
0.406311555857943
0.400446256948562
0.405015265142156
0.404802016907075
0.405398615362468
0.402639935258541
0.401134139483718
0.397053193132373
0.403129336414178
0.391490318380187
0.391814800719348
0.391338476902629
0.38423413079048
0.379637555058108
0.389045065828696
0.382179705981518
0.389838605778355
0.381128330940621
0.379328561710705
0.379006815133767
0.379632114870108
0.374440587672797
0.377901236046251
0.372801600204387
0.379238662405233
0.368261483713403
0.367669060173133
0.363034528285633
0.371256322041156
0.364013357323817
0.361456692432177
0.360892326417926
0.358942650676481
0.357353469476607
0.359935376908021
0.350958869172248
0.357044792414884
0.350836096453971
0.359976942068179
0.345874373717534
0.350117103904807
0.345129841579834
0.350227629667466
0.347660205545849
0.347035889080053
0.342524248562796
0.344509058244207
0.341699842692165
0.348626856096026
0.337525318708687
0.33938510991959
0.335176113458182
0.334615721860345
0.327090271200338
0.337908723873573
0.329954446187787
0.333629378320726
0.3251293263578
0.33023210485735
0.325777845719785
0.324208071111046
0.322935290987902
0.328252995183287
0.323883701451432
0.329891498122023
0.322888801261218
0.325846355997213
0.323617710030261
0.32657002385177
0.311403081081329
0.31759869405377
0.318143013044465
0.322107143657045
0.320723238516757
0.318664078151281
0.318431042509985
0.316830826677353
0.311469341009519
0.311448914177577
0.311409036688043
0.320047637855903
0.304586008506487
0.312253836545933
0.311170468854418
0.31047081859164
0.303805061580864
0.306484186748572
0.298411433940146
0.308890601473593
0.298150719386415
0.305652990355128
0.303566246996409
0.30538954730936
0.3020193890485
0.304199642091611
0.300560854164049
0.307518562204118
0.303639193614375
0.298916152289826
0.296675937219238
0.302815228006307
0.29797191578093
0.299307687030386
0.297064685914929
0.300456472832501
0.295819823889795
0.295942012929751
0.293771442303923
0.297911040223361
0.291269565914834
0.293625118632935
0.282009573744786
0.291710994789406
0.293750694396715
0.294389850959707
0.2877715268291
0.2876791889699
0.286378944803342
0.287003166213253
0.280244051811961
0.282299229739165
0.284960610500316
0.288648868102074
0.280083959829146
0.28557303959328
0.279310983352683
0.284827155588903
0.280342888192365
0.280487064430071
0.27419349795123
0.279024462961182
0.26787788672485
0.281920156891758
0.274681233670662
0.274438247541712
0.277056725192122
0.2741786149256
0.264036171275804
0.279241959277708
0.272188822764081
0.267523625969243
0.268059539336644
0.273213677238861
0.264623228740228
0.265266728049238
0.261139104655095
0.264860971090486
0.259283190900825
0.263782119822567
0.264490225826236
0.264847463702375
0.259622395756939
0.263946581818972
0.255040119976362
0.260004748824333
0.251402505313126
0.258630796495215
0.252934005266651
0.257520543534696
0.254442978507613
0.25164787138389
0.253284787664013
0.260383605000731
0.248282720225097
0.255760219292853
0.244639970625623
0.2486975445882
0.250335710569844
0.246687124415726
0.242879706832674
0.247763653221424
0.240834785071947
0.24369955665031
0.238994671319548
0.244712915954159
0.234138204141505
0.242298925544931
0.234797606879125
0.237626016915081
0.231187108258245
0.23520588078295
0.22961615814572
0.236708413975307
0.230856633514067
0.232067773812261
0.227461354901886
0.23269811109428
0.227993834305783
0.228835670108604
0.22204088503758
0.228806758251021
0.2208706853627
0.223511263097113
0.221218241356391
0.224700065216319
0.215247169089149
0.221203132383006
0.218351987437214
0.21461826669762
0.214542835023031
0.217332440959512
0.212662072904639
0.213646442802404
0.210986398256109
0.216044282648483
0.211799223944032
0.21187744742653
0.203515118329223
0.212759876034379
0.204084263820812
0.213941935276043
0.201568064461383
0.206648217425186
0.204220794086816
0.206070114982149
0.203398926136905
0.209421603610512
0.196857191696526
0.198574936203013
0.198960496711808
0.199745438979607
0.197045709129546
0.199914276287219
0.19454087077647
0.197548556830285
0.199420238606372
0.197678117926396
0.19004724855634
0.197972970688574
0.192718839453844
0.195628244493798
0.190521865138441
0.193491099386053
0.191733144842035
0.194154707956431
0.187668972128941
0.186842414661406
0.186045557112746
0.196155588876286
0.188002799108893
0.186925688233888
0.185603519314094
0.189634595315055
0.18509355638338
0.190961055950982
0.183900561605105
0.183933206484329
0.184611845072928
0.184073741665903
0.179635345665631
0.189068669351773
0.182903686056611
0.181734608431918
0.181120853165827
0.180201912134716
0.178962725793804
0.185288543418503
0.177464398382028
0.179975809609034
0.182104261662426
0.1798364841707
0.178606411329404
0.178205796574137
0.173631754592852
0.175466750232685
0.174429991343192
0.175757795456998
0.172051141727241
0.180580208208467
0.17127633208347
0.17826935941285
0.173878691616002
0.172279277850088
0.170020820448975
0.178733144341712
0.170401807327245
0.177291069243838
0.170742346190344
0.171520375876048
0.16729951487759
0.172782465747697
0.168411942395833
0.175484778819825
0.16981096167801
0.173350006238273
0.169068856122499
0.172124687500837
0.166944365357092
0.172702149057908
0.170631429637317
0.171379119278679
0.168651831765187
0.172110620723432
0.165604844838962
0.169241630234141
0.164956335917279
0.163481836975403
0.164859964684179
0.171915250567248
0.166608878622492
0.168920362411319
0.166332926145122
0.170248001212144
0.162958230589954
0.169718412094821
0.159491271610933
0.162644161921146
0.160300696065717
0.162249982708444
0.160417484177923
0.167750405193334
0.164230950657269
0.163220629301648
0.16389401124012
0.16443546400771
0.160079966535832
0.166125205118571
0.157936616262688
0.163440828985157
0.160302676603173
0.15924622855336
0.156092944578174
0.160201335846621
0.155906454899355
0.163697726500951
0.151058089095926
0.158785508974568
0.157432461085957
0.157968776474932
0.156690719344506
0.160230976967953
0.157735010030809
0.15775348108098
0.1552028448202
0.159799491641247
0.153026391550134
0.153975627020981
0.153230894247918
0.15818056645881
0.152314150062907
0.156656946792428
0.150910516105412
0.156691108924147
0.152928736336592
0.156703349771467
0.15592160272723
0.157026393781127
0.151465203347597
0.157888905536616
0.152291518016224
0.156064908895292
0.15014018838224
0.152187880398329
0.149784686001789
0.154447696050156
0.149671251553933
0.155293414634755
0.149777278185849
0.150745794519646
0.148407734691674
0.152010804765975
0.148226685387183
0.150009120242422
0.146971715497037
0.150251365747989
0.144282711800458
0.149447340600098
0.146858680590695
0.150132042449172
0.143422236988914
0.145960325354147
0.143822998961502
0.147430702948375
0.144115319105057
0.144433785129165
0.142658284184494
0.145209027748417
0.141184251877578
0.145276858007139
0.14399728257571
0.141391602173702
0.141650668215013
0.142269081676388
0.139331443369667
0.145197388087213
0.13979247568521
0.144127705891222
0.142198811600001
0.142077246065004
0.14061532124957
0.141081497814366
0.13866765356279
0.143530730736092
0.133372932719623
0.141880114803366
0.136484993879784
0.135593773028446
0.134918958874681
0.136489278220462
0.132422270923034
0.139233247213251
0.135807311386978
0.135513241769781
0.133758193970003
0.13655786377207
0.130965967626457
0.139369370448417
0.131278698515483
0.134984476445175
0.136700061416564
0.135392568928023
0.13268359346022
0.13547290364458
0.12905424017711
0.132691080857494
0.129415472542701
0.132817858670774
0.132877073317746
0.135038355635868
0.131321419301941
0.132063085654216
0.130628413702548
0.133361055331887
0.124544222568455
0.134770400104452
0.131298299146451
0.129275485262786
0.128416231486691
0.132679694355427
0.127498159721413
0.129551197281253
0.126634302368949
0.129762394997805
0.123844819095405
0.129075398780048
0.122093374311284
0.127692694322273
0.124312329818358
0.127081635965325
0.124763237038685
0.124744290148352
0.126332899940334
0.128993660233113
0.122067806843954
0.124970882184625
0.123875664294781
0.122968391263414
0.125388944428454
0.123181862634452
0.120765153902425
0.127125513979086
0.126045431554018
0.124186923768329
0.122305640853291
0.123780435620595
0.124152991515181
0.125069038513
0.122360819081509
0.123133177660736
0.122389210029088
0.125989897264672
0.121847727077648
0.123825019043099
0.121527014738051
0.125345203112234
0.121675798384233
0.121844702668124
0.120162914911991
0.121538421972048
0.118480380015091
0.126970567298987
0.124561856999314
0.122524403688504
0.12022976224892
0.127826927427716
0.121155307506452
0.124533447946431
0.120759568872248
0.120515327501631
0.122411422721254
0.126547327487573
0.122863532875761
0.125095243924586
0.125758269710632
0.121365584495479
0.121688944797647
0.12023505395692
0.109906032032121
0.114523744554933
0.115416020983208
0.125873963648487
0.120269201586957
0.118697953743921
0.116799752317293
0.120576290426219
0.113262507836597
0.117592491382551
0.123168639472675
0.12296234999614
0.110500446694647
0.123384796272281
0.11982346781492
0.110520741714526
0.110098988760956
0.119337667839538
0.127730381561771
0.112347560479737
0.123610301991176
0.122805947003233
0.125293816366204
0.113257944820388
0.123894235586695
0.114184765909856
0.123541848296991
0.115466010785928
0.124394172401011
0.113805525818063
0.122659810863521
0.113224325212239
0.121069021430438
0.115236922333064
0.125318406032457
0.114383658672301
0.12422719427055
0.112343254476348
0.119869617001678
0.108324704190013
0.123948465539304
0.118175869171772
0.135786584796623
0.11362487536284
0.117505899454286
0.110872133486872
0.121630617207459
0.122293525633987
0.124972465712664
0.117603835841889
0.113076183063798
0.129824678818637
0.115527315457511
0.126158305946914
0.105123224019369
0.142926006013382
0.103730446003216
0.139238730935497
0.108210968600266
0.143795549988185
0.100094934593466
0.145899893191453
0.110061908580506
0.137601090166469
0.115121481514688
0.128446370350155
0.116548201614201
0.124382692098909
0.122270379163072
0.12476163596504
0.118824840429567
0.12372656720451
0.121548675352513
0.128519268261521
0.118555056590626
0.129847546851813
0.119415231025598
0.131358620916334
0.119866288836322
0.126750149869401
0.118865765122607
0.127965006086534
0.12209657226994
0.123693737375965
0.120106998359221
0.128214454631049
0.120237330606469
0.126438510458222
0.121691509539809
0.129680868507019
0.120954879631715
0.127972770920953
0.119304562479531
0.131373799159265
0.12188766352891
0.129095522137018
0.123606212777254
0.130666553648223
0.121586768158695
0.130909577684868
0.122300657690699
0.129870257377067
0.123143127447953
0.131429249814676
0.125734930063813
0.13075217119847
0.120383758490405
0.133488023746769
0.124813832664748
0.131929705296627
0.126322876940779
0.131152297097018
0.123073673768445
0.132230443835515
0.128371762960809
0.133755543547465
0.127172568087821
0.132785136291579
0.127320624514433
0.13510724103641
0.127367452223982
0.130692695003134
0.124888782657984
0.135366274026915
0.132343093696716
0.134217308800086
0.128730639766317
0.133946866364169
0.128377654807985
0.134907583558685
0.127814657739178
0.135005258674547
0.129059800997945
0.133747582602899
0.132375448040612
0.136487247983183
0.130198516446515
0.134070151729432
0.13075534854088
0.136670689231111
0.130279527663517
0.137256106397123
0.131033271680115
0.137018322979333
0.135045756410641
0.135519501180266
0.129492297102342
0.137385048500582
0.136020336481463
0.14121260290821
0.134006800162558
0.139291711374076
0.13444823572501
0.14197844195125
0.135806694061941
0.143941092809322
0.136310566416689
0.139981116595407
0.133792458222451
0.138297088864468
0.135191450360927
0.138471979452754
0.137155990344434
0.140900156871917
0.142590651121818
0.142660145924815
0.138389344806978
0.146224583413487
0.139731536743779
0.144417992752158
0.141474485325742
0.144935593219383
0.140765592578029
0.144835409651299
0.142300667216198
0.144934636228507
0.139270729776861
0.145949902025599
0.141160506049498
0.144951253390284
0.141665128635921
0.148392310151164
0.141458850179077
0.148889494889707
0.14353466761937
0.149666733728867
0.143138988170902
0.148405686844057
0.143297109937775
0.150441012729975
0.144308809841247
0.149761921015457
0.144339373471168
0.151876972791331
0.147599731173304
0.150381846224645
0.145012178205362
0.149900618205313
0.148067496986854
0.148323718960644
0.143653293485419
0.152459306718224
0.146206318110461
0.150156986300573
0.145552169717539
0.153781883203232
0.147805534830353
0.152471853285853
0.149797786326123
0.154634999161349
0.150668750186599
0.154009437651151
0.148342109164731
0.157067191974666
0.150202592304056
0.155338657935603
0.150699654766335
0.155587753703918
0.155138816794877
0.154547451871855
0.153268502781218
0.15765661731986
0.15172325720226
0.155665740835216
0.149608974689235
0.156354595489077
0.152690962386147
0.158360733650374
0.157257077026899
0.159562783686166
0.152691257686887
0.157764107340066
0.154255273296705
0.15665403726099
0.155170005594973
0.158302961004286
0.156735813251111
0.158845883712762
0.154539315172487
0.158059711450048
0.154580156927261
0.15792958603521
0.153820324742383
0.159194453138623
0.153870189404393
0.161426707221302
0.154031902089853
0.158348475083291
0.15659112979708
0.156632631264702
0.155245147481654
0.160288889410765
0.155554301084931
0.1573056236177
0.155201727981581
0.158240119436147
0.152975819634327
0.158721815658119
0.156308731601608
0.158085005281216
0.152800593789689
0.156593035404255
0.154680342159298
0.155169251051439
0.152839179058067
0.155614108013263
0.15207526672634
0.154527535163363
0.154579927369598
0.155485623028262
0.155419070798177
0.156452251572506
0.152757329708959
0.156480415041367
0.151593441243009
0.157494614603314
0.149993548394637
0.157508160221338
0.15116180041676
0.156535275342598
0.152857545347836
0.153294813355917
0.15351632541088
0.157117940236202
0.152056063358558
0.155066032483928
0.155144979171696
0.15533682459747
0.151045548547892
0.156236783415049
0.151629424129372
0.154515243583932
0.15026500425293
0.15381215451705
0.152050606848826
0.157484043551343
0.151563170770719
0.155929089569684
0.15137671129935
0.15152660128198
0.150864796715943
0.156481408664274
0.149317573434708
0.151547364059971
0.149647955059978
0.153036516746719
0.149417554397875
0.152389163945399
0.148530576917666
0.151842980951307
0.146950981780715
0.151924474822908
0.149763751686664
0.14968460303907
0.149572784661309
0.150876044295008
0.147268990424796
0.150420748501943
0.149487474648832
0.152121859653638
0.144237890383785
0.150357965166138
0.144826982122905
0.148038715438885
0.146481052685667
0.147372265365695
0.143929264351643
0.148290034255853
0.145996712170021
0.15200211646528
0.144800930795511
0.150493157922928
0.14587194935589
0.149560475811154
0.146362997699961
0.148310597744321
0.14374665183493
0.146402528347579
0.14246427279709
0.14568539475523
0.145906515708813
0.143674774809422
0.14037461181679
0.141879078511347
0.141773158768686
0.143882729222169
0.142678555570983
0.144975630129708
0.143214621079134
0.147030258506431
0.139390260615852
0.146315351837471
0.141056974267384
0.141766077538524
0.139983870703098
0.142562610248483
0.137995382727813
0.141829409075399
0.139967034094693
0.141792225559934
0.134841348708827
0.139459177622725
0.137809896481894
0.140377670557871
0.13426201725234
0.138477751554847
0.137472506546249
0.137984344989762
0.13284410125034
0.140272471168236
0.131807537550457
0.136913539052822
0.131866537701289
0.13476016226385
0.132489439701024
0.136269802582678
0.130469734785749
0.135151200566032
0.135347624193421
0.134890323798367
0.131603303839144
0.132500354430351
0.127854292205447
0.127171519329092
0.127017136351441
0.130240461473093
0.12987144243697
0.128601771663367
0.125408371858922
0.12980536226191
0.12691156186328
0.129187006832346
0.126925240394054
0.125329009723807
0.124577728214305
0.126895220308834
0.124767301963103
0.126083820431423
0.125659937567316
0.126338976789861
0.121046483617544
0.121507638223618
0.123742764840879
0.122239516568473
0.121244457087202
0.125289690188433
0.13063280903808
0.125440933738432
0.123175744854586
0.124442548589277
0.123417468506487
0.124063533095625
0.118242142573839
0.121974820804279
0.118600912632192
0.123305752856527
0.120492450001048
0.122002325236245
0.117820995053667
0.120183765107468
0.116373210861678
0.121496520260845
0.117908503900668
0.119154919513704
0.117196447093565
0.11880266891028
0.115809989772047
0.119522939426188
0.11805382035452
0.117440242587544
0.116660368080768
0.117382801666633
0.118328911194019
0.122052739680127
0.114334927154506
0.12108467205203
0.115367180805607
0.116059614172293
0.112121173759603
0.117092754660598
0.111745718691988
0.116727412036602
0.112623501152579
0.114962758023277
0.110565945213747
0.115650765051164
0.112771915791763
0.114623953625823
0.112111967182887
0.115285583340095
0.111684194492267
0.111822755151271
0.110386943784756
0.114334963836865
0.107464302747534
0.117262328220472
0.105638987361363
0.11491829880621
0.111110394608425
0.119262359641644
0.111270541544026
0.110008380442718
0.106716673973224
0.107086969699256
0.111365727676035
0.112279394793861
0.107675191573734
0.107676106276667
0.106617239479211
0.111061266721537
0.109107322974087
0.106846115799948
0.108203284684848
0.112666658331369
0.109458564719278
0.106283011932956
0.109833494426351
0.109484944012934
0.107787615878755
0.107960468490896
0.113909184432098
0.112834226352462
0.105865021086371
0.109747541563359
0.111968474518074
0.113628696656113
0.119259373203036
0.104107533261697
0.110492875775599
0.104322724275874
0.110199992763859
0.105820919586302
0.106604151586462
0.109423410707408
0.112286823951586
0.109629182128793
0.105740633539562
0.108970081101457
0.106752875871145
0.108124161816803
0.107401236036994
0.107838946329195
0.10562178031311
0.104955643303811
0.105024603416311
0.106759506159931
0.105497012906856
0.106369531138928
0.105693320849336
0.106682464539484
0.110448484810817
0.104386504056176
0.103049200899573
0.103169203264799
0.106498676475898
0.108094508175576
0.110472175099731
0.108766517998531
0.0999811954790299
0.106214855316744
0.101527349926584
0.10916570450136
0.101326833769152
0.105495700505356
0.103533385999537
0.106906669310047
0.101748084102594
0.105714150395189
0.10383467751706
0.107361926603837
0.106450896238219
0.106399367755873
0.103254591214634
0.105500050981545
0.105455061068332
0.106827926280412
0.105608387668404
0.112144570618245
0.121674795561509
0.114864372066792
0.110226600984809
0.109740506991563
0.10731744445177
0.110731995000161
0.106113685773381
0.108259554677941
0.104643742326428
0.107752042039991
0.105284692779819
0.10568713625034
0.102254021278819
0.106689512722673
0.105302431408359
0.106966306377881
0.104432931918843
0.10941652804962
0.102769515981256
0.108934477998211
0.100138856443202
0.113596735036008
0.106218361563106
0.119025804920287
0.0995444370357238
0.117735128912455
0.103299926157455
0.127585902826444
0.106719534301093
0.111450187311057
0.109198647944315
0.107842161658485
0.106071567072701
0.108467395342724
0.108830352038177
0.111846178547107
0.106777244727065
0.10775878161145
0.109207369991348
0.106501239590581
0.108390553286312
0.123228159130959
0.122968367761283
0.123475347824619
0.10613811404627
0.112046888295721
0.117636355839818
0.124583484492966
0.114973429264575
0.106600622158841
0.117607791811219
0.108634775157379
0.112708204261544
0.109918493847532
0.112617814055884
0.113166820527348
0.111256456014372
0.113665282937318
0.114462359900357
0.114595244411463
0.110244025122604
0.115299610485685
0.114113019394727
0.121666864710195
0.116391217606119
0.115770282146045
0.118785413167585
0.113127072602345
0.115353026059841
0.115335516863857
0.116072957768711
0.121566265385552
0.120243108994841
0.126136759927013
0.123004143461552
0.124459948072833
0.120492165550227
0.118852822322897
0.12925524719786
0.116498638712026
0.123052443643684
0.123936143901239
0.134914049210787
0.141656285421147
0.120037961998265
0.132793792145917
0.115935406410272
0.131861656393653
0.112691283163027
0.135678929756863
0.119295513698265
0.137726751104941
0.113857688923031
0.132317571013067
0.117820956110606
0.141265716278515
0.127272959335296
0.131741932624867
0.125742775466337
0.136289777460411
0.13778092742166
0.13274587238126
0.131894892334301
0.136783895748543
0.152571280065949
0.14793355022972
0.135771274550401
0.139009793687021
0.134135027745642
0.151522999521344
0.129401041218405
0.141442914089564
0.130171666819654
0.138658374476057
0.142587476209156
0.151565342036367
0.145737969679235
0.143408161690147
0.137605018769026
0.151345513748575
0.148707950366358
0.156160018573521
0.137951697417208
0.15078105627592
0.139536876044418
0.164090586677366
0.157837238714044
0.172581813237088
0.153405230900011
0.169940519254294
0.167343946963195
0.164039532492658
0.165646423987631
0.160427404334167
0.173628749044635
0.173843864024614
0.164577823050227
0.162881949518525
0.174462812137384
0.178531103543152
0.181463282216971
0.167785733036292
0.175867255957856
0.170681404289524
0.196378822744424
0.213413108309584
0.195811388831818
0.184280459430042
0.192516667290745
0.197173720764455
0.19998110688198
0.187174069818766
0.194569430572528
0.19606871396774
0.193743070422823
0.201670601884732
0.201450051723187
0.212669128282935
0.211849505537176
0.211628396223713
0.219355073264158
0.231431796794991
0.252883029170246
0.235461453719525
0.246209644364327
0.222684338625442
0.256403477104769
0.240436081049116
0.240581497292259
0.240006297880053
0.248879816363669
0.256308912890882
0.250954727091204
0.262952356122682
0.262015100552269
0.277772573552688
0.295629450776305
0.28207385226323
0.297103086444508
0.267769845175573
0.337587371088396
0.318966390313605
0.34843856051495
0.296710907981168
0.323046938600328
0.329431384769606
0.36056527352823
0.352452622062165
0.337598224997469
0.347963715806636
0.350972521337556
0.358058055777722
0.375549004373751
0.382817765355882
0.397780353517368
0.38869623599469
0.398238400398977
0.408464491241335
0.468678337407732
0.471960822524591
0.444582733500739
0.444495089784483
0.460405627662424
0.464217670602965
0.472305829974703
0.477565164178303
0.472197314716335
0.511180970411259
0.53915456524685
0.539366054253918
0.506969307319095
0.546538772245253
0.531847447821623
0.568882121337858
0.561763592560653
0.611671239444375
0.58479282723277
0.590495136007433
0.604453730104219
0.608940814205165
0.614281219917043
0.623047836477541
0.654874579527368
0.637360153864121
0.657136829760442
0.669648928485424
0.675030330092893
0.687175389022479
0.685669842539647
0.691130274320294
0.698870044339133
0.750419410834798
0.787000924995019
0.747676872410632
0.714667522062995
0.720153214508706
0.738889210151748
0.738375037920206
0.750884388885557
0.768816083303418
0.756034033635667
0.741080236616029
0.740463400637191
0.753954412767208
0.749282036513349
0.771589846824462
0.751021948548625
0.783437674001734
0.785589019497031
0.77585590968374
0.803736746870651
0.809908485700987
0.772302594943979
0.734718845210316
0.745175558022986
0.734086470952274
0.741979069601896
0.732907407039451
0.761894308881648
0.745339916225192
0.752975812423521
0.720959926166164
0.729135498550915
0.723915830352797
0.725737544644708
0.709498344124746
0.698198421431044
0.695801969991016
0.680659195968455
0.659528647542916
0.689654198372085
0.701430617987043
0.676223882751552
0.627461178147763
0.635728425100942
0.626623370321451
0.626270206185342
0.606354798038418
0.626307446640654
0.59961345875635
0.600009221479293
0.59439893906574
0.597403552962126
0.578724716732549
0.588334856201965
0.566927633238264
0.566395416244256
0.562364775781379
0.559737888678085
0.552630083118302
0.547155396857448
0.539585248774555
0.546434311743582
0.547382718040863
0.544789551582155
0.535094707572562
0.529247632092434
0.519296442976394
0.528675101005422
0.524205979093404
0.518013903636269
0.507169914220715
0.507957872032613
0.503708910893586
0.499513901773711
0.504811278992519
0.499040181583526
0.493760694039076
0.484537857027541
0.488592669821505
0.483035164672869
0.492301046686702
0.471318905665421
0.479694095925839
0.518060206954682
0.498990578781548
0.482486915525386
0.463175857417237
0.482300452794669
0.449675595326603
0.470778805113852
0.480220551889615
0.480630934912137
0.452617666081117
0.445610823931568
0.443315165226613
0.467645801116419
0.438107246779284
0.453171662528262
0.42496478759249
0.442101577397129
0.443387256624059
0.441272336444639
0.525792820222912
0.47325070049806
0.446300326606361
0.399630531329359
0.441174603413531
0.421142116060333
0.425797613327263
0.393699659807554
0.402422369816393
0.407989064035914
0.405894266821152
0.401109211514011
0.384962276620027
0.380971575038588
0.406807010541525
0.400591389227157
0.397003051958292
0.403626728364266
0.381577488396371
0.396432618780992
0.384787381704459
0.433754356018672
0.367340985416059
0.365615105053011
0.356551339586186
0.355408467552948
0.373369745007459
0.374079410880875
0.368390703890978
0.3667696354989
0.347327982682178
0.351632989488957
0.342616548506355
0.362661553069443
0.331725957974199
0.369948420662423
0.335779307529824
0.345104822412917
0.333651053749477
0.351637751297831
0.369363838468226
0.37015396292283
0.335638386540267
0.318042766940994
0.363108024478729
0.345313750731007
0.34838771444904
0.33763858118325
0.322595902709776
0.332894078402637
0.332638031114864
0.327120880625264
0.33282647241228
0.332064004389929
0.348736488727552
0.332972488816052
0.370721577164346
0.355214426997009
0.326651472585061
0.323741974343687
0.311035117341782
0.326205603576565
0.317029379235889
0.318578607331761
0.349749307333331
0.316712736399312
0.342568926264146
0.327407730729113
0.335248934284679
0.323130238273258
0.327579858116076
0.328321665767271
0.339733303028952
0.351778645081905
0.378267889151286
0.337274143741392
0.36317849721872
0.344355727156936
0.362946566338806
0.342388977329126
0.356338162130465
0.347729697158213
0.366537534199054
0.374773411615241
0.374531717031015
0.371343534752658
0.389169174544873
0.378032702959034
0.425047879128222
0.396487401198201
0.422232044039528
0.421257711962015
0.444205094236543
0.457704031505496
0.443706150506311
0.444335952456231
0.446876942554882
0.462354742459392
0.465321207100983
0.453939192929895
0.49979705383728
0.497726154929234
0.495330537046798
0.480940684038696
0.499776743180606
0.491308531540253
0.502643536363456
0.532675732450639
0.503777715404067
0.584680768760155
0.539103659092201
0.554074873539405
0.515195031461822
0.531711803954136
0.522968127679649
0.534783431741651
0.531697111647101
0.52380368252465
0.542283644081391
0.548513756240023
0.538018581235639
0.540987207233091
0.539485117958416
0.543269062120906
0.540543873388695
0.557420561640669
0.558597516594745
0.557386985977853
0.568633171760823
0.551271999961589
0.570410980669377
0.626575363953454
0.586321682944098
0.586551205170688
0.571677234920979
0.594860894082996
0.578362004351989
0.593014031746545
0.594025278150234
0.606229121088944
0.599366862442025
0.60171682180838
0.60547920575958
0.599454343874708
0.617333437954218
0.63496653972703
0.617221383871604
0.630810218545618
0.599707043454261
0.681491122172958
0.628568075051482
0.656264713120634
0.634116740957064
0.64701427655604
0.63102721416607
0.647588720823985
0.624663635667866
0.632858159122976
0.631733090645896
0.630646068252386
0.634684131946927
0.628890887692884
0.634128972167497
0.635296949416207
0.632017461562078
0.65136866971668
0.628282208361884
0.629098435192827
0.625630254098552
0.62094423782784
0.61674447537039
0.643281074683985
0.63253764949344
0.634718449025593
0.618645149822509
0.632986894613369
0.627671653837068
0.627057472728343
0.622030950683387
0.626217307176734
0.614322327731745
0.629399591275721
0.607833788926562
0.640015877518792
0.650543829160939
0.653994584443302
0.63087159021312
0.642919168917501
0.639331540433201
0.65178657208071
0.651543125050998
0.65654155107349
0.65510580398618
0.673398937906557
0.671160237122347
0.670214768605611
0.66697750369273
0.671990534070744
0.689965400937113
0.682570774274942
0.666840373459076
0.670219723990334
0.665736427120346
0.676779809515439
0.672403487199544
0.67472243517864
0.657999400376054
0.669723169271706
0.645986694549949
0.666777213569682
0.662167993886212
0.655543018879889
0.660250786161168
0.636797475003505
0.638813804126828
0.630209753525079
0.635391072585842
0.626512230427782
0.626402611317078
0.63047552984014
0.620198051947267
0.62232497362808
0.617377408498411
0.617881043679873
0.619396252676737
0.617746131644859
0.609360979865325
0.614667034343224
0.616655056499404
0.619459166421025
0.605712454182968
0.615403804838941
0.606786250955416
0.607945155162586
0.612507963719605
0.621618586798441
0.624880062375869
0.614330052278735
0.611087162596151
0.607645148957495
0.609182542533375
0.607831399701443
0.603398242761307
0.607703683083404
0.60407955873065
0.602213390732752
0.598338945999476
0.598304779329698
0.598576892916674
0.600482171856227
0.597900785347267
0.594606568161694
0.587856454897304
0.589502233003313
0.589095249996135
0.586298037321398
0.580948327839779
0.590497922142338
0.587310030473924
0.59171573898373
0.581448595925929
0.585947209414461
0.573200506342189
0.578263633588045
0.577409297985077
0.5782715653739
0.572380976165337
0.581440320887237
0.571885540389792
0.575923455487893
0.569729739668222
0.571912058901696
0.572379938588505
0.574756523874553
0.564703962328046
0.573179511404268
0.56194421024287
0.558487379847094
0.553292619511432
0.552485718644433
0.552104202512124
0.546757994505113
0.546450868671758
0.545445799000318
0.541463270880422
0.535665684082246
0.53000597399723
0.532204387798752
0.528673758059585
0.521321448232939
0.518247103313421
0.520701436334736
0.523753174507112
0.518983816963381
0.513420819983973
0.525208215435358
0.516697067148696
0.520765280143611
0.518278125528484
0.515467020267195
0.514117291022383
0.515172605326674
0.512051621154386
0.520289713352638
0.51979184349631
0.522168234816758
0.52176394827266
0.523391868551698
0.520996400848149
0.523433901673065
0.522553339342206
0.532616182065422
0.528487850491704
0.533657017325324
0.534176445119737
0.532741292317501
0.538528026711222
0.536192212157956
0.542368517406552
0.542115881212256
0.542542936645059
0.540191304036311
0.538973747412257
0.538002067667379
0.546453826391327
0.539553062122456
0.540602421957441
0.541652407640152
0.540026822400916
0.539067790639729
0.54046532773145
0.530490249737929
0.534339960134176
0.527581639493565
0.52813283827669
0.531011318029996
0.531085305078834
0.528659925884676
0.526649112555187
0.529403679949039
0.520902753578334
0.525008547477218
0.51673033013829
0.517044975720595
0.519455344547872
0.514187644054204
0.515896785902035
0.511180934114667
0.512205446086542
0.510705791058272
0.504655582528482
0.510514818585988
0.506129106962161
0.502929191975485
0.499367097343359
0.497302691696479
0.499542349253623
0.501345710704593
0.4993742545555
0.494560962199786
0.49442277566528
0.494552853977558
0.490952028987836
0.486725608109156
0.481577302201457
0.480003619811053
0.475931455109124
0.478961300284464
0.477224072890063
0.474030831984217
0.469751059906164
0.467238575471225
0.465426756013398
0.462590034009764
0.461592648674427
0.459576835490022
0.461523299658456
0.45821319298504
0.453681686270141
0.457586538794777
0.458749937363395
0.45640510294295
0.455489332650261
0.457930487773443
0.451845274278679
0.449063610352393
0.448319105703504
0.448540180416916
0.440983189809634
0.437814571455906
0.4337588743457
0.429198591556885
0.424483159509969
0.422550274755336
0.415463240362997
0.412923845090612
0.404601533505709
0.403476012318311
0.396948576681225
0.400705743918137
0.398536310929804
0.40149728858647
0.401268878636714
0.404741923352671
0.406322636839069
0.412334689970791
0.420462623791539
0.427116015858749
0.433359092255737
0.445324140083483
0.453879449866032
0.468070744966415
0.480582845761288
0.497806308118295
0.513258382726431
0.526971926693043
0.546877990364007
0.559960999710509
0.576763885073149
0.594637821669532
0.616814197005302
0.638145816133057
0.650471094458502
0.676803184391298
0.701902799609824
0.720157559542495
0.738266716193888
0.756758697115215
0.779596468568788
0.799775149478651
0.819186852059799
0.827320806745592
0.844166673998808
0.862783717520031
0.864020416537292
0.882877142177783
0.88198491007375
0.898964364296377
0.895478024838984
0.900900070279246
0.90333903671459
0.902396391998425
0.894108071726975
0.884500173540516
0.900709997629132
0.885641392977258
0.88322292726481
0.87467396741131
0.881679726719489
0.880845242457837
0.86212338520248
0.863053719726141
0.857865868629622
0.856383514850899
0.869607023275107
0.865696014555391
0.860754292449931
0.875253822166755
0.868469248198263
0.879068470832074
0.887207043594038
0.903547291791117
0.904479689770128
0.909095059067268
0.916651321878171
0.926717826989742
0.950344838788603
0.964719135348047
0.973614555800095
0.991886935912911
1.00077955929408
1.0012906585811
1.01066647017045
1.01587756294661
1.03763232322681
1.03601094972454
1.02497098316693
1.01955571423302
1.028704252752
1.03156922788272
1.02340365472968
1.0270080622792
1.01519294902082
1.03552731867581
1.02075618114789
1.01821786797395
1.02066821534072
1.01743868077626
1.03539282267449
1.03400458483479
1.04287195639861
1.06402765012319
1.07584465345587
1.08395240824064
1.09355517528482
1.09107116509534
1.09833548287947
1.12075412803807
1.12875561996132
1.13634435984652
1.14237264900004
1.1629573781037
1.15755217768799
1.19406279450523
1.19185324697042
1.24749996369591
1.22868923199986
1.26019599074486
1.27700020897837
1.30528378424017
1.33628439987077
1.38248529864829
1.3736744614688
1.44293487082203
1.46081020282053
1.47353364083366
1.49796725377845
1.47956836237212
1.51154331207091
1.54358835820661
1.61785431399985
1.53668102544851
1.54279904402826
1.56578074091905
1.60584581093435
1.59215063152628
1.54622259578553
1.50678535010735
1.59008019692688
1.46516004604486
1.5205905858941
1.52512375100569
1.54977402430128
1.50261880976287
1.48553398506282
1.52489804228695
1.50329706461038
1.49865063393713
1.59062098398301
1.5751131145113
1.58642668413162
1.54231522710091
1.57794721719649
1.55000602264261
1.64954496740673
1.55474786152753
1.6441183978245
1.57864102194966
1.6536837004213
1.6368716813523
1.72793775091683
1.65797265831745
1.739200056076
1.79498941622959
1.69652730687084
1.7294013217984
1.77176254197891
1.79196071512587
1.84225728749542
1.78289346856783
1.96632136069219
1.83485909036122
1.91860762451811
1.97334007186737
1.85900085868154
1.92700904474805
1.87654240304544
1.8708611179468
1.99873466275017
2.02657510318111
1.96778830103621
1.92681656761729
2.04861819855434
2.12913658335028
2.09527826834044
1.88299652110598
1.96744511301168
1.85722265119335
1.94782663952968
1.88353708892381
2.05660964421271
1.95834219512295
1.88964423200978
1.80859135549713
1.98906175912545
1.82617380188269
2.00148723181503
1.86146853038316
1.77304468867717
1.690816201775
1.70821577258952
1.74741851683019
1.77589577619755
1.57428858555847
1.64414299216734
1.53002027275757
1.61217556284718
1.53327572046903
1.52498632558746
1.48423686674184
1.51152736981566
1.40566799624432
1.50854992397343
1.46309703474065
1.4508706393002
1.43773312380849
1.4747097249514
1.39610891035059
1.42296325754371
1.36849116337845
1.36471214685207
1.3444286172146
1.29698966980082
1.25585946318163
1.2670971619187
1.18889531360921
1.16749509846359
1.1281070816673
1.13858509556694
1.06985548439926
1.07711873214639
1.00723793195809
0.985464736156009
0.943877869209498
0.925631753748245
0.88674210953366
0.845129093691221
0.827017363737198
0.793949710074898
0.766703723998592
0.756420921779715
0.723254508989028
0.717447633074912
0.69415000900398
0.685717958363376
0.678378038453046
0.651844404687656
0.646647893203573
0.638649156745556
0.619527073454734
0.624099123131652
0.614370958687173
0.610104483158948
0.599902515064209
0.60062932980375
0.602036386058973
0.596691009093023
0.589820044174464
0.598444143452281
0.5901976256797
0.592380286647978
0.588186388459547
0.591435129095826
0.594936565220726
0.605725348990021
0.611630863073768
0.603585304373644
0.605767142118054
0.606119875491626
0.61049201246037
0.623310073268196
0.619172244936614
0.626043442329182
0.613410736016087
0.626243882207683
0.618528333000805
0.627736475931891
0.627008117817382
0.617187326119911
0.625817831549192
0.634064480724407
0.616809926773719
0.636239587235036
0.622956763664254
0.628350145539728
0.634644473409917
0.656590819076321
0.643295318745856
0.644357009601503
0.643302806658825
0.643105915490589
0.652981491700986
0.652565416462258
0.643899224549817
0.670121854781013
0.648439580791678
0.652486098825793
0.663797097317676
0.663850754327012
0.649855393190757
0.664495055896212
0.668577075035344
0.655976590635511
0.658749053216372
0.664859275098268
0.65650838088274
0.674994934001488
0.668231819593843
0.6592337889787
0.665659239542382
0.675815370606503
0.671207566763368
0.692492538620787
0.674461222752328
0.685742064860193
0.696833799425553
0.717526464774064
0.72138435630005
0.732935222638047
0.736664310311853
0.767592902768492
0.76975750253615
0.780498090955871
0.771992070264803
0.776912559337233
0.775322181523696
0.774597218564755
0.774367852514656
0.770690152890053
0.77023274354903
0.763574731582517
0.741123776673333
0.755369949984492
0.740973283265523
0.740000464904344
0.732867198745273
0.748680410892398
0.739804868280451
0.761777631327338
0.754736859246375
0.769402664362791
0.755341598276864
0.763564956230109
0.756644146600879
0.760056745405894
0.752285638607579
0.756892744489995
0.756504505899955
0.750713666463452
0.761098980250914
0.760969323703846
0.75545340906829
0.777206098375721
0.77160111726108
0.780850369567645
0.769497962081948
0.777598636099931
0.757294148472162
0.773974328948913
0.77425623260729
0.777903601714185
0.77321605694064
0.789142865315286
0.76903411686708
0.7785573292948
0.80350360720675
0.784781549324128
0.774939371692449
0.794392169672988
0.781186597414859
0.783756402305015
0.790505666134173
0.797001055039487
0.789505051776235
0.79389172038991
0.795711886181365
0.795560637323731
0.796227309361411
0.818689053691208
0.801318181083932
0.80530567757395
0.791541051889165
0.803651172395843
0.816969726966211
0.827095531701994
0.819411461305545
0.813352306008587
0.7939270973515
0.818474213342538
0.81065197760069
0.809608789111394
0.78539164531022
0.809224956994504
0.774795609602871
0.821134669805625
0.812548494840895
0.818392457202075
0.863330637625961
0.8523148546234
0.828917819037967
0.851318127177078
0.841152504952957
0.86813354484385
0.833292136267848
0.832811436183786
0.825026895647891
0.864385311376679
0.843135815199926
0.83693002541392
0.874927088952517
0.90809523861736
0.851468507184509
0.854518945972555
0.893068418020719
0.924337054568371
0.831518546578563
0.884320315541208
0.882276550775418
0.909376204979342
0.920509225949857
0.98621995541644
0.916774962143185
0.945008862537043
0.908599862257569
0.942511713884335
0.937279020691692
0.924247869269745
0.970510177070869
1.00278032792608
1.00555839336817
1.0928530877795
1.04441493869065
0.997295111479543
1.05317140504571
1.19474935327322
1.05988801779963
1.13800272640796
1.07570489430018
1.0535568406087
1.15102420010381
1.13184525323005
1.12910686981917
1.17481507407285
1.08500815371392
1.08142222960849
1.14856398092725
1.23328961483527
1.15578600700058
1.17889109839474
1.10310274395968
1.30439759647053
1.25128414209126
1.2463972142897
1.08601592457845
1.09187858960676
1.15514887808821
1.19241188463055
1.23394113292914
1.17973875040813
1.20003723766535
1.34570330066198
1.22146091001344
1.21557234424061
1.13232751428532
1.26964295302759
1.21896179081523
1.24214844626874
1.2502092218703
1.66441317614443
1.23675289986018
1.11310619727512
1.11640542326021
1.16414617372758
1.17350055887473
1.24070898254409
1.19534854149094
1.27469793339424
1.15859619238809
1.47509728985088
1.28663000041424
1.38225283364049
1.12465621303198
1.20731980833457
1.19915677597191
1.2460269381838
1.09175650774925
1.25412297892548
1.18319356209235
1.0267571432993
1.10579309272848
1.56656769531764
1.30732676667856
1.06222531877843
1.28569832720938
1.23463612606195
1.23267337099252
1.41471760371231
1.13029817281766
1.31742101733865
1.39636347515963
1.33435106723362
1.31509539515489
1.13277358368082
1.10080176077208
1.47824749400369
1.26205487975621
1.28990904681358
1.15133254678579
1.22518778311051
1.38029708244225
1.36997551872458
1.19438728124818
1.22700944757114
1.8755219167829
2.33202402446067
1.32051129901847
1.32619419409417
1.46801938628183
1.68274228325116
1.39223814354867
1.50000251988407
1.54679625973963
1.64414844007104
1.21374646689313
1.29386446374324
1.19948797080887
2.29097011086812
1.41201386078972
1.20515300861419
1.79932416780186
1.67072342102187
1.21115726468795
1.24497001351034
1.29009990505772
1.64092472008967
1.80190141162954
2.10841309867077
1.33314691472299
1.53088549563754
1.49173139564501
1.32979442947004
2.5925205775013
5
1.45000258875724
1.28718510131101
1.48577282052737
1.59120367173487
5
1.38082432480657
1.12617403337406
5
1.45526996905329
1.52239706359766
5
5
1.42400039690175
1.43625194394851
1.64951009775227
5
1.18525097096743
2.90614692239218
5
5
1.30187713049469
1.57319811980584
5
5
0.954455939514186
1.8337944898172
1.61219215701339
5
0.936309861187019
5
5
2.66539161770575
0.797298339582632
0.905125298296921
1.17328005536118
1.03443085980528
1.58724487651891
5
5
5
5
5
1.92778941089333
