3596
4000.36533379555
650.420452594757
1
2
2
0.0776952340997526
0.0723647758407982
0.0628353030877113
0.0755071126304695
0.0692319361245943
0.0842041092741778
0.0693598675143721
0.0775152818810493
0.0693378591050283
0.0791644108480445
0.0753066869084506
0.0769049037935149
0.0607561499913495
0.0724961177896694
0.0717177478290347
0.0785447962752576
0.0708115159234832
0.0678827578361035
0.0527761981540343
0.0834251130074594
0.0760462088451699
0.0717725284071818
0.0652972514314054
0.0789263278132443
0.0683729472266344
0.0712732411648118
0.0654235434841332
0.0692891756103058
0.069102486364753
0.0760123588639485
0.0654076180856475
0.0717180206137371
0.0644198148957454
0.0786717671150408
0.0720381691684554
0.0725105765633327
0.0766621941473597
0.0830293717149018
0.0671025589130865
0.0746872342924362
0.0692087201284859
0.076306900148302
0.0625575933575215
0.0794063555035188
0.066474636657607
0.0756758438620491
0.0643894807685081
0.073904837054876
0.0670093522516375
0.0693179456531663
0.0659087286978325
0.0743437885657792
0.0652959272758371
0.0832195084487374
0.0729166673587467
0.0799765015771007
0.0738333494452061
0.0733256588477017
0.0540068496777939
0.0724003381632281
0.0763485048480395
0.0807112556547031
0.0669274772581698
0.0755345033670899
0.0657311255432619
0.0673447418032738
0.0645658774940272
0.0689650826464015
0.0686883440090214
0.0711556774616893
0.0680692743167209
0.0699250364998987
0.0822950124424302
0.0791124471836226
0.0686947178004214
0.0625546925415446
0.0536066380567104
0.070866033905517
0.060766273879454
0.0708789126876711
0.0694619482406457
0.0708053959434419
0.0660007483137257
0.0672536692146291
0.0705410408976984
0.0758631523122186
0.0651051095170293
0.0791782032125388
0.083800206841069
0.0661426194952562
0.0537253622173965
0.0753380371133176
0.0627223638197955
0.0632539649920368
0.0540904982183124
0.0658484143931477
0.0640122592574721
0.0674445181658828
0.0627230417773244
0.0635709691886202
0.0504226544694543
0.0765030737273601
0.0707745198460518
0.0829534847181787
0.0702124940948275
0.0833157611454551
0.0486247205287182
0.0906079242162806
0.0773950906024323
0.0644738045228904
0.0602799050757429
0.0582000686199242
0.0630135308319157
0.0615269926257713
0.0615386589396728
0.0759338890503251
0.0856482270639645
0.0708848520665515
0.0565021143272066
0.0616292719956421
0.047039118818027
0.0800319851879272
0.0837907530315966
0.0713339296323662
0.0575694788879829
0.0507472930412686
0.055246083446873
0.106252900144802
0.0684625479418372
0.0705271565029118
0.0540733237068732
0.0682522101634839
0.0475389516527965
0.0703535432056628
0.0632756415037738
0.0701898623444005
0.0475296864832342
0.0650210348239408
0.0620299146933612
0.0979807471348771
0.0712793467951741
0.0663641559612569
0.0507410043606895
0.0597300269501504
0.085524227767247
0.0736470238951535
0.0562542363171705
0.0763076940338658
0.0548697235767835
0.0676378618208364
0.0534027570393297
0.0662885563204293
0.072669756987752
0.0614065215806856
0.0441669242604221
0.0791986509576545
0.0820339926783762
0.100878284182057
0.0657589242731043
0.0775762883061365
0.0480313385589789
0.0730861978187057
0.0485951321352475
0.0694465282896339
0.052304949826781
0.0640935492101566
0.0597854023259706
0.075436892664616
0.0529404794931507
0.0689838769053062
0.0733542804773606
0.0719329362580393
0.0521801294045045
0.0967758094624105
0.076430759870278
0.0604434038488501
0.0607841449513407
0.0721173086873656
0.0442488875833916
0.0797881465810215
0.057409821656023
0.0691075382224492
0.0472995623692785
0.0670078190503915
0.0543881362502937
0.080302834851936
0.0623105256342884
0.0680843635168732
0.0441786685307393
0.0605993820917152
0.0631356814993842
0.113913861469015
0.059159576451694
0.0750005725541772
0.0415644076140399
0.0535431993781668
0.0642704282570038
0.0852595493200188
0.0565576749845121
0.0575097402730488
0.0510397196532427
0.0680185060343467
0.0531042026399183
0.0698465723024512
0.0446396376584468
0.069099887717399
0.0590948147009942
0.0801017751954218
0.0486403529167931
0.0693084799299047
0.049688102582191
0.0783820783223127
0.0696499933788833
0.0880631460876808
0.0616466792086522
0.0627300758618747
0.0531003748257912
0.0866101504653221
0.0658779364259008
0.059740116579977
0.0557103239933928
0.0586078796248018
0.0526002119027826
0.0671845194191017
0.0517608002963699
0.0667198939682043
0.0492333068691953
0.0664798836822694
0.0523296687091123
0.0664695938402905
0.0622956234863794
0.0642609243416085
0.0582873895162874
0.0603470033953746
0.0468427834395006
0.0735903722410971
0.0659048587597436
0.0748574672138429
0.045748063967436
0.0652873563211912
0.0534563826423822
0.0745951779557506
0.0524887186401214
0.0651503807379515
0.0340303734437257
0.0790909282617896
0.0634429539174054
0.0781054660999346
0.0510030023920716
0.0660777517408852
0.0697153914640693
0.0824775617891224
0.0523664924450084
0.0630690925456872
0.0605841027136238
0.0630083767969029
0.050576528793982
0.0798104293724603
0.0670704883062444
0.0697582787656844
0.0564483795504317
0.0649617343620099
0.055775376886357
0.0502190375310764
0.0631321101942292
0.102421586369333
0.0699337444673516
0.0750698596650552
0.0836334252912685
0.0865675477228278
0.0668740214872603
0.0598410609190498
0.0516211334904395
0.137362453753058
0.094434671874766
0.0617675558974797
0.062938908008169
0.0717082766905429
0.0675162647222331
0.0692797280073297
0.0507307842311684
0.0828479212200031
0.0620398266533645
0.123654640980157
0.0804815509329966
0.0831828184002398
0.06938176224997
0.0900116987317573
0.0616980074493401
0.0671857495545229
0.0588220049210875
0.0675657028502834
0.0762646642009398
0.0836582030736102
0.0788793713588491
0.0623269748411304
0.0756061855015365
0.0868436872120898
0.0713742469972918
0.0679170801138186
0.0698022986591483
0.0681261969098608
0.0646888238716205
0.0657404496867258
0.0686413516898444
0.076263226565278
0.0529097495550704
0.0784609032181263
0.0884572162362453
0.0870091687941286
0.0765702924214422
0.0864393894138923
0.0707790937059319
0.0656758867198195
0.0708657655241152
0.0730356611209048
0.071202031237212
0.0713648155165365
0.0710298929538925
0.0904392970597388
0.0666861648152581
0.0782465602227652
0.0654981850669988
0.073850928853084
0.0710427635709414
0.0816881878265694
0.0714131847359551
0.0814264481457083
0.0721929749116705
0.0763408365556977
0.0909645718456426
0.0969194097750933
0.0676985172965867
0.111445299709108
0.0905304640427934
0.0878261055835492
0.0668038821961348
0.0807644731702351
0.0659443517983384
0.0960120329633738
0.082568788988661
0.0892719886963814
0.0829943322998112
0.11182971292665
0.0890903697296548
0.0921837570253395
0.0837554636125424
0.139170979496979
0.108727161493508
0.120328292782364
0.0853360814013284
0.0945510848769053
0.110843675380376
0.117931374560335
0.125872677849103
0.104752309235523
0.108835278487521
0.100658124744983
0.109282550430768
0.108979203181207
0.102802229579407
0.111603424543073
0.108142120645483
0.113276322191629
0.111206231520556
0.127718638266442
0.102179450849806
0.124524183517275
0.140765597991198
0.131968615489114
0.116890506789789
0.122053020444873
0.118018677729254
0.143733395673766
0.13024576637954
0.185209707146475
0.142583675780435
0.188229617491457
0.146350425238421
0.161568563536274
0.136940469187256
0.149761281473658
0.138599354819575
0.158289639408229
0.144550064914129
0.171949760375058
0.137192119045771
0.162679040365322
0.156676912091925
0.176526961693615
0.157807169321551
0.180955010447932
0.166582555059141
0.177625046763062
0.16904650660743
0.182385779294748
0.186793215966147
0.22938115662551
0.195904924723338
0.191540361374633
0.186540186746916
0.187970610472415
0.196600741151469
0.191798334321911
0.197930857763055
0.205960499207619
0.209565801923484
0.244865220612493
0.206703054133325
0.252622050421226
0.208624483589599
0.220935735338798
0.227797718609243
0.231736086696656
0.227357335719109
0.256829271082144
0.228127827224035
0.244340575717876
0.255945236325782
0.233301744292122
0.243936280227665
0.258221325743192
0.235793814244571
0.245111404447178
0.240139594795583
0.271404803694757
0.255091141911018
0.284406696330033
0.259373225029034
0.283153928259768
0.288818621449815
0.280203048928159
0.284883031275581
0.322773562780092
0.272827017309397
0.307729396637957
0.287226406984483
0.301295123045041
0.285816900123064
0.305339836580489
0.334856577476433
0.321697723444976
0.338285031738243
0.339253917762714
0.319732036876005
0.342713188014339
0.323983624450342
0.33100430396264
0.330041204029946
0.361875402559196
0.334776071928406
0.351442543441283
0.349912109390801
0.380412177898592
0.35309178192008
0.372862971422046
0.357579764122236
0.380421902321525
0.357661938744628
0.37975319379997
0.390170228129766
0.409169784027145
0.400407044995347
0.434409627311966
0.431259905143309
0.45370500644969
0.400750787994497
0.408958056518055
0.427963498787865
0.444629937648277
0.419376599963046
0.441181787187798
0.429726303532031
0.44412978902817
0.423408738813502
0.450429488542169
0.446891666083759
0.476919914735744
0.442837371806197
0.495770158145783
0.437665239747206
0.491045326406327
0.484886409389951
0.506992241666873
0.474130889548005
0.523706547107477
0.491538862697792
0.551820456553999
0.483477819622975
0.514271926039129
0.474229817495249
0.513245581704531
0.538286803469784
0.544512011565149
0.493078911818964
0.57794032786945
0.525928506482224
0.584661171442006
0.516900176696115
0.587568236128793
0.543592240322014
0.589292805798337
0.542450610333724
0.573841817300365
0.561140159944261
0.625700173738895
0.590309706521375
0.621990602674873
0.549563783381946
0.602273793249292
0.569315278125578
0.68087944124141
0.629840769860982
0.638513127792733
0.590858062104565
0.652109903163176
0.645962827265524
0.658053831740322
0.638976582192222
0.69032710996516
0.626583219911901
0.698484412707143
0.628744163965078
0.701193869801371
0.663326858362614
0.705030927964003
0.688966519955199
0.675741472152178
0.672466923406915
0.727105736207242
0.700962708127995
0.735399522270487
0.693377006739981
0.707085857744365
0.730544566257734
0.735759105526166
0.664508078396887
0.75702580143064
0.705671842776312
0.845373636440934
0.706358615877774
0.774032130667712
0.786314869581002
0.803761993742857
0.751586919878447
0.848782665160974
0.736921556506516
0.865998133002304
0.783025345329097
0.853836251295682
0.788255578032399
0.867727069275114
0.767918538517721
0.868044232423488
0.796614126519171
0.854578295818742
0.777570323018321
0.856555200208504
0.873572955505056
0.866850860984329
0.843248147918442
0.904967963841484
0.838030030719398
0.947266059983703
0.781166959427445
0.907209496574451
0.834051514594957
0.903565223303956
0.864649496112949
0.929707226328387
0.867194523331081
0.925687048421986
0.867022018863695
1.03072835226895
0.923177276569736
0.967072839338035
0.863295600379441
1.02102072480269
0.878878981899744
1.03942924493559
0.927954239486149
1.0606321382217
0.969033741404716
0.986439223645883
0.941052786220598
1.00756745121315
0.88012472361029
1.07737532202007
0.921687200575486
0.9689222673325
1.0259114425234
1.13623538503053
0.950664267547801
1.01454238352701
0.985854780432077
1.10957796911248
1.00334668221248
1.07678016319386
1.01926908007242
1.09452103901322
0.982758811614349
1.08676132785933
1.00081901107375
1.09583446413682
1.01839718388266
1.17178778147507
1.04391601022296
1.10883396466313
1.00711664427395
1.19044212396773
1.04904200805993
1.20625371375434
1.00053617362358
1.23207014490371
1.04953417859973
1.21102409711473
1.0013831579802
1.17179661302996
1.092978324874
1.22014125324201
1.00810363260679
1.16888296585543
1.13178875990768
1.24810156737635
1.11055857301345
1.35633027496512
1.05784523660896
1.2358765253096
1.1109855551505
1.16760930372788
1.21493249524461
1.31160046254291
1.0957822598283
1.20801275014515
1.18907080357641
1.26199615728992
1.2475346513903
1.25264832487745
1.25006348912187
1.18908183138493
1.19651562672119
1.3091604949246
1.09298587207772
1.29526999426191
1.15119845320189
1.27483632373728
1.30547877138842
1.3239029824392
1.23326859730257
1.29913512125285
1.10599102679162
1.35620938579449
1.27940846219694
1.3614623511374
1.25895433870415
1.36337257561389
1.22667717287522
1.63627303301657
1.256186238706
1.44393993134756
1.32214823099422
1.41513413594305
1.25248286646747
1.55126118506275
1.25827867433225
1.50306824771287
1.21203100102265
1.29094598800847
1.19118517822158
1.32731740288543
1.27987034179195
1.27009127878779
1.3802147445555
1.32539880612671
1.25796988256332
1.18662027788675
1.21553502923197
1.3789928796503
1.34712955131905
1.47072332209981
1.30460397972945
1.43311423927326
1.34086040639985
1.44646791383142
1.37899026844027
1.53661153304482
1.45345865311124
1.49796000291966
1.51101980675192
1.36851551974731
1.32272052511154
1.41789463191091
1.36774643871418
1.55061966822492
1.34525097483458
1.47579381586752
1.40302651501055
1.59448940408045
1.32347255486568
1.39598595137217
1.31396580890128
1.44389349529133
1.30521694782395
1.327045483252
1.38234814560361
1.51662010757606
1.34353340996596
1.45243130401488
1.40855777114215
1.47718955014129
1.33379089640245
1.40475143369907
1.41520913273007
1.33644057875415
1.44098750554549
1.69860320485709
1.31821966567925
1.63626621832587
1.48734204730779
1.57452204406667
1.3536258709268
1.44938093409047
1.31874581965116
1.49701223805553
1.32115462572547
1.45805921451
1.34875003599822
1.38214883879827
1.32080974358789
1.61924928856406
1.36162966683162
1.54366039682619
1.33622221029423
1.47331737096209
1.4974678741705
1.38146464154129
1.27137301046485
1.55038070461208
1.35486136087069
1.37567314429243
1.31881877177293
1.5602573854923
1.35789990689072
1.47644619618929
1.440593844043
1.51761842111086
1.34712949626455
1.48746962820762
1.48793491022808
1.61367260771741
1.35384236468017
1.59486015876976
1.49447358032525
1.6763586158256
1.40638986636379
1.41816737678901
1.38417067189183
1.55639618154398
1.26360833676202
1.58064180950816
1.45232565031276
1.40864771315249
1.39852236004532
1.41867291070944
1.44481606251249
1.54327833927186
1.54205225367778
1.37256700031373
1.59690877114929
1.73214904437151
1.4512633985559
1.41587212476438
1.39644083340235
1.53883865465017
1.47029320170432
1.40380690869083
1.3410762682529
1.46072076333653
1.41219336700899
1.52580179539875
1.30109330986047
1.53484593001795
1.39741258058895
1.47202757409264
1.36567905226299
1.40890301962531
1.39887325788546
1.49456457729636
1.3780061360274
1.49102290016995
1.41992742290957
1.39528218700862
1.48785181051748
1.41868236060043
1.32229914229908
1.50288360464992
1.36783502946374
1.4080657669952
1.29639599362202
1.40163140283398
1.30274423951254
1.38881392422279
1.36876829408475
1.42947553378803
1.3551236865788
1.3898172566808
1.32302126860642
1.4382016333648
1.31974499160888
1.42318617963599
1.34650111993466
1.32161591061036
1.38730731889657
1.36149132827809
1.37465006704225
1.32432200234428
1.34819021285464
1.34598039774984
1.31210085911405
1.36839356858225
1.26801621436477
1.27939106796742
1.4080743389496
1.35609396766306
1.31253067858212
1.34712928904678
1.21337429264448
1.32808475262954
1.28964260032053
1.34965402046069
1.33313125511978
1.39026999566646
1.28915652145878
1.31400880859551
1.28102585774905
1.35898003661172
1.31316960032435
1.26423184928129
1.30929009170962
1.26203810451365
1.21074842451565
1.28788558603763
1.27445461404388
1.30945220024293
1.30533259142667
1.21476132879106
1.22186955714739
1.25183713625491
1.2141346373426
1.33479608286894
1.18311129934029
1.1905988100502
1.21153701862929
1.27376866096972
1.24080429965554
1.25050122078962
1.20928174517247
1.20259438392602
1.17775839366676
1.27275553981578
1.19254315260826
1.19655922544449
1.1458412550238
1.18173572371451
1.11172751908077
1.17946783548264
1.14580839586301
1.17552145979494
1.12455814450848
1.1291115862832
1.13711807472896
1.2011023648158
1.10520326617548
1.14906101818402
1.09712811131764
1.12671875098287
1.09482678461101
1.14812350199836
1.1187589324085
1.14162214860073
1.08117606710061
1.12514351556965
1.06596872188832
1.04938753316646
0.997050251975248
1.07346215433658
1.05952798064117
1.03419756994073
1.05856598823384
1.03234974586829
1.04644364731821
1.06054238272139
1.05067971592532
1.07530347007262
0.9967539076095
1.04026738200542
0.995623787447005
1.02220660989089
1.00030877569421
1.01509346344351
0.95768141249376
1.02349321077843
0.978532359233779
0.967297494044393
0.939703100474552
0.947196631308152
0.984275403757739
0.978956309202353
0.928429687217683
0.946115776598975
0.92778482848429
0.946625930159029
0.928479495852326
0.957230436870264
0.930093200203534
0.920961008481713
0.898815211087772
0.929073720714816
0.892563400792401
0.915006911904033
0.886576730619762
0.888381793367999
0.878149161518972
0.887696948358926
0.865742884573099
0.878507773627697
0.864620603389456
0.871828357538048
0.836800394155082
0.867758096766764
0.851348604194856
0.851281150103916
0.822971067128505
0.8599211423751
0.807359639048125
0.815839585039919
0.82101633272685
0.812231558578039
0.809291859903859
0.797438256575314
0.777362013055878
0.803608464093345
0.777776917858783
0.780929737768633
0.775739314077649
0.783066029764657
0.755378093128391
0.772186596705
0.764040779569089
0.765689604039396
0.750751161015962
0.747850211735588
0.752290864193437
0.745670750052481
0.725856237168635
0.738409493221605
0.732673501670064
0.74003097955857
0.716995121879135
0.700456048279145
0.707718698826849
0.710395092072727
0.693554084378504
0.697488763243634
0.679414675161754
0.681588289239592
0.679627378156635
0.697368213323223
0.671260089359496
0.67576850430928
0.674052402164904
0.680509036144406
0.665060013405374
0.65006997804663
0.639284779565851
0.662343429016114
0.642500437651509
0.645800069404578
0.645672664891287
0.648484982502734
0.623035173995523
0.629066303399469
0.623827696418295
0.626062034378587
0.624126777311512
0.619958439030446
0.614351920413317
0.610304489357737
0.586683700173752
0.592511571811147
0.596448432756403
0.590660666137401
0.593255426495745
0.6107039929821
0.593409735267214
0.583096557674973
0.570855313479702
0.573431890331279
0.571075827030021
0.564718100961736
0.559140014976803
0.569846632132177
0.555517389514508
0.560060856456963
0.552350108321292
0.547268489237917
0.550200456097078
0.548404925240046
0.549104768052845
0.54501526832228
0.533598052256594
0.541969156075177
0.538440794099576
0.52052795018574
0.514759024453126
0.520967116425648
0.517698072486309
0.521850818502574
0.516712569907121
0.517972781440291
0.508671986349189
0.502855494889469
0.50357609937076
0.503041503619341
0.491094953603024
0.492502238982136
0.493424042098545
0.494399673381827
0.478882508311853
0.486462513563949
0.476006066809845
0.47236624807813
0.478223110570888
0.476760227822636
0.464356230825317
0.471383971908747
0.462659197745234
0.465149821778931
0.465473082566244
0.466745313940243
0.465887559013109
0.451431740547834
0.452221923598364
0.454707088635083
0.442607616244571
0.43201924615908
0.444207557412167
0.450708568256372
0.433750487478391
0.441969421578009
0.442928027391416
0.439579932870743
0.431652895037121
0.427678755729229
0.420024028151593
0.429332060160094
0.432588979273868
0.426228675069365
0.424441135961823
0.426552249196156
0.418128498062034
0.421488800763967
0.421816849094927
0.422835465417492
0.415735479015368
0.418266194048242
0.414757402235021
0.40658232007407
0.400489221441174
0.40646779351738
0.408331770698052
0.408147117746113
0.40763707970773
0.412295808852542
0.408050990703786
0.404799456384907
0.401016789793055
0.408460135735048
0.409317129507571
0.408832798556508
0.402820240382807
0.404405204668917
0.40727075272506
0.40876454578109
0.408756353577248
0.406341226447876
0.410263660760797
0.411254499788784
0.405329395488555
0.412161056676305
0.4116792649304
0.419570503608019
0.417048085835338
0.413474308314362
0.42154968922987
0.420332952114787
0.420819124331473
0.424284022026534
0.416743455475217
0.422336814306724
0.427392632131123
0.424607343368035
0.427312479921074
0.427990126145102
0.432057889742862
0.432489635094852
0.43798323084483
0.442891426025668
0.450622994998689
0.449700920821486
0.440544171998135
0.451164941537405
0.45897591130254
0.452282608304835
0.448946653271075
0.452155531094074
0.452168350243039
0.456116343727133
0.46576451369988
0.472718424909456
0.471631862351128
0.472622005885793
0.489692174908988
0.484809903973864
0.489734893572251
0.490448260270528
0.496959788490877
0.499036200719696
0.498042102944612
0.504104535608263
0.514565505861938
0.529611360717571
0.52969275028852
0.532501494255489
0.538060016142075
0.537834585750565
0.540018352303722
0.551704603334245
0.550192783170919
0.551901033963418
0.557831474822361
0.565118436328697
0.565716728855746
0.56491152311176
0.574717613344747
0.567915770715809
0.577889028433483
0.566682833001225
0.562478835598986
0.576289344529311
0.585562948702261
0.587184030304656
0.580544705746084
0.587300595353987
0.591013654005799
0.588911844255555
0.591687647175514
0.58537512590431
0.564850650781489
0.562267060453077
0.58034883863039
0.573164055245403
0.558475925215919
0.559279749318723
0.577712742479561
0.568959262197169
0.566039787039047
0.576924166904714
0.562868117903548
0.557759766497311
0.56005949787223
0.551085631962608
0.560321858062867
0.554817452965532
0.552378837524403
0.556376427189712
0.547662875802443
0.552235065031463
0.557580079090812
0.552721766996895
0.564582419829738
0.555749939398299
0.546526887792779
0.543647426693662
0.555185059269072
0.551985945107935
0.545984036923206
0.547990568310131
0.552129737398336
0.554582777747827
0.550546746129912
0.54936911699362
0.563882256444581
0.559701889958225
0.548149989726832
0.540800924252364
0.543123174183673
0.53301905502795
0.540264860048169
0.539801785025747
0.531030844624621
0.535570420599755
0.534387523262632
0.533829364111642
0.540069536521964
0.522944190260517
0.518425588454746
0.505242794063239
0.51101431122909
0.505213228465746
0.507668286390088
0.507529990567796
0.49742869510146
0.491381173433213
0.49048707293038
0.483370305160705
0.485247845738022
0.484973140997056
0.477402354780822
0.469955962071318
0.481486184224851
0.46572949289416
0.462828040095473
0.463120348121165
0.453679054850225
0.458034481083982
0.461332493798135
0.450520497962398
0.445551336552047
0.441685781474017
0.438683665993711
0.422593532675903
0.434605820746237
0.422336635348353
0.420017723361762
0.422525776657885
0.418490006322268
0.421134204494166
0.416166235929108
0.415247090548352
0.418136240192059
0.409626336745085
0.407162375399466
0.399201155166553
0.400304019961844
0.403327849413009
0.406820854660752
0.398865843279608
0.395913132263929
0.393823287131767
0.395404608119402
0.388486371701996
0.383533653245318
0.379271787427242
0.384152973455752
0.377059825636481
0.380885899421581
0.382011886572162
0.379609177929643
0.375810761622323
0.368229390943769
0.370052383300743
0.371709758887527
0.366588520612049
0.369223860270152
0.359904882049423
0.361368363803464
0.362438285657088
0.36314766998212
0.354506866730184
0.358180895104291
0.354986609612501
0.350870926293633
0.351926386909163
0.356654712466403
0.350931130699066
0.35316614942413
0.3495391507445
0.350209837736658
0.349519735643796
0.33981685633613
0.336599148662494
0.34234108848093
0.334458826040839
0.340651813903072
0.33514956950355
0.331871181712961
0.330856795073957
0.333693170681652
0.329934530658595
0.33260584974609
0.331066697632036
0.32941713183376
0.324336118415761
0.330829671747268
0.325085585696961
0.324736447219444
0.317555295238884
0.322328042765596
0.313039181846863
0.3181138185774
0.31616793806327
0.317822595209199
0.316675945966406
0.313136283004492
0.316181492115998
0.321731114574209
0.309483143239592
0.308712081047153
0.311623946986817
0.31953158110889
0.312204173147887
0.314746880126897
0.310545079226008
0.307575580456955
0.302528669712914
0.302900438167134
0.30138892745482
0.307432189874569
0.29967839923856
0.304966801937818
0.29687975264027
0.299701305415001
0.298892491515704
0.303125724686019
0.297332643905675
0.299102915194225
0.301448433806977
0.29992623965595
0.291180792870439
0.297472890469232
0.294923724153789
0.301514785530059
0.296359689832749
0.293075636729376
0.287370196162984
0.292349783122153
0.289311122643338
0.288245137760872
0.289049789100622
0.289673910280579
0.28630065205571
0.294181886701773
0.283734242529545
0.289468244110701
0.288364171732182
0.289352121617136
0.283133515903827
0.289942888976386
0.283764043480985
0.281518699287687
0.280820828196675
0.28458507740185
0.282913034935203
0.285787644351744
0.281594518668887
0.277338201809085
0.280072813325168
0.28727949173504
0.280807122425026
0.281840478504198
0.276774710599646
0.278939316079406
0.276601191585114
0.279966566591175
0.279613151323052
0.285569597595163
0.276745528312655
0.276533307941195
0.277678894246086
0.278484109070366
0.276523121466659
0.27849871448444
0.268927041876732
0.275690032870152
0.274521926787273
0.275998373972841
0.269263806476073
0.2696092441329
0.27112578189587
0.271213254264995
0.268042496222588
0.277294790490597
0.267077193810941
0.272973106544477
0.269482020097143
0.267396693288749
0.263304079821505
0.26760850626318
0.264543723742865
0.263684536253171
0.25773120668155
0.268845553839841
0.263273097382132
0.261961987187037
0.256971946901681
0.263208387525328
0.256847585505609
0.261189096123954
0.255853644304715
0.268418563980907
0.253927855383832
0.259324406240817
0.261876985365594
0.259725900623667
0.255091757356829
0.256664007678291
0.247038517035808
0.2565597615304
0.250334490805392
0.25605069838528
0.253171685015352
0.249554350858175
0.248769133812177
0.255047722883353
0.248415230503074
0.252567677196862
0.245014969605619
0.247643562623569
0.2461924273477
0.248151235650427
0.24771028032167
0.24803090706309
0.24575262374356
0.251720496927489
0.244622152329263
0.245499141951547
0.24024458338921
0.238211406173128
0.236435264985947
0.246499131506186
0.243908480285007
0.241410408725644
0.236013930674487
0.239256487543727
0.241358465924745
0.244006517771781
0.229344094888404
0.236421851222172
0.230833855523957
0.233897323339563
0.229899538892732
0.231863266154812
0.228286167316349
0.237858613878139
0.228420984632007
0.231373094405424
0.224367661852405
0.229007902449001
0.229632327870829
0.231089688142981
0.219577813804117
0.224765473197969
0.218865439640751
0.22632187966266
0.223216999002952
0.223931788598698
0.216963816306804
0.219364780919676
0.219116651618352
0.220345625757486
0.214611529607591
0.216103186794068
0.212471608265333
0.215815811170446
0.21100882270943
0.214562210497967
0.217613719618844
0.214011389219479
0.208718144738017
0.212385815172495
0.206088294586812
0.210617518081738
0.199702272219714
0.206548791286684
0.208069281221206
0.205976840389625
0.205418624418395
0.211462407006159
0.203864788502216
0.200222701405344
0.200268927747459
0.203906064891251
0.201679218105047
0.204563059000069
0.196337658478116
0.200909739005647
0.202931013545756
0.199017098778433
0.19437778638759
0.198113827830053
0.198057088573798
0.198631196189995
0.191464640015455
0.197531618808335
0.195877476720133
0.193305669442488
0.188384007246559
0.194064343324304
0.184832987744799
0.194981223849806
0.188724772515972
0.193028447229974
0.191537635635994
0.188230357019683
0.187550039766758
0.189618353186049
0.186016910386962
0.187221847190144
0.186656065538318
0.19064394520827
0.182999961617481
0.189831528574738
0.184464990830086
0.187009507595351
0.180587207895804
0.187927755694866
0.178855543062698
0.181930161197514
0.178157446925393
0.18624623437783
0.181099440508465
0.184410184007209
0.177915550377632
0.182265325334364
0.178731925477342
0.181402452521888
0.179774059666541
0.178898191436142
0.175593453915278
0.177950983837631
0.171277042514492
0.182117381782391
0.178782839131135
0.178451957381059
0.179138716172809
0.180458343961125
0.176717913973612
0.177189705068555
0.173349474221305
0.173541821967744
0.172818238757859
0.174718218831354
0.171181187751646
0.177954135368304
0.170760741142379
0.174704538939134
0.169236137086657
0.179454036648397
0.170760851416541
0.174666848760004
0.172791856330787
0.170919927483129
0.168310721304789
0.170357053376902
0.167232041275507
0.169645657238294
0.168352200184098
0.171038806233027
0.16760331617287
0.174817489325888
0.170416963283012
0.173141597358512
0.171861730479279
0.171845332265837
0.165117564700431
0.17214740110132
0.163993082788723
0.167874725343855
0.165456562594368
0.166162506023101
0.158446810794798
0.168129229266677
0.164514613560601
0.166697505024186
0.164313837906596
0.167649887728648
0.161380848220097
0.164893422828039
0.159729505354127
0.16521521547496
0.160685233278735
0.162774539794574
0.159826588558439
0.159760599185784
0.161042711347072
0.164394347562275
0.157246973238061
0.159077588062353
0.158079143981107
0.157382833482808
0.159299785950044
0.159760694850854
0.160109060401066
0.159401674138877
0.152290553377389
0.16558204575426
0.155114617161136
0.158907669908424
0.151733854207613
0.158124386849313
0.152283810711302
0.160914098623701
0.155532925463989
0.158794802319621
0.151381723309613
0.158219064678224
0.151674285597795
0.157059666403041
0.150716748568796
0.153945563017075
0.155942543329529
0.156419661091116
0.152475536880388
0.156745218418702
0.1516734004831
0.153836533219458
0.153519270070769
0.155633167522296
0.148229376407092
0.152884631503053
0.145198506978577
0.15446587314964
0.149489039967377
0.151243337530154
0.150465401465597
0.149815033623092
0.146092822787101
0.147815321014956
0.146007290766351
0.14869848098972
0.145061212331933
0.148051828566695
0.142358046182204
0.148356767221396
0.141466506087832
0.142968302341791
0.143679451568322
0.146754467325706
0.14359450298705
0.145865845026128
0.137501704389327
0.142349883404938
0.141220615144115
0.145221962203796
0.138243991595633
0.145482196402805
0.138040709034006
0.144384924219783
0.143679911877315
0.14272482954175
0.135905315378394
0.139195188586128
0.138893109037472
0.139975874255641
0.135531464183439
0.1385423566835
0.13607179248504
0.139484617461462
0.134220877791038
0.136065860668652
0.128560872945051
0.136713470483844
0.133095411629384
0.134262861958339
0.133738676199689
0.137763197463914
0.134118219306116
0.134284215245483
0.130818981706959
0.134194813889325
0.128450152548558
0.132102806556906
0.12784418374735
0.130225352173947
0.126695595019458
0.131116307535925
0.127270489456837
0.131203887930106
0.126930753937051
0.130177028327646
0.124671717455717
0.129634957589724
0.125894876917603
0.124450192509116
0.121557083601943
0.128335511335832
0.123380928313769
0.123676853185861
0.122084154961727
0.12626608752825
0.120903941787376
0.124241564583628
0.1182882424318
0.12167344778186
0.118016665938458
0.121149680667682
0.118733818462054
0.118775815939972
0.11620550215141
0.122230841551466
0.118515002538361
0.119616682587269
0.117616336599029
0.11732552991973
0.113597829369169
0.115590596699633
0.110576719259011
0.114364377624028
0.113121074872099
0.114009810797789
0.115664853167413
0.114793321320801
0.110309875945666
0.114013632866555
0.112657841812429
0.115003685639325
0.112463742060701
0.117333996007154
0.113047988599151
0.112954815791986
0.110170189549473
0.113602561466438
0.109049507576389
0.112959963271992
0.110540616304438
0.110794558606213
0.109773652351945
0.11425938938094
0.108440318843405
0.110593871969419
0.105165716902622
0.113903604470377
0.106972513872502
0.112399865873613
0.107745922070598
0.109679363737026
0.10992051206962
0.109898955344384
0.105182071439461
0.111407255296108
0.105112759521142
0.113294776867211
0.106533765315737
0.112596165343802
0.109472063060774
0.109370552390988
0.105018159941342
0.107426038814476
0.0995166868842269
0.106060336084107
0.099825386248746
0.112533975426104
0.100434805932039
0.101666425057129
0.102474574264043
0.104651040795709
0.0938091032287476
0.102204442503944
0.10572703364811
0.103226157354735
0.095476318735283
0.107628390328024
0.100173223976698
0.0995605181426602
0.0933344691914016
0.101524001105145
0.108613550673271
0.0955489344466019
0.104466920073788
0.103246574551581
0.104209328711178
0.0969039976673021
0.102901037294863
0.0948161418154767
0.101995922702194
0.097911026425911
0.0941506575883198
0.0926476449336544
0.0987564944776341
0.0942204838324357
0.102759548354094
0.0963350483913635
0.104177307342489
0.0938503802511448
0.103120155801642
0.0906677645382296
0.0961048280985594
0.0918245946516286
0.102681710681444
0.0992838407303204
0.110386528663257
0.0941238398102659
0.0934699628273146
0.0875179609603942
0.0966164151634596
0.100795922445896
0.104298351632951
0.093755991863249
0.0920866710414724
0.106333188056316
0.0947620496212372
0.102304707895156
0.0858457561044422
0.113076776556068
0.0815599401535018
0.107077645448325
0.0843207135570344
0.111738905189347
0.0826826680124234
0.11646444194874
0.0858267149378522
0.111572117620678
0.0928628636475222
0.102118367929833
0.0926848066738201
0.099856416402473
0.0945478057654538
0.0967903042967902
0.0936324825383141
0.0968260857130286
0.0966974822153381
0.101552705263793
0.0906904237631676
0.100250042001885
0.0891910356863106
0.100601828595706
0.0920471890190639
0.0969896720566511
0.0911935713241769
0.101139449688403
0.0927315952596268
0.0972322328347198
0.0943820593765652
0.0962113970309813
0.088773917679768
0.0991499436006731
0.0920260191568329
0.0991242842329182
0.090811281248615
0.0967571568267863
0.090540836672622
0.0994773689265584
0.0929569703105239
0.0975049833615826
0.0919812472604933
0.0986534911757845
0.0899454595998176
0.097517771725606
0.0883975982262468
0.0983210757764979
0.0924200793668871
0.0977515893137531
0.0966664482376703
0.0972089355923438
0.0910316067911495
0.0975478248514809
0.0926297631501498
0.0953500419695057
0.0933209282911314
0.0974136618994241
0.0910708349745465
0.0995737928513069
0.0917198218062399
0.0983629701601181
0.0928291760849397
0.0956389850236562
0.0962305394315413
0.0981412810765371
0.0908234798603323
0.0981913669389331
0.0919202465791458
0.0997603712686727
0.0928525630910112
0.0971778767655955
0.0912878256437564
0.0985474115941818
0.0903779148527012
0.0970674936948347
0.0913334829472942
0.0981483783600549
0.0913095373061886
0.0968315985137396
0.0917773168521843
0.0979141303508999
0.0914850452621329
0.0978194423699945
0.0904109079694049
0.0958607043099104
0.0907733356843795
0.0988513455726883
0.0935407522635809
0.0954505508556701
0.0941315854890831
0.0951524437601937
0.0932223001031513
0.0946727358042355
0.0982396139531902
0.0996334436278958
0.0914008857381616
0.096341229179437
0.0941606662244983
0.100646186111115
0.0934308846866648
0.100636534547782
0.0960405485477981
0.10007918116927
0.0922887083654821
0.0958638835354329
0.0934505786205142
0.0942501232898878
0.0939951258720964
0.0978897506126096
0.0955389645188418
0.0972161028225139
0.0939929989102839
0.100596393111521
0.0958196788237234
0.0995069940961857
0.0965131173166503
0.101114809795582
0.0970744658022853
0.0998035182866056
0.0953940683746688
0.0987625404098444
0.0949363376957075
0.101499078371181
0.0968440304370981
0.101891585494998
0.0973285251153158
0.0975164629192717
0.0989321787948215
0.100545933408781
0.0987380507893872
0.102217478932167
0.0986971194168261
0.100653920378538
0.0968445372684806
0.107055374367605
0.0963782219549384
0.10011629832991
0.0973362967365704
0.100080462024482
0.100575736606787
0.100547031033693
0.0983346681845692
0.103456570961734
0.0979794405856332
0.101838865784444
0.0974893681167701
0.103511498277897
0.0988836568162112
0.101897923309999
0.0981041742791899
0.102275405113293
0.100354371852563
0.105036200777906
0.100654708798815
0.104700006023012
0.100334414891846
0.105516982836017
0.0998111910851806
0.106182909371304
0.0987648532551752
0.10682478030745
0.0990201568914843
0.104852349480554
0.099574986118756
0.104804759314124
0.104424672475481
0.107943003604132
0.102103463382273
0.106456416263112
0.101166837823195
0.105105146676474
0.101944133477313
0.107340296524955
0.107016269223591
0.105921185132957
0.103253166170738
0.106802195769144
0.101931508916176
0.10421077145713
0.102675287964545
0.10796883353384
0.103648693770382
0.10921530047458
0.103155692729032
0.106804424951666
0.103552263626576
0.107248456189357
0.102976407193144
0.10763063979719
0.101934353655757
0.105110965912877
0.100367767716469
0.103902320067088
0.102807286640101
0.105060331661965
0.101481251976928
0.105339645044862
0.10067132344524
0.102550294957074
0.101604178848893
0.10479260112073
0.100235506484621
0.104058315677881
0.10192781052194
0.104135074995703
0.0989527765358413
0.102438594977695
0.0990912568611504
0.103244946877957
0.100221542297354
0.102488454242557
0.0976629508684611
0.101057204034321
0.0984131541648752
0.100663900439456
0.100837483953814
0.103819461985364
0.0979886157577856
0.102932582673155
0.0980530322793532
0.103746031466534
0.0983892333842528
0.103127219828394
0.0978957305081344
0.102252150063502
0.0988725426679009
0.101750558865747
0.0981328987188823
0.102549004337232
0.0956536354565473
0.101788495247631
0.0953657279665952
0.0993903909455303
0.097813428149227
0.100438321698538
0.0954215457376116
0.0982102120590156
0.0961198393684403
0.0995461801621075
0.0940045490230914
0.101474326243915
0.0949707389927708
0.0997367505755726
0.0955663938225384
0.0959418029852582
0.0946109851034199
0.0991035489721766
0.0942819905604378
0.0981291457467908
0.096450969714685
0.0990550729878015
0.0964472999502783
0.097866699268953
0.093317424278863
0.0973970080265971
0.0944006646659964
0.0971271372094095
0.0941738217212969
0.0951430753693475
0.0965622174124502
0.0959472104042556
0.0925710848228304
0.0965533860592048
0.0917204627774478
0.0961220037362865
0.093567019063097
0.0969131391576519
0.0935542682315462
0.0947181829030247
0.093319716566485
0.0954288832095536
0.090847237117428
0.0956708007013674
0.0927257693190248
0.0979764620207621
0.0914430260235092
0.0958411720985581
0.0920589041520922
0.0968543963925452
0.0927504967067728
0.0929754963522737
0.0923642270042949
0.0960696775633318
0.0908106092504674
0.0910560634840212
0.0910803240013958
0.0933200730827779
0.0902220392344999
0.0897267002612401
0.0906198809097004
0.0922534064050464
0.0916017134120594
0.0944391957985539
0.092631012415833
0.0943821757606301
0.0905176215532755
0.0958602081800774
0.0878247813332286
0.0914092256269482
0.0878712537592686
0.0907498179442804
0.0884406464540494
0.0909729870601836
0.0886322429544308
0.0880547276229983
0.0837090883165349
0.0896791796635375
0.0845087934996112
0.0884352802389008
0.0823524430820291
0.08998244667204
0.0859353149874858
0.0870557152369198
0.0811998250128739
0.0875400891431156
0.0813498973104911
0.0863270089151325
0.081651270809185
0.0848887424088529
0.0804553792924332
0.0825945786905942
0.0832926775945664
0.0851797849715292
0.0826559654010155
0.0831670963422365
0.0794323851914175
0.0803762314156993
0.0766239354049261
0.0807303453770813
0.0791184588384845
0.0799885593246248
0.0766941811715436
0.0786198936403783
0.0764125057272794
0.0800175558378251
0.0757405982463288
0.0779810582603273
0.0748268827516243
0.0760742557947418
0.0729611683499971
0.0765122338760402
0.0753501304780973
0.0765617107547613
0.0745313842685943
0.0761371474916548
0.0740982351648123
0.073469836938788
0.0738512842094812
0.0746396012815587
0.0724505066927001
0.0785848983742722
0.0817504271016804
0.0743909550735287
0.0724582614862672
0.0760723991970453
0.0746936538417512
0.0729122937226562
0.0719468545800048
0.0736715043810873
0.0691171817679912
0.0755346156380222
0.0706314095700227
0.073575396195511
0.0697207066636905
0.0722674632224777
0.0702953398881061
0.0741299526198869
0.0717905535505779
0.0732886538732774
0.0701635089452443
0.0719385825373711
0.069821182589463
0.0726821631659381
0.0704135279202614
0.0677272082543799
0.0703968424200553
0.072688516968579
0.0740406997824874
0.0751300458444181
0.070464365564592
0.071771161802866
0.067470507616182
0.0732736163711591
0.0675066614060774
0.0735816475442154
0.0679402480507851
0.0698803896860866
0.0685887063933557
0.0718241283166325
0.0673463683931402
0.0712642605825221
0.0701261309839765
0.0702256080402724
0.0647271704117149
0.0715978642184442
0.0683313841185467
0.0692578125304509
0.0667605970862364
0.0727136443446918
0.0644198186001627
0.0751542459015029
0.0631244179879246
0.070517509310435
0.0654337038516861
0.0800729415915515
0.0706218628219167
0.0693627897980602
0.0671038064934092
0.0665234336268432
0.0669085967108436
0.0678516925984907
0.0654023756141986
0.0662422081993601
0.0655491942739192
0.068669378563783
0.0642988108929149
0.0658548741083013
0.0671326588978168
0.0663389667727952
0.066398501110812
0.0689881490092006
0.0666956933149338
0.0687162833528966
0.0654616592855638
0.0661343283362851
0.0741551921104111
0.0729159379765682
0.0628965789048289
0.0681024313777764
0.0695973709162429
0.0723086916624971
0.0748413024126552
0.0645813467315072
0.070087903299892
0.0634862683254571
0.0694492822025757
0.0657245680665044
0.0635613876450529
0.0636752498543568
0.0690698374314779
0.06634465137746
0.0658445555618592
0.0684878009911858
0.064133739714174
0.0662641268599152
0.0639506736567532
0.0646957837754178
0.0643222919864488
0.0634229509613151
0.0615234951139948
0.0636613034498582
0.0638909389494601
0.0644230033792933
0.063627097911452
0.0662406071381127
0.0681641951355018
0.0644187930948194
0.061976618872978
0.0620708527165948
0.0632309570122875
0.066407442253865
0.0696777221455936
0.0662876556912616
0.0589286681320414
0.0655042693300302
0.0619730905692429
0.0663635838087436
0.059502774565082
0.065592881547342
0.0607049752898655
0.0651856881451842
0.062023389130674
0.0649763613814364
0.0617879883512651
0.0647729504421223
0.0630506840612085
0.0650656537433818
0.0617252597565697
0.064123325922572
0.0634894677096521
0.0632273660512042
0.063109073204434
0.0704645853682795
0.0794245768012984
0.0723799227747655
0.0657392003936982
0.067022444459789
0.0659824653683645
0.0647836918900931
0.0602993383266127
0.0648677420391293
0.0641680441117601
0.0662351624409793
0.0641190397218718
0.0633133847523023
0.0620019232570546
0.0645321565050623
0.0618470531132602
0.0647592209625579
0.0595542579181848
0.0664160741398841
0.0604258741452919
0.0657130839560501
0.0583707779539746
0.0683919960452462
0.0614592136901484
0.0753700689557303
0.0586441083625131
0.0727306442715472
0.0579409965243159
0.0863117424742784
0.0631378010930251
0.0669586065239251
0.0625318044408308
0.0634821059690687
0.0628522850790911
0.0656022112072596
0.0653234265387741
0.0660828438247508
0.0596893170466822
0.0641599073951294
0.0640600016137846
0.0628321452483964
0.0638677326885821
0.0777790473730456
0.0814000814742149
0.0788734298687738
0.0609349042812389
0.064844886592109
0.0695712890119697
0.0799957073774673
0.0688177590735012
0.0603209582349973
0.0686262748648263
0.0640800717525624
0.0654990872226916
0.0614259847416542
0.0670306398551545
0.0677809227221626
0.0678746569218666
0.0654941853935297
0.063589574483479
0.0664837476518561
0.0639279443444399
0.0685622304967874
0.0680700802334351
0.0754603465234886
0.0681883407790602
0.0672908447299321
0.0726993013154764
0.0676380432865617
0.065795322291171
0.0653767529309199
0.0688608765979295
0.0745235930943154
0.0729779975867721
0.074329185932932
0.0737934474280445
0.0781285763388702
0.0712917378910583
0.0661107826537355
0.0789765671302037
0.0690989489181894
0.0719736191664515
0.0696947309144571
0.0847605447719711
0.0897166910681061
0.0726257302843045
0.0818171879116294
0.0645755807905095
0.0789897468209585
0.0622503488073764
0.0820117465012381
0.0700409618746707
0.0880588399928115
0.0612260726554093
0.0799080530419647
0.0626745305507164
0.0855716790093491
0.070766885012353
0.0749987230680757
0.0700852522273695
0.0784495154628384
0.078576349956711
0.077467889238636
0.0735444366697648
0.0817465077244913
0.0941837066351535
0.0897429831384453
0.081536954032001
0.0823831827258553
0.0740648146624048
0.0943599044306917
0.0716033198109795
0.0825193539009484
0.0728398125972783
0.0806239536426946
0.0843954687768688
0.0954307065220368
0.08544768853197
0.077421955963025
0.0773014559411555
0.0917824130180534
0.0866328466912822
0.0951049464058142
0.0762418740823522
0.0903039158702696
0.0781161403517702
0.0989236882979783
0.0940538041853017
0.111743270001758
0.0864420366678194
0.103331409195033
0.102075049602094
0.0966161425115652
0.0948036612956016
0.093343961238864
0.101156539030409
0.107541604460794
0.0941793259312938
0.0924464495613554
0.100102502568691
0.107064242467114
0.108881253452535
0.0935125852105479
0.103407233516686
0.100448637787907
0.122271664802959
0.140248609981409
0.119521483811056
0.106717118906721
0.114651457959473
0.118511706995873
0.122506745635716
0.110572032235243
0.11442507026589
0.112665286960826
0.110852200042031
0.120021870565186
0.116181467745924
0.123595881608479
0.12190567195489
0.123163553248773
0.123414861589815
0.140812818494596
0.15681403118603
0.13822321883275
0.149087698224735
0.124979573433481
0.152987965277726
0.136784954545058
0.135466868474458
0.136670047653975
0.141668460382525
0.143460966898999
0.137571399152045
0.147656418947686
0.14387497604152
0.156805381730115
0.167771720555939
0.151915748562828
0.163159313873745
0.13636664483903
0.191829025015613
0.15864823580819
0.207050926219803
0.153503555650582
0.178346136123749
0.173496458859641
0.193860616010695
0.190520127632805
0.17612051697149
0.181041011766411
0.180516911956542
0.183714684282906
0.193764134105578
0.194426575813657
0.204924376317659
0.192322229816609
0.201681082263748
0.204644567785026
0.257090607553052
0.248154687984939
0.221334150765382
0.223672733071122
0.230948592142123
0.233351854615017
0.235838407987965
0.236676319450421
0.233485109227776
0.261205858981727
0.264128255777038
0.271980914668026
0.241327105286482
0.281295925808574
0.256671843470993
0.297237382581548
0.267589828126993
0.313156429269016
0.283263775874221
0.295262530555073
0.299484270316043
0.295349705174153
0.310720385661625
0.306588986823775
0.331653747378412
0.320968189591165
0.317959669093005
0.322851351886049
0.329667458755693
0.345492058880298
0.332380991723429
0.349057394801756
0.336708090601551
0.400032095501193
0.388142481390468
0.378229754173287
0.359187696480701
0.348788988954591
0.370053886403461
0.359804062827671
0.374517686805413
0.385731261500706
0.374290229775463
0.366385681009266
0.35742537418574
0.372020323982093
0.357514666769907
0.371712026116462
0.34589579722965
0.370673055577067
0.364276381979065
0.379074469148027
0.390248873598386
0.406347387817688
0.379558353079056
0.348825914820859
0.3607437117599
0.360030496883783
0.360485163572731
0.354001425118498
0.38033099585575
0.354542800801812
0.363043874037011
0.339524682968104
0.357072719200127
0.354697147883801
0.361266425428491
0.345750712563829
0.325807715662671
0.329772207445046
0.323335432508457
0.318810206271951
0.34699404881165
0.326405566008615
0.325339119370287
0.302126672586117
0.308361197860094
0.292339272366599
0.295263594273
0.294026223340928
0.302419738333507
0.283059721219816
0.293303972487938
0.283615687693983
0.28516918083681
0.274471557940771
0.27836754691537
0.274596568007919
0.274178858633102
0.267666180990903
0.266383929788654
0.261789711040009
0.259056808905011
0.260564848201932
0.25868652666149
0.252325356920503
0.260394550290642
0.255035908970147
0.252422252838897
0.249162634364518
0.250196297239425
0.254563191943991
0.247360659954742
0.235139849793115
0.238243426097811
0.242700288390223
0.239179384772205
0.235485506294045
0.234213156104645
0.236170313582505
0.226083305168465
0.230314445801181
0.224876402377659
0.234534467477658
0.217798372653094
0.238671487219478
0.245846266849095
0.240510694373
0.236387176135201
0.216496097497429
0.236427494762099
0.207370633289897
0.231212468831428
0.23758836280332
0.237139259132045
0.21902890461438
0.216064877278592
0.209549402954781
0.225377619102413
0.207273388370786
0.221664707547076
0.196516490909349
0.210876481439156
0.211482639055523
0.227590146299349
0.27091228461174
0.232484660542768
0.220668983133586
0.190331204264278
0.233353412615888
0.199264251161899
0.210763273544414
0.182448576150826
0.197022527296186
0.202737134309897
0.206611937040926
0.197316186594308
0.181841394015307
0.187838657617581
0.210233582188221
0.211072613336767
0.201376680913249
0.20862358257959
0.196845460308976
0.206553916543789
0.206802338428245
0.239439174075064
0.196228052439363
0.186873309132542
0.178442601819668
0.177450514236847
0.197618889133487
0.190689473199856
0.197811143321638
0.185100084115221
0.174729224807758
0.179738343280698
0.177907517885619
0.198371202941642
0.164149650922612
0.208226365152716
0.182780937138075
0.192043603092217
0.17618601942136
0.193794628907664
0.209853573649287
0.211569483955058
0.184796705379331
0.174386841248093
0.212137252438556
0.196667015973449
0.197583709654109
0.185313773927122
0.177504790337928
0.195236468121868
0.18318842780102
0.184094465380326
0.192589686746945
0.196622334370144
0.220550715725646
0.20566490637281
0.240990002074341
0.215384435952396
0.190711311307392
0.188456111976307
0.183791423125063
0.19581889957904
0.185719075721652
0.192191671959131
0.221239265693989
0.191698743366999
0.215511272890606
0.201124714108341
0.216598649151942
0.204768673852273
0.206414049595532
0.207263556105245
0.212233102439436
0.231114873646926
0.249827038858515
0.220488971495488
0.247389431444203
0.230128162701657
0.247773628138237
0.228001690868743
0.248289072147544
0.236030544513954
0.255711338624561
0.25662232414018
0.264779443822583
0.261592668673623
0.270594245589738
0.26322542729155
0.316765890913589
0.284395039103198
0.310202769478087
0.30530543638071
0.335469459605118
0.342775290972819
0.33449488035189
0.335526504303466
0.3313474354695
0.349926077098078
0.356880561705589
0.345427862010154
0.380037163283132
0.377997356240404
0.393392003524231
0.382124049750013
0.394369052790327
0.385440845006671
0.407253794505186
0.420597605419409
0.411500596823636
0.465762261727328
0.421848386052416
0.454657942501851
0.41762381004144
0.42573401939681
0.422033822954022
0.434506184142339
0.433822387095666
0.42479867988263
0.448356536590628
0.453905550195617
0.439915636198883
0.438926649676962
0.435051846822234
0.444987235071193
0.434493222966412
0.446725751575114
0.448061578761343
0.452110911004635
0.466020988997836
0.443564869224779
0.473662660603981
0.500456948085023
0.477381718459018
0.471276224393877
0.46510878301661
0.491673668527059
0.470118861387409
0.486285653645589
0.501436930437724
0.496633648398248
0.488994130296522
0.490357612842358
0.495904917914864
0.489879774877596
0.507435398106445
0.515097895037137
0.507664792097129
0.517284154803615
0.490449212002688
0.577015747979171
0.517294561454168
0.550204769884215
0.514291240581049
0.535659337757855
0.512204585313969
0.523529212879025
0.515133285186091
0.532245364668756
0.51920873157993
0.519761668222398
0.522661248462481
0.525558662431934
0.516348143945805
0.512890149803292
0.51289081353592
0.525988650162893
0.512459526604802
0.507764549720995
0.50899599127286
0.507186521916728
0.501194607275765
0.515152035372401
0.498388606170837
0.505123054351427
0.486440975160929
0.503484917018023
0.510291915544367
0.501222193371983
0.4908268117122
0.496907332178418
0.482406702090181
0.505415075288975
0.478290627053988
0.506794431538873
0.51313341237727
0.516984933914449
0.495770691280447
0.517402265603674
0.507983693681469
0.518214585688538
0.514984349310892
0.525159350976959
0.524214191728295
0.533002796914909
0.53084254780877
0.540953129195576
0.541848760351499
0.551719397105513
0.568662493307057
0.570056311680685
0.554289561243095
0.559021861207185
0.551595908894018
0.556652180014465
0.557083219382287
0.567068497087977
0.553759410709794
0.567432498917476
0.546740413294887
0.570726151972101
0.563968877813083
0.552727956472291
0.561001484516883
0.548317494126187
0.545283084294271
0.546323952859182
0.552161368518147
0.539696446639917
0.538789956727466
0.541300086095023
0.53520540369087
0.537462539724567
0.532987228597787
0.534522643641434
0.532680363496654
0.531882014250547
0.530818557261754
0.533093551538312
0.524377185165468
0.530072403097258
0.523722795594041
0.527358261378635
0.513873835159097
0.521776342274407
0.535467626887148
0.529627938049732
0.538569154821495
0.524765324073155
0.535059813318443
0.520473105731204
0.524262415899152
0.514720394431061
0.519234242751658
0.518564600399729
0.517898150913226
0.513577998494009
0.515381463215768
0.508335889521351
0.507067715285301
0.506739713639886
0.504866317348128
0.503177273229671
0.498079652972063
0.495129126770859
0.491579196342235
0.49783159077318
0.482755513509525
0.493543202969756
0.484276194976476
0.493525617589788
0.483747600857166
0.482474025530251
0.474079428623284
0.477911564748649
0.478309060361815
0.473358668886394
0.476655658925655
0.474610275253021
0.47147680836624
0.467276425448735
0.469495116226732
0.472642851154119
0.467440114602943
0.464601220565136
0.466013385098531
0.463321426710981
0.456675749645227
0.458749355776526
0.454231795902151
0.454661656476634
0.445498642438395
0.447130547526529
0.440351409789278
0.44223421676738
0.435572105966608
0.430569329354132
0.428641403888059
0.424962720595425
0.415686804968671
0.418682651746997
0.415700956599889
0.420021370851865
0.412170548966226
0.413259161166363
0.408773680096143
0.411624374111976
0.411511388863829
0.405305015335012
0.401869646319965
0.409818364939123
0.403053019540494
0.408779068716435
0.397903905866746
0.406196344812916
0.404103430546246
0.409026706059494
0.406260373689432
0.410460344818641
0.403639026724906
0.409741426544147
0.408497740324292
0.410390999720288
0.417513044576511
0.417758576552858
0.415217028747301
0.421452213343864
0.42027600117227
0.422562040829126
0.421458054992164
0.42271089215286
0.426925710292569
0.424160655120272
0.426079989372649
0.42473086897611
0.425442859703571
0.428381004446886
0.426177167388556
0.430539843744551
0.431438347289994
0.427813180933953
0.42017840187736
0.421959843257355
0.422498220734769
0.422908582073626
0.41837307340081
0.425259784913198
0.422631381058632
0.420977595111756
0.42158462135754
0.418609505434556
0.418235468750621
0.417091776142792
0.416119089894283
0.421489535901959
0.415686168118794
0.41541260362522
0.41024940367827
0.413777134753625
0.411416853972313
0.412318966940267
0.408994501807694
0.404998652527016
0.403143354891618
0.40194297361522
0.398157885334411
0.40260302830787
0.395719718142601
0.396387713120032
0.391385862153627
0.388239867784592
0.384525146649173
0.384364655846274
0.379384546468347
0.375159681136603
0.373982391763048
0.371249776697978
0.36643757052944
0.366539935604683
0.36671279511617
0.363066536984087
0.362877038086686
0.36087490107636
0.362868876641262
0.357633398828615
0.360530807616294
0.360949213385343
0.361348032180925
0.362523072247329
0.356538186296468
0.362097697511844
0.359987772205128
0.358627193032138
0.363360640411972
0.361778002192441
0.359082016144763
0.357758869071037
0.359030179290992
0.353353133859741
0.349550307651902
0.347072382353957
0.338902564492006
0.33564186922409
0.331753260380828
0.326265018659213
0.320266199018993
0.314674237003412
0.310820374874876
0.307559234796469
0.305805034776845
0.300830443934483
0.298032620963127
0.299155709848588
0.298624262062133
0.299430113508394
0.300162038929908
0.30381023419024
0.307772821097964
0.315728707536649
0.316368568389288
0.330019055881596
0.337051180126912
0.348373797873386
0.358753013475388
0.369846015606323
0.383016488382239
0.400241107400737
0.4151401837883
0.431312665857319
0.447902757340008
0.469233859145146
0.485879594640089
0.514413075971548
0.531084782475177
0.566925867703307
0.584580305540301
0.609455166079887
0.639997604703783
0.665746773179433
0.692938530603441
0.72187599544267
0.741088585884762
0.774083808643712
0.787849601519383
0.812390766640795
0.83338897321937
0.851700500965281
0.870894989428869
0.88219300022626
0.889517078696182
0.904323255392946
0.896803429029198
0.909379605921474
0.89811627842898
0.900913897717032
0.884888981301751
0.886303295321651
0.869212349704542
0.872826386547509
0.858658824289553
0.850727815803707
0.841304093612776
0.830983436639825
0.818479236218451
0.820427374138107
0.808100746491712
0.801654039042979
0.801752084768516
0.802107979840099
0.803337705458632
0.806515213617425
0.790508732889457
0.811667980658323
0.815401688544386
0.818580020095632
0.819326282303571
0.832846136443851
0.841505751579158
0.846617304334717
0.870880374485098
0.867689484346764
0.867403005416567
0.883284318606614
0.887836858935323
0.904580031677536
0.906310322416443
0.898626324344628
0.905723829592982
0.912196706367991
0.917546867290969
0.924626904183936
0.936589585961946
0.936698975296617
0.954604844301348
0.949574290034536
0.950910293107152
0.942141702921206
0.970532386894167
0.968113553108597
0.97006312625171
0.975354426653982
0.981782167394939
0.995511215036645
0.997030696242179
0.987258677627855
0.994043577866474
1.00171343413141
0.997955560070031
0.999129982155403
1.00108450146928
1.03530922991803
1.03537788041714
1.03107318268541
1.05507642267623
1.05934654631959
1.08053101647208
1.08819685150251
1.129074746562
1.14271843776761
1.17575551112574
1.22142121348038
1.24754261293434
1.26487287747814
1.27848235313728
1.35208740628455
1.36444085236252
1.36737710884364
1.38327733652928
1.42664646335241
1.47021517194042
1.44590983074423
1.44566620610581
1.460359476881
1.45640153058774
1.44202174584933
1.42730331633218
1.45893357289398
1.37475249421257
1.36366470260375
1.38886227684891
1.40465753333539
1.38201441779336
1.35529475116689
1.3713086117128
1.3409643968895
1.39055587805262
1.41452591478395
1.39053100921637
1.43502298423636
1.43803811970359
1.41347329393664
1.49226929533511
1.45754531627642
1.52165723351007
1.6171082646047
1.58916594142694
1.51511841405012
1.61644254064281
1.63224278631566
1.63016977233973
1.62592362532683
1.63777952468946
1.58075243970386
1.73555340607531
1.77120245386203
1.77810848073698
1.73249695294477
1.74791495497499
1.76772657702927
1.93173886675079
1.87603442257372
1.82535756199734
1.86659272305891
1.88404111001309
2.13810007452157
2.07023838744877
1.97155144515606
2.2391697977452
1.92414707632353
2.15448139961096
2.30454705265553
2.15036409877276
2.19391139387169
2.31705591115336
2.10195725284491
2.33496967200528
2.15937060080736
2.33146613242571
2.33738459689899
2.26494684247361
2.22269489731755
2.13593127825587
1.96293523980542
2.15711292386319
2.27578218348739
2.19947916630709
2.2996422705741
2.28932238367841
2.08777883984116
2.17345147203395
2.00235312960905
2.21907508074769
2.01762041115174
2.13227496800474
1.80678457720939
2.11786486916372
1.89350986968287
1.92099291515263
1.80011608299876
1.86767011000998
1.95619674116859
1.91330676929223
1.74786208130381
1.82962189096446
1.80009551913293
1.74332862533495
1.71539773876047
1.76769103460074
1.60840869149325
1.6656612652952
1.61069160052074
1.6348215029939
1.55557357821985
1.7110063804285
1.49977948808156
1.50260240328488
1.46361823170672
1.36955740250896
1.36578018870799
1.33087594659094
1.24866475013129
1.28077698258239
1.20557363186705
1.15935678105989
1.10496127522701
1.06862571901172
0.985828453156911
0.946652075630776
0.897338247645136
0.849472759347616
0.7994466462258
0.76812474913115
0.726763394403074
0.703928170808827
0.667650119247218
0.640563291315051
0.621145312530156
0.600326813992592
0.575053479234322
0.561715297982788
0.551035920048776
0.534989147428012
0.52613309095463
0.514761948368355
0.510215831900746
0.503376385275313
0.492364445405452
0.489690512352091
0.494482329257161
0.47863979263831
0.471908708240405
0.479962899018872
0.472135588168228
0.473371855711751
0.469430543975026
0.486126726990559
0.488009850613416
0.486725994314704
0.493088351139373
0.506027086016678
0.506448176626327
0.515455574858936
0.529629052140389
0.526565383492029
0.53156078391582
0.540378234573846
0.5459321234228
0.549547474515039
0.542787344355859
0.558292749439248
0.555808392181652
0.562541552341976
0.560367556475049
0.563271103775721
0.573428099251948
0.569781697324952
0.56065248295852
0.565158705209357
0.574612514880646
0.579014500337145
0.564682590706159
0.566433249031882
0.570656468963953
0.562472638306244
0.560300921477321
0.566119422672811
0.557995383151595
0.549762101950365
0.548253756443904
0.545854297188499
0.535081723521043
0.540955178688363
0.53245673520157
0.533657231713393
0.530840198298884
0.522715157334477
0.525162232227564
0.5246987363111
0.513651330467188
0.51456091836349
0.512916996928937
0.516619470880913
0.509577446895012
0.511729758498976
0.516795587346216
0.516747369977158
0.519333474050697
0.532219484416278
0.530225337855572
0.525359983722615
0.541038415157317
0.543589047217168
0.542769152210374
0.550416166191361
0.540139331117288
0.553212297608073
0.542298002555385
0.545602946677983
0.545233413515867
0.527387475708024
0.527134753948354
0.508750354364334
0.50716218357112
0.497966272275405
0.482030232860562
0.482192858328754
0.479163740370863
0.47651688268037
0.476354845645504
0.478243050165243
0.478122586931394
0.472328738495434
0.484365980741631
0.48376698493387
0.476138554809297
0.482126076730838
0.479682254108311
0.487287386472704
0.487201737472963
0.499179772268612
0.49213738681058
0.497702821373898
0.495776199674905
0.512636447150007
0.494806854603645
0.505555333753941
0.508043022171682
0.510905210907649
0.501541806358921
0.510702057060741
0.510465358598644
0.500867879583337
0.509399036272408
0.50936768027175
0.521039610183234
0.515362733903525
0.500758565665258
0.52179778030281
0.519585361833387
0.511737412473765
0.517664202483805
0.527266541272968
0.523395292644754
0.521357623884539
0.500015728340052
0.504163441943994
0.520851829710399
0.50366252376149
0.502614786188987
0.510070919441005
0.498698760511369
0.496486731447335
0.48386006192879
0.498382223482175
0.494322127759352
0.500123087231391
0.483194074975355
0.463001519412635
0.459214675987792
0.469284328948966
0.464340285707879
0.462076796814764
0.455682911135001
0.460030640477611
0.43875150799064
0.448536562904385
0.45585122229944
0.45085274037738
0.452561855168237
0.455249339686588
0.439950949214379
0.451838400163883
0.444648955233634
0.454096132312043
0.447565469275307
0.452532225841166
0.449868779585029
0.449691761694671
0.454996386078764
0.458084084084526
0.462519667252072
0.463261921561904
0.449209112023533
0.450326354111696
0.459296152991028
0.462406098679295
0.468067223848365
0.486636025615564
0.484833571547449
0.49565156956007
0.502886496470237
0.490061431104768
0.490493997518048
0.526176250942058
0.520864762622381
0.538187694619046
0.512538368455559
0.537393400121706
0.537110599507095
0.547455416103835
0.565258168809335
0.548583641904142
0.542284559681925
0.577417479238375
0.597280907314403
0.617169917951385
0.594263468681457
0.651145920249705
0.592285524000722
0.617771526958111
0.646108666055545
0.659190886882837
0.667741024908088
0.65130220490959
0.654453786804204
0.648087050602518
0.663407165989057
0.697359625070502
0.653493983788913
0.654374131852781
0.647915073030218
0.694956389713879
0.680131212439217
0.711693213263493
0.677651406680822
0.673851392768445
0.698737571594166
0.706173259363095
0.702911250574616
0.672675033235286
0.682974605786419
0.762935583189626
0.713036832697021
0.756643129892167
0.754577840923325
0.697335680901027
0.711567813465679
0.705887165627783
0.72064480307187
0.738862084308359
0.708979942803497
0.758662600236986
0.714528663133471
0.701401208995665
0.667074267709154
0.696856636669705
0.674679552469692
0.712017370969401
0.691063825710449
0.719322653128854
0.668971913363319
0.695879504876141
0.689336630463261
0.744765594943345
0.671802926557894
0.68573626279423
0.656721489117765
0.670157297934517
0.700359882134871
0.704777469900405
0.661816683697567
0.656952191508753
0.693319761301683
0.715842954405722
0.65232733062566
0.681496439703542
0.673518839303521
0.675359417592989
0.692405280140131
0.671366987200758
0.641397238109792
0.669927459388421
0.682569547110352
0.69205502642927
0.698221094715898
0.752231081294395
0.712860221162069
0.75291209838765
0.757427391892814
0.781783216418619
0.759199010396192
0.749383011047431
0.697872595412138
0.821252435833187
0.815633786571696
0.729875026905467
0.764644191995058
0.719646506481756
0.699834388491189
0.791899903540286
0.810011697947907
0.878989325239218
0.75022123011063
0.810006166543957
0.959545107326674
1.0079420468681
0.862301325843126
0.90506116659965
0.745591885418042
0.921372040859363
0.946542080328764
0.886870870938079
0.820647069672361
0.888460826582753
0.811157873157351
0.889360015175967
0.832025732095799
1.00123458401111
1.01639967871829
0.86203926528816
0.887513984546349
0.963879575233242
0.776854645806404
0.954810259147137
0.838262572160804
0.861172359452865
0.71862106822911
0.809940779103366
0.826631871173626
0.850694256448861
0.869053704439528
0.778886365776069
0.764161151288878
0.867132016267947
0.689870282064029
0.829552736007582
0.943483388020488
1.09291275783444
0.764419344100618
0.796230160113697
0.85402339202362
1.00898182189976
0.968570483919814
1.17896650416164
0.899007711726286
1.07044419625601
0.61817505645231
1.13470403661131
2.70139038117847
2.11771647551936
0.824197476191006
0.727889021700975
2.07123013374465
0.692995832084203
0.553424024999007
1.0984942720462
1.06137862445077
1.23586850357955
0.746967572802792
0.551224756319918
0.432294174708609
0.743470558008522
1.12629617965512
5
1.25568973109098
0.570786513904159
0.904671632872937
