3596
4000.36533379555
650.420452594757
1
2
2
0.0773472476096706
0.0668675510766139
0.0690644738568301
0.080864726512997
0.066236045367492
0.0757256501696224
0.0729554780174495
0.0727782467495502
0.0737801255308959
0.073734453393333
0.0642077569500676
0.0762168823208558
0.0667830390763444
0.0676842770445463
0.0714054656712045
0.0810178012782421
0.0721662088197171
0.0674797154724929
0.0629573080915468
0.0672024194256996
0.0687332355737882
0.0696334097392862
0.0629901890683624
0.0717058079679147
0.0624443436212694
0.0674401843259396
0.062064261017068
0.0680335905827745
0.0734359521572638
0.0734601040843152
0.0648684009567512
0.0751311630272192
0.065984203520071
0.0719520006461086
0.0700736581560982
0.074964515599422
0.0812325491572949
0.0774970182308779
0.0743934220850988
0.0735114055223613
0.0714420974922734
0.0709005256539386
0.0645055776514041
0.0744136399035277
0.0657745715079821
0.0724069178406536
0.066951095828501
0.0677922595658491
0.0691486310754078
0.0710812063531692
0.0682458043271179
0.0739840912812403
0.062805882234359
0.0739428246426944
0.0747147290982983
0.0796346662951819
0.0702560138401121
0.0724998260825615
0.0600365113696768
0.0640217092001086
0.0717557409904739
0.0842515521154947
0.0719895809924016
0.0754855118468305
0.0623388342939225
0.0644395141323381
0.0680132204917529
0.0726483457642937
0.0663081092630737
0.0692015690108587
0.0710492880781005
0.0704767214723184
0.0851133865593558
0.0670442871914716
0.0728270464175395
0.0718731467022932
0.0664395430982669
0.0743885917890477
0.063631984623802
0.0719292161164861
0.0806130651865023
0.0756139576912515
0.0656980715163485
0.060029378958664
0.0649824942770134
0.0797429811597846
0.0662130074287473
0.0674304431112812
0.0903469429799796
0.0682196441316057
0.0618327453455937
0.0695512431283264
0.0544243677424259
0.0547332742239554
0.0622959576578173
0.0669212366348745
0.068235192568638
0.075317597255889
0.069141679505845
0.0642968308829655
0.0648141206275702
0.0774562840394648
0.0861428799037671
0.0776070284773845
0.0702333757812012
0.0876150786108619
0.0538248481591445
0.097618106411707
0.0786922344477859
0.0715687007476719
0.0621982828752389
0.0571483359133851
0.0641173570657013
0.0619008169051934
0.0693188718471521
0.0830265584388695
0.0949424577132681
0.0710346791347332
0.0678053318487855
0.0616913430740847
0.0563510688965398
0.0728562976292713
0.088721766754645
0.0670751515226107
0.0674879067718423
0.0661538366935754
0.062838614078624
0.0947393400709989
0.0746933643615806
0.0615724947450045
0.0587466156903276
0.0630946564759016
0.0575789624020312
0.0609195367773496
0.0749030024480876
0.0774342375343524
0.0529586732522296
0.0683190626318907
0.0809967402419428
0.106454795389109
0.0731153127204627
0.0691646575910873
0.0551581070910264
0.0678756127353018
0.0952549922464312
0.0788384905460412
0.0608812610889775
0.0797447951647655
0.0671800742900117
0.058492921363783
0.0573269002558381
0.0627665654651766
0.0782132079147665
0.066873667770569
0.0498015045139421
0.055918416014537
0.0971711030254086
0.0830369439072327
0.0832941130202595
0.0790641398703186
0.0548475846291809
0.0714948957892778
0.0516707850632549
0.0707544774211682
0.0516301105046313
0.0657806689184432
0.0700702783504542
0.0874739683622802
0.0597030941763002
0.0751604417708042
0.0786030609318067
0.0745957638381427
0.058777731307486
0.0986256922011454
0.0793433875525872
0.0647106723169325
0.0816109860141392
0.0767080887775464
0.0604968114723264
0.0825524492441633
0.068025075192397
0.0643122125427766
0.0531890225621548
0.0690682697984793
0.0619174821206134
0.0812440488476766
0.0695680477573082
0.0754533723972418
0.0606784437373633
0.0617828021748061
0.0622277646997623
0.102972630381881
0.0707227768099932
0.0739233474661956
0.050387398957807
0.0682620955425127
0.0814089617407513
0.0961800443014822
0.0591439606269585
0.0668966792061839
0.0604672808701803
0.0677242277939993
0.0576864728929397
0.069356283008081
0.0549240764509365
0.0702604696846012
0.0741573591565888
0.0897345145010112
0.0502783705803115
0.0688388975016248
0.0505145558906447
0.0758914661567812
0.0757562143883018
0.0932022842664433
0.0615697647846769
0.0674036494263889
0.0564797958311281
0.0875721842085251
0.0752408426497133
0.068051748260804
0.0590702187921996
0.0694870295020944
0.0597397039092206
0.0701973269997339
0.0608569067851784
0.070068555599167
0.0561063139636786
0.0689851376214778
0.0608388155941015
0.0744502521899815
0.067142981611088
0.069050748107337
0.0587230706750665
0.0649592413004227
0.0547677252945558
0.0776884500186436
0.0784357946104556
0.0749562060377248
0.0610470702189753
0.0707230482154274
0.0592974756012902
0.0692191774411522
0.0565873793155233
0.0663579480105569
0.0446238117449228
0.0771144821908159
0.073058758049205
0.086306927909475
0.0519272457351901
0.071892180223452
0.0675860893376225
0.0859866557940634
0.0584922123064613
0.0669970627097073
0.0579697262009086
0.070261564766468
0.0596307810379381
0.0928127409326289
0.071172324947933
0.0680752531030601
0.0611491524822462
0.0723952701666746
0.0616045229216712
0.057039452315676
0.0647617345337924
0.110038558876388
0.0740858504155773
0.0735471025431278
0.0981515687780206
0.0951322682961096
0.0635218778618958
0.0640046601614029
0.0557229105579214
0.111176469866211
0.0953230515176991
0.0721973208833476
0.0723850133570606
0.0824541555195081
0.0730500228132115
0.0734990470949949
0.0630756128933906
0.0887468703541826
0.085811197678416
0.124724423772162
0.0820258402225305
0.0909419541704641
0.0704654198948222
0.0918375157345005
0.0558141996994042
0.0764242016778038
0.0607735211773216
0.0754029877581464
0.0716915320768155
0.090829607953251
0.0787840907635807
0.0689993449636786
0.0786861253045779
0.0974118502138647
0.0806395271069596
0.0682954461594601
0.0748175434905783
0.0803794862187094
0.0753570942846371
0.0661335204484467
0.0708129730420594
0.0784333597264028
0.0688640373443885
0.0934972040780953
0.10237724700981
0.0856053464173335
0.077615642835239
0.0905965563948523
0.0715366534932353
0.0695367446275281
0.0741947236120529
0.0786319463308094
0.0780218015499904
0.0726348518113569
0.078377480275847
0.0959907982345272
0.0814126736841843
0.0794057081982841
0.0752156428028817
0.0790852323322694
0.0745952336092968
0.0824553360657588
0.0794558564752661
0.0817142509772422
0.0721372723735735
0.0754404139056882
0.104521259704028
0.0999106675146032
0.073532180809678
0.111368521219503
0.104639869909896
0.0908572367945573
0.0694493371275118
0.0898661512235344
0.0767417668584951
0.0957128989632768
0.0883622085690099
0.0937326883823825
0.0846211621566466
0.108331366726471
0.0946522890278515
0.0996227975516749
0.0954156731846893
0.152969029240014
0.113132274755495
0.122069159824583
0.0907762926588194
0.103206774850746
0.118900901567145
0.126915784351717
0.122467221496457
0.119191869934453
0.1088846291318
0.105589777034659
0.116795597599848
0.113299569683613
0.111216762142594
0.119556872033957
0.116041472154552
0.116628624276329
0.118678171676303
0.126573538348919
0.109908173505452
0.133338128537694
0.14610903455263
0.13911190517177
0.122864962087046
0.129571767693015
0.122863299074375
0.144464965997213
0.149836131471045
0.179462108742248
0.14605405507282
0.192384770881983
0.157654575081988
0.172277486939216
0.135702431822386
0.15398982810157
0.151972469381134
0.169482819231259
0.153597457981055
0.1675113991389
0.146420937810141
0.177216294343881
0.155043011909155
0.181981351071391
0.170825755328995
0.198752540940456
0.172562930610294
0.194901602923833
0.173751806144477
0.196812990814178
0.193063086707331
0.253356660084433
0.20654061866195
0.204312562526084
0.193729637601412
0.196919704840605
0.209969185213116
0.207595923807831
0.209150674266193
0.208901679748173
0.212779331553968
0.248208564816432
0.223381605664551
0.246439171777897
0.225181324356081
0.243802071575941
0.244960428343447
0.251424242551239
0.245994639812097
0.261763640632112
0.240463936322705
0.246292443076538
0.254326417950245
0.257571097734711
0.265810368930211
0.263560210223788
0.249353857382171
0.25314154454218
0.276545376263946
0.289036206234363
0.269886839444247
0.296561829868561
0.280952321943646
0.300687369537343
0.289419674311888
0.306018873097989
0.303192562977553
0.335294300972017
0.305986124993592
0.327865698417933
0.307740656968666
0.33151212898764
0.306013448004921
0.311947978474789
0.346398643792917
0.342044921828027
0.366130534278666
0.366435607600134
0.325810435726584
0.337447440084309
0.357813767098659
0.34690563323299
0.351245547305319
0.372761170843078
0.35563891909019
0.370648115513507
0.341912437542037
0.389401414827923
0.369470927312682
0.392939055835507
0.38384283906879
0.410534735313472
0.393774103733138
0.428397455454537
0.38375753707006
0.413567420484059
0.450934527989022
0.453997977617825
0.450480823091763
0.452998433171798
0.419763711719047
0.469703914034636
0.451560093241716
0.444015269597931
0.456921901422974
0.485140277630679
0.463493892909312
0.470897397576975
0.463471084046168
0.493665707631087
0.459342158647415
0.486497936277034
0.488938415173885
0.523761544005265
0.461072913664782
0.490064444466077
0.500754008763123
0.519803305820421
0.504473540610352
0.537495653440395
0.509421524899658
0.534498014872274
0.54844324025492
0.545956292728602
0.52470794785346
0.574295986014671
0.534374068893313
0.589968217213047
0.55807550815734
0.579022348865739
0.556408754630404
0.606095332872724
0.569146101667215
0.632817275332749
0.583868328285316
0.632463906555631
0.603251453602972
0.620329942489701
0.597741746750672
0.639063193093814
0.615792678463058
0.654206795601902
0.602404233605783
0.652396883325068
0.62498702814861
0.675987777381274
0.637591286971183
0.664659373925697
0.699229157355315
0.68524536929328
0.645732477541018
0.70352068214809
0.668573143449591
0.744807143267184
0.682273832536858
0.762608140975781
0.716514150296512
0.730476383731879
0.671399000130141
0.760076686054354
0.701862841015051
0.747541665569943
0.733919228936614
0.778663003451233
0.721614151078867
0.73827268958909
0.778295865756183
0.814973823973538
0.744947893869266
0.827697935326645
0.759609475480054
0.793140968349237
0.781912693024329
0.832908170641858
0.759955612817429
0.856647549328594
0.780384093873601
0.882914691304869
0.843478523476458
0.905335368080131
0.817093247567279
0.879049379061825
0.794408828192935
0.85925417881595
0.850853186700431
0.921504141365702
0.891184373547492
0.989859164913499
0.857995912433353
0.964950684144655
0.845553833267148
0.891923181150044
0.9177137902882
0.893204982092629
0.92287575411824
1.00662503046177
0.919208413510798
0.929102522933182
0.937658096385297
0.934208457305368
0.983117405927378
0.993332212395777
0.974904161095376
0.914840683208828
0.966688911901228
0.966789650286723
0.95797714620753
0.992440926669161
1.00300004269356
1.01438650151549
0.99581672412903
1.05641661905031
0.927983374022393
1.08258390363729
0.953793506872228
1.09565506280462
0.948041007348628
1.04995509734336
1.00467787195505
1.13900098353469
1.01336120711582
1.161500664123
1.04101902438598
1.1579775608322
1.05308664196368
1.10534765506655
1.0836763265729
1.29246173138022
1.12560874417373
1.15883516205631
1.03682727399094
1.14132822817506
1.00677119158487
1.13992445505128
1.04402192042137
1.11595915074753
1.03149791464628
1.22816182534753
1.16037153791189
1.21716657682998
1.01999890749941
1.28646432237762
1.09059913588493
1.24074600247471
1.11861258956948
1.36300228897379
1.18335842350839
1.40314284678097
1.17224869056422
1.21994175223917
1.15596933386516
1.29022763150503
1.20332663825496
1.22198191237063
1.18313374504364
1.34655425707154
1.17278179014395
1.34861457090941
1.24221271067595
1.24177461644895
1.21759659838339
1.2021764240376
1.18671373416908
1.36596848875585
1.18604643319663
1.34095642301665
1.19427004916292
1.34047894119217
1.21147352318208
1.55498845888225
1.31145643058543
1.3246597171845
1.26592406067207
1.36438566421372
1.22743881242189
1.29260276915097
1.28630956402692
1.30055277933671
1.17407649535591
1.3512828397623
1.30316234201157
1.43034816957809
1.18587413927062
1.53751052664176
1.30877991469829
1.32529784619357
1.28072564444937
1.53709541519492
1.25799212017435
1.56274910983042
1.3548337246182
1.50593230386603
1.32300502757226
1.56011846273488
1.32324825005574
1.43156084871979
1.36443688746587
1.48888899598079
1.21887174726161
1.30274305691355
1.39759707053258
1.45809929255279
1.31865381459756
1.4651468727164
1.32757774530962
1.49583975236536
1.45065881848985
1.54393737755061
1.36341088932611
1.44680106556843
1.24830136295157
1.49973999777852
1.37905037801381
1.60131549462009
1.25816618747197
1.51796560377073
1.32271229194439
1.76432139691498
1.24176920091939
1.53620493290034
1.4920491142221
1.6040861515496
1.57664962046417
1.76666839074082
1.28288229844258
1.53431778567463
1.32569659608344
1.39715977253399
1.30897372936975
1.38241240177532
1.41412990763902
1.62867955128905
1.3281744761497
1.93273928008419
1.52202565373753
1.66659559451449
1.38190271799252
1.46864185670107
1.3441752534821
1.40580905893335
1.39542486132188
1.49801028804081
1.28523853981781
1.55307906615261
1.41879274377758
1.69859272038024
1.45463730809792
1.33318438396441
1.45594349057953
1.73848980798245
1.43305921947441
1.59002991528999
1.39280073778224
1.58682595258594
1.43954769914545
1.69816822117057
1.42441939613873
1.44517328401297
1.64937345276136
1.37900119682743
1.32833308292303
1.51192023800311
1.38997057443577
1.53278484556837
1.41975467635241
1.52623762306012
1.56619424220963
1.58547893185676
1.65519038012089
1.67172181459016
1.39023519326943
1.51120430775787
1.41851912188133
1.4878921548405
1.46253992337636
1.53203687539149
1.4455816109104
1.5415214193417
1.40815283123483
1.50539557003179
1.52586249458957
1.56851137805047
1.48663146107401
1.69810376501376
1.3623179770533
1.55166829116707
1.31433192281843
1.6184924513243
1.42362989854411
1.53055677700952
1.44380676765656
1.61020189638759
1.45195737850908
1.54654482908023
1.6310374247672
1.54861829167272
1.59132116494379
1.6225111493499
1.42796297802951
1.48592598862471
1.42067915712962
1.48357114683652
1.46996387144765
1.50169124463064
1.4072452077656
1.49693207390925
1.37261141994132
1.5387004897239
1.38786384844664
1.50276298300463
1.40889300052984
1.54594307229798
1.41402833033565
1.56012868592919
1.3465462754492
1.60120458895343
1.57541953175061
1.4670968291205
1.3674304804889
1.84047509023989
1.33481639150766
1.38093297728908
1.39494364938346
1.64262576856766
1.34862852219428
1.46649011072391
1.44670600360667
1.55012876152264
1.44706159946581
1.49420110969509
1.38618267525109
1.38383868557044
1.38964486333358
1.32832450957649
1.33164109695137
1.43433458910837
1.39247763535427
1.36022969199144
1.27746853480765
1.34520570523206
1.35563408834984
1.56617950565047
1.37762703253243
1.43172360215128
1.30957551595832
1.37474512049568
1.28457844649934
1.40407539803022
1.36863394547822
1.3887895598124
1.37319681699713
1.42458706092033
1.41891016740055
1.46068587582894
1.35027307747872
1.28440328607669
1.33185601204211
1.37177642806965
1.38460354519631
1.45215771168813
1.29485298528691
1.42713569528697
1.31803545945291
1.4078666451504
1.28579208769147
1.28990261359596
1.29764916844648
1.29395052347747
1.26521995826922
1.32080043796015
1.28098420659606
1.41153560488652
1.32077129591667
1.46179791996811
1.35214476618239
1.33596585290751
1.26375332363419
1.30236244618614
1.24493721027804
1.34154077595344
1.25894553637439
1.265909598689
1.17588972133825
1.29904444647902
1.24880756763785
1.31315696815428
1.25403408750127
1.33035414959767
1.23577798710909
1.28491539366412
1.2581406148688
1.25999638655936
1.23864332398663
1.26718065052194
1.19862551116238
1.30364174252426
1.16884329054159
1.23476392239523
1.19538672163226
1.22960103611931
1.13298228572394
1.28147375837377
1.14919742344354
1.16353968466856
1.11389958789895
1.20873651007577
1.10648981338758
1.19190217230232
1.12191022505955
1.12669129583248
1.16669371247561
1.22323832547992
1.14968802758989
1.17801507553945
1.15184779080873
1.1173645929529
1.07577970406598
1.15715289387447
1.04387590815377
1.17216957438424
1.0842110253968
1.14235315183601
1.05753102502882
1.07948430473379
1.02795037786698
1.13511714774153
1.09063266712918
1.07351039612515
1.0694283906066
1.04639029855699
1.02177015059169
1.08608946240784
1.07264392067037
1.02872680324134
1.003844701786
1.08126765795618
0.997984849109303
1.03127447729626
1.03281966231019
1.05553074068893
0.986235246574869
1.01117997288726
0.944174582463732
1.01083991633865
0.991695415792722
1.00912676020119
0.962478339203769
0.994333309976066
0.969301852231412
0.983950301713839
0.942048815404075
0.948435520603004
0.92032129422547
0.949090058200823
0.905536910508921
0.928590914571259
0.923441938758528
0.92172211009467
0.892826508551715
0.946636050762401
0.924702467187057
0.913516787575944
0.902308961022453
0.921214781590939
0.889156564406225
0.93506863368982
0.877278984751837
0.885289872615092
0.889323560589157
0.861929628657176
0.852407529796854
0.860048426727116
0.839789353235024
0.887260196255067
0.842686688622206
0.858534339041755
0.835918241542418
0.855598137599144
0.83966877438311
0.843061319309392
0.811093315301139
0.832633602936785
0.810319207386441
0.815258117126718
0.80434224853975
0.808193627926301
0.791295054254382
0.783782594513529
0.783764566150173
0.792226992703757
0.760423510877385
0.774218588959185
0.747904872357012
0.771906248084871
0.766906105864018
0.776973743722579
0.745862395536868
0.763598068751539
0.727817324528885
0.755208581878876
0.754214327468264
0.743265144950625
0.728283555557338
0.741609466799882
0.733987094358855
0.736302328989041
0.717165001978708
0.743654635988228
0.718797727767492
0.717476073645628
0.703681739813653
0.728575210618007
0.692310617647563
0.707054233517456
0.677134432798543
0.695006734643845
0.685758355817618
0.690633550908414
0.662769791914915
0.68418962367051
0.674324658158906
0.683206382465359
0.652270368315177
0.666656175763238
0.660004428151135
0.668802381053452
0.646077403825047
0.665086655823385
0.657487973126617
0.645011326227772
0.623069354084508
0.640447925636299
0.634064384503752
0.644985514104357
0.623522533692776
0.639010823410033
0.607119086855883
0.620326350541385
0.606819193495702
0.612918285920556
0.609601175564159
0.613117500831982
0.591485555559609
0.593821465577515
0.599511007302446
0.611503662180635
0.598560949848718
0.582619174651445
0.582200028320397
0.596274364017678
0.58320111294311
0.576787702275149
0.560681654898462
0.569822099076318
0.559207191643881
0.564649186742765
0.550673410392053
0.559610263817925
0.538275705233556
0.547401586740739
0.539653699393405
0.555724450574356
0.55369831797311
0.547924391766388
0.523456480983595
0.548043352624333
0.525011640784474
0.531919511248487
0.535471084021184
0.521092008312906
0.511172665981501
0.529231808270714
0.504542017492355
0.513880703252485
0.499860456535035
0.50736201594547
0.506165467061628
0.507405111672748
0.501305221154243
0.504009528201968
0.496319150771766
0.486619084826426
0.47569900010591
0.485913766426337
0.482757744929759
0.495176825067729
0.48407026679345
0.487242504454762
0.47785843293047
0.471686207898163
0.465333071407488
0.477853097935002
0.473904471776757
0.469977095488937
0.461285967302707
0.47150655943231
0.458126823885245
0.465198033584387
0.471002878994622
0.466126938063623
0.463508602167537
0.464203372336214
0.452980283572056
0.458279842956417
0.455997838826475
0.457527091277064
0.445940909603647
0.455044196586742
0.44011964685941
0.451144595366619
0.454276118157473
0.450746571738149
0.452142600578764
0.44961332209014
0.444256615900415
0.451127753520748
0.451674757002178
0.445652695432034
0.440899568929041
0.449858459677503
0.444622075378908
0.445354380065962
0.445106612076021
0.445929015950922
0.442761181233642
0.451864593503923
0.453197981704959
0.460732426777083
0.462197823037662
0.459557591757635
0.458162391588017
0.466929967055907
0.45819310556465
0.473272622810886
0.469974647061198
0.467266071999317
0.473351349098524
0.472189167666233
0.461644743870008
0.475972068825487
0.476220631856141
0.486383215771858
0.493124696603761
0.484673169316152
0.484606247131365
0.500565369320897
0.488960908930233
0.497503087436626
0.482059337499222
0.492567540084555
0.491961980928251
0.495783882834164
0.501543045970731
0.515406768756642
0.511538973998757
0.513329002920176
0.519406849490787
0.520190114615844
0.527976985877657
0.5359345370973
0.524701539672777
0.532451804396754
0.533142435540848
0.544562061681435
0.545088661038043
0.553699744195583
0.55358678746416
0.560331383136498
0.560231007740207
0.558186728020845
0.562908571326487
0.580654791105881
0.571192366557691
0.589779135572008
0.571626577859269
0.574282823314029
0.58890776513523
0.590604577819286
0.597732238237043
0.597109771343283
0.597551486884436
0.597395028292765
0.593728404263356
0.603386045213611
0.60563382219338
0.598367263524949
0.597601758836276
0.602952015730116
0.594066721089043
0.617123172155089
0.600528516064464
0.601818341446292
0.587445962300367
0.594785673903672
0.604630948813961
0.59603095433031
0.592363705062466
0.604338606260595
0.596362569894279
0.596794078601252
0.602100326437752
0.602068447709128
0.579744788683009
0.584059889582124
0.597891842000877
0.596993175295795
0.599175601235143
0.59957201888113
0.602569724491439
0.595141890679205
0.591303932587172
0.596163260217456
0.591212064053335
0.589251289690946
0.592199811274279
0.594461240892905
0.600778397185398
0.59447586540266
0.59189294101119
0.597272533124049
0.5922338913761
0.594015285890756
0.591269272340609
0.588925111955204
0.603457545275795
0.598439291162099
0.596486904513564
0.602427092300769
0.596993268135259
0.607249092619246
0.593570908518128
0.583255011584975
0.594954706908211
0.580800055447016
0.576451119419235
0.578871259973568
0.573290816448872
0.57405038565125
0.585327994333499
0.577411459824178
0.569609147038682
0.581208369680109
0.576029294627814
0.570919235378754
0.558947530215822
0.559727162286794
0.556957218559265
0.565795627255806
0.562374090403322
0.547082727655095
0.546542600920237
0.543779148415963
0.538051699022911
0.543221990782383
0.530672060571516
0.526280915133278
0.529639217923385
0.531261317759527
0.524516554506406
0.515394628063096
0.508845662725518
0.497510855363851
0.499367496754362
0.501086892317067
0.500058669691503
0.500106387675002
0.49425210103111
0.489221830099136
0.481767681839946
0.485504737343204
0.481075306303201
0.471548461683029
0.469104424202015
0.464645500759014
0.459751734103176
0.458956623066687
0.455163114323009
0.456215126149239
0.462085514034394
0.457484384638422
0.443196341124905
0.439915244742714
0.443926510733753
0.434258644490574
0.435373212391947
0.437768427651712
0.427325148063614
0.42210353305017
0.431904766061812
0.429332732336201
0.429985692455759
0.420162182040055
0.408902799830988
0.416991142717855
0.417997992876552
0.407936572714851
0.406413651040788
0.405039808572166
0.405395653033708
0.399910780444265
0.403657841894193
0.405219552142748
0.402700755964334
0.392400328781837
0.392463923993246
0.392008026849103
0.380544355298991
0.388032219574669
0.393119286074079
0.386574577849646
0.387710448140596
0.382871359452015
0.385238759085681
0.386438238950712
0.386818211365873
0.376428535365979
0.369024610726085
0.371256114020125
0.367882046302476
0.368096197649382
0.376463940314329
0.367679673070276
0.365673560903895
0.360578144232934
0.368832680775987
0.370938506698583
0.363630684141312
0.364235648252665
0.361088816682833
0.350915204999364
0.355619881936281
0.359552735384822
0.356310463122989
0.348366090685219
0.351094612922831
0.350833842086039
0.351455744121817
0.348004292002411
0.345924328752054
0.347633713304115
0.346426880659538
0.340632742691281
0.340358173322854
0.343346445176233
0.348756238313903
0.34552713723165
0.341168757666806
0.338919610613702
0.338567687347579
0.339015181389067
0.341810613951654
0.330599255003165
0.33543843467708
0.334248457663839
0.334655810297422
0.326632921562468
0.326532661978478
0.327121868263168
0.325560793567431
0.325580476976561
0.3290886119127
0.323138488339793
0.325190497787593
0.325672034949149
0.328584842161512
0.320627698546266
0.32176739610327
0.323823413694745
0.319855766324439
0.312879650668158
0.317685146574084
0.312515954863902
0.316576400051308
0.319676764284134
0.316409743745573
0.316652986684896
0.319808711817568
0.307880273081353
0.315299542993964
0.314105282952543
0.311086212206895
0.31166212499862
0.314259548556517
0.308264845192757
0.308355726998341
0.310202434057465
0.31141453268326
0.302202587562353
0.306900640247765
0.307450225488122
0.305643519509943
0.304441050517474
0.30971864924401
0.306025306576308
0.306338699274847
0.30328771377808
0.307050690238208
0.301159012961572
0.301862329809236
0.305082272557609
0.303592312078186
0.300040164186661
0.302958995450967
0.299635792706263
0.308162981444738
0.30186683786422
0.301029674840303
0.294223878206315
0.295974555232782
0.299319144848253
0.297004462978502
0.294398664734996
0.294877712690432
0.287899348552471
0.290236102164373
0.292911343142577
0.296920521006013
0.291792299880876
0.291428163112089
0.287123800581939
0.293803621894694
0.286457636152844
0.287566420884516
0.284473722172743
0.287343133318042
0.283397192589639
0.289275248437618
0.281809402245544
0.286648970787355
0.282825631502995
0.281628536524836
0.27990028577577
0.284926629314425
0.278165195557337
0.284288228551675
0.277737505461538
0.277608888455854
0.279842118844589
0.284958859100712
0.278910965808801
0.277347960756909
0.275419444188932
0.275151915335624
0.268500687593707
0.27215220464619
0.272555132798005
0.27352161807913
0.269608394927198
0.271792631421091
0.26630306631126
0.268235957351311
0.270921429845746
0.269645597698767
0.262617577419361
0.264267728925829
0.2576591097073
0.263202629770972
0.265303715587703
0.264726666630568
0.260715666539961
0.262243398615261
0.256276213564997
0.256653481504131
0.258198885974849
0.26087299500971
0.256626010926782
0.258114131600646
0.252934548725334
0.251826847278933
0.25121101221263
0.252254140001489
0.249615643590438
0.254868322204182
0.248901018234011
0.250514319472478
0.246582090924341
0.250713005385019
0.243940187596973
0.24908000581098
0.240069824701754
0.241401858175622
0.237875340230616
0.239094053197774
0.23587289374562
0.244040590213774
0.234694390370921
0.239109181954959
0.234972020786421
0.233628539454673
0.226520527006934
0.231680848684749
0.228694966381034
0.229432786640844
0.228595363749762
0.229333834596178
0.225860219442574
0.224770424876844
0.221067273567899
0.22379919196712
0.220198186468461
0.223693895285289
0.221558240841307
0.224590499914205
0.216889751443639
0.224831663641159
0.216714446091283
0.219600535404188
0.216816984135666
0.216016242511184
0.211965298844014
0.218212678991952
0.215790197834909
0.220964411909837
0.20828421906988
0.211851594955835
0.207807273507968
0.207566232082087
0.204285492561013
0.206739521959993
0.208035117166626
0.20880642091782
0.20610512189876
0.207936801741262
0.206897044126177
0.208878075894606
0.201889803290324
0.202499448693345
0.201022160404251
0.199852259480563
0.199605336800368
0.203068896728127
0.19391779435787
0.200610838750957
0.19191942063355
0.196926492568499
0.196409166043708
0.196541682212447
0.194606295664298
0.194527037610061
0.187898002861448
0.195664378193827
0.189614163138298
0.189618871579144
0.188694874030317
0.190666521545031
0.187462992433281
0.191478153894102
0.185287759950283
0.187820522050827
0.184637222264535
0.191585820158387
0.184889885424812
0.185347258236337
0.180381102590501
0.186107326635804
0.184012493920608
0.185063601093741
0.182080302336104
0.184877206627884
0.182353840316337
0.18390443289448
0.177847825980163
0.178519649598214
0.176478799479464
0.180275393680714
0.1806784102199
0.18025172973846
0.177701257492522
0.179950386380364
0.176487033039565
0.17904179416558
0.178989225580226
0.179816159051058
0.174317381657022
0.175434279236556
0.170032849025714
0.177196937103553
0.171042821984942
0.177763305226292
0.173858133870705
0.175717645113433
0.172401380851528
0.177006879813091
0.17058337991067
0.172223422389478
0.172791206136813
0.171909084315936
0.169169941066799
0.171478352709779
0.171306291300572
0.175767875585227
0.168392767844762
0.168944075882265
0.168080292544941
0.171646257678377
0.169502442776208
0.170549794861273
0.168292891200197
0.169291415191623
0.166812520917431
0.16853496316657
0.16205553362356
0.16610120291115
0.159157962543227
0.165753101137004
0.16062729420755
0.167561190462688
0.165786094310661
0.16628596846002
0.163773324783978
0.164377457662918
0.157274333430569
0.159891665632179
0.158194519361833
0.162247323073012
0.160180135360047
0.158570449239194
0.160633689410341
0.157274476906168
0.156455102391515
0.162215164639447
0.15321625965349
0.159950410756699
0.155317371076675
0.158545375929601
0.1562223578286
0.157474313747927
0.156117707725287
0.155564824523653
0.152500392972491
0.157676831869696
0.149633872169027
0.155651133916604
0.151977243914012
0.155867511644976
0.149054748844642
0.157794390510562
0.151341814765902
0.153592199226874
0.15178310422164
0.152765066933755
0.14627962031961
0.152981945215241
0.147325484941044
0.152619193485157
0.146128566658633
0.154863899000558
0.147455422025039
0.153740477386691
0.146426679422329
0.14826509218911
0.145796527111112
0.151368196177344
0.14524607980648
0.149073469789141
0.145541813484157
0.151978667926805
0.145291582123665
0.148655098143225
0.142385327727807
0.14345679170338
0.142154998428214
0.143489845938523
0.138244958756638
0.142748868223804
0.141874539904089
0.143774795120548
0.139595832286993
0.141201111600875
0.137194623612049
0.136632653884257
0.136421409502076
0.139134341158099
0.136776353211427
0.139253092757197
0.132509382022573
0.135493955470477
0.132633379534879
0.136655071772044
0.13097383498735
0.136385143186312
0.132583561681743
0.13731263593377
0.134585937253535
0.1327876130929
0.128881703754051
0.132849123515459
0.128829199920428
0.133063391203642
0.12782791911089
0.128921677670271
0.126959963308042
0.129261848292843
0.126932576026793
0.126975181842232
0.120130780964407
0.12924133438241
0.123887702406442
0.124890122705729
0.124178996685214
0.128677252190897
0.121268666195412
0.124569793324712
0.119781911009089
0.127097826937334
0.118545455083524
0.123511554198233
0.121105403337483
0.122159798552503
0.116256300200166
0.124178661573541
0.118550000287916
0.121940882932536
0.118059480595633
0.122335427512842
0.116414744424634
0.120437030092862
0.114673787140354
0.120397874395166
0.111704847634405
0.119347191507466
0.11487240637298
0.117356226465629
0.111167264138735
0.119101690773085
0.110376839734973
0.114211004721719
0.112064766372525
0.115521566297166
0.11173565400642
0.113397905708288
0.109555913802406
0.115665037718326
0.108786633502977
0.109520461345131
0.109333858654716
0.109255570438021
0.110303059838661
0.109343931112111
0.104271128027375
0.10792323965633
0.103967636103434
0.106484534616599
0.103140833231102
0.106466344603746
0.103303607644489
0.110933242194808
0.104756413724198
0.104690537948382
0.102671707006905
0.107941126098265
0.105440130823181
0.1064278774634
0.103473134016473
0.104773897153273
0.0997461808521492
0.104844641912835
0.09996600757354
0.105960286723194
0.101973011767399
0.104481905266979
0.0991252208532158
0.104141386616186
0.0989187713144927
0.103648144173367
0.0986722542049706
0.101678420033601
0.0992114116598148
0.104194537601556
0.0973926459182535
0.103497248915504
0.100863008433312
0.103453627097505
0.10054927163228
0.101136308781818
0.0988891351235959
0.107639724361769
0.10001946143155
0.106151052752758
0.101261251042178
0.0978306694823682
0.0998277062604191
0.100377170557991
0.0882342137780357
0.0980783962768152
0.0921415302685242
0.0964748724344563
0.0944244887276795
0.0975708137053858
0.0887527906749122
0.0914062652827551
0.0858748399582284
0.0964998588194246
0.0936629685826688
0.0969681534820018
0.091975529461208
0.105401129528006
0.0912317427612121
0.0898168282056764
0.0858800944712789
0.0968538394738109
0.096599443132557
0.0909287522722769
0.0960598263243543
0.0967913681643756
0.0921708526174357
0.0906876389244045
0.0956455932903985
0.0925439072317176
0.0925456908232123
0.0897655766812585
0.087691598338391
0.0885776483765563
0.087889562680334
0.0920247929321861
0.094359050081286
0.0868062249616754
0.0970527107493262
0.0912135869267963
0.0916042663311796
0.0860229576461181
0.0853393610937256
0.0834635901643464
0.0900623543574145
0.0930263433423558
0.101052847432925
0.0900599544529974
0.0870494835328579
0.0858717783221194
0.0880731161748339
0.0918226603280679
0.0952180806598243
0.087218991988564
0.0830596217178312
0.0981656596157598
0.0914101084286635
0.091080140538641
0.0864589794868445
0.102300934142424
0.0828911077498497
0.0946917561255119
0.0829377381580153
0.0974971005626839
0.0816223184437594
0.103287518883367
0.0820078377931762
0.0977522516793887
0.0867472677429379
0.0942193866727035
0.0891835110671684
0.0896605810913315
0.0895840819608439
0.0917136108105033
0.0842752598758081
0.0905813404765448
0.0886753184191534
0.0913165849277829
0.0850519501819169
0.0916733683946162
0.0826084945903167
0.0921140028794461
0.0823534417561173
0.0878713031677316
0.0877847806801812
0.0906823147764327
0.0820952095718038
0.0870025140272582
0.0877436275134004
0.0890764883799837
0.0839471552034313
0.0904614103058506
0.085533582355095
0.0876205119108838
0.0820137791912028
0.0884383211004623
0.0823784603220905
0.0909267380297295
0.0848364971027773
0.0890680238497354
0.0844462017833612
0.0908428918102842
0.0840140236119035
0.0921911173040777
0.0842981174835496
0.0910293997989393
0.0851812183729121
0.0872247455815906
0.0841890765356174
0.0880825228371219
0.0831214733377133
0.0886082551340155
0.0861776383772113
0.0889247444712453
0.086569122500459
0.0884389481276994
0.0832787840954921
0.087125083402125
0.0846164548104705
0.0911962705926361
0.0852823057534873
0.0884791031368834
0.0862629988522103
0.0937811338763518
0.0844874705450062
0.0902669317582936
0.0824372101125626
0.0910964567090566
0.0852355291190113
0.0896952788899515
0.0885791765716037
0.0869982270527847
0.0833473445201226
0.0891967653768198
0.0863310190364464
0.088978711517065
0.0853311730801921
0.0879826946875899
0.0850529945790264
0.0905952652449844
0.0832725442724777
0.0899829041572154
0.085566378232187
0.0896288372825377
0.0837608093658048
0.0900411893001834
0.0839939632072476
0.0906316001573769
0.0847490365054929
0.0879334579690529
0.0862038372423283
0.0876890317719741
0.0886220317289592
0.0919289290971342
0.0839263308365722
0.0920596248787637
0.0892281108754636
0.0925309424098657
0.0874600204794079
0.0924261499575266
0.0874421138503226
0.0902997123344355
0.0856984313948876
0.090005600049733
0.0871028955295672
0.0879262628279914
0.0894575951091453
0.0905518215833734
0.0907906855608264
0.0909462398701278
0.0864320547534642
0.0959953216255772
0.08893982499362
0.0905228728540671
0.0936675571170585
0.0924838316869095
0.0914314971676811
0.0941494603009406
0.0888731177773558
0.0931130116660999
0.0878515824536393
0.0954547263769226
0.0920929896610426
0.0899603053195776
0.0906395695626119
0.089508122400731
0.0893466244844199
0.093830146424883
0.0932039679556772
0.0943628785708317
0.0924234144874508
0.0953002702991042
0.0895926815431421
0.0952749700391847
0.0916199998677032
0.0938752489765154
0.090390893704123
0.0941998208025643
0.09184766078645
0.0939715913912579
0.0898093217573986
0.0939719579485244
0.0893595357181668
0.0934460400143018
0.0903473388573995
0.0969617082531114
0.0927751818379773
0.0947770862511813
0.0883940298218057
0.0949629848093081
0.0947312047581492
0.0973274938014915
0.0928470930629712
0.0951457490296031
0.0918313568917667
0.0975203550407006
0.0902001822534292
0.0983031934674826
0.094445364814431
0.0952934415472296
0.0909050676332971
0.0976921663294107
0.0949959872572393
0.0957897568264222
0.0962815948062763
0.0998192205756766
0.0952059104680391
0.0973084463114562
0.0952655566413142
0.0972966619648608
0.0937988362439809
0.0987948613462498
0.0964867746967514
0.0969880740962727
0.0949434286284393
0.098407135490427
0.0937946629727669
0.0962891954476693
0.0964570000766601
0.100447719771814
0.094896003445453
0.0988463991857335
0.094764760121611
0.0981873676727426
0.095122577119373
0.0999749155827538
0.0971210598744492
0.10020426220643
0.0945922483103676
0.0998431589049231
0.0946149311950142
0.0963376582444932
0.0914506481026109
0.0952572611789928
0.0936268745203319
0.0989268956697223
0.0919428904403857
0.0957921014143995
0.093812044614535
0.0958773150166143
0.0910386745577101
0.0953760956283254
0.0915511029492027
0.0972519906302521
0.0905632979422222
0.0953568753016051
0.093806330918525
0.0924966209462882
0.089947842927191
0.0952148523666415
0.0888569241722495
0.0917982373361004
0.0924419699555195
0.0949862090644862
0.0923277275086056
0.0927028717415038
0.0895078123502628
0.0965540926070929
0.0891024167751683
0.0962135774567074
0.0901298597606195
0.0964692956230394
0.0908317306135567
0.0937310911325738
0.0920684848029391
0.0924408399211086
0.0897847211604515
0.0958132569920732
0.0898278100538095
0.0916791312769802
0.0897223812302409
0.0933017494376216
0.0865306198117229
0.0927448708763886
0.0878031108997179
0.0899097689837233
0.0859330025826159
0.0933987458932436
0.0854673411940615
0.0919591640159914
0.0877240338157071
0.091549557392889
0.0882574993201589
0.0880898801321278
0.0883203844182098
0.0935523155506688
0.087937383354321
0.0910296741497476
0.0873507556694564
0.0887351153970069
0.0853605080195445
0.0907611856490001
0.0879515329738271
0.0900431891492328
0.0882557656515014
0.090505254981918
0.0892426555276685
0.0910597218271166
0.0893085900511152
0.0885976361843466
0.0868165542068656
0.0890800535925015
0.0861103079502387
0.0898512652604861
0.0873571308107725
0.0875430245096806
0.0855393235144977
0.0877225164528662
0.0867723442796034
0.0895591137231294
0.0845695327104258
0.0884099582370152
0.0853334025328426
0.091608519321327
0.0856912944193967
0.089373343721651
0.0854209011746117
0.0889854858204354
0.0866906305006853
0.0895731997131991
0.0847536687095106
0.086421718250149
0.0819214819028698
0.0844428173329666
0.0858317507985267
0.087711084845571
0.0863351285456366
0.0868702287851352
0.0828739252160697
0.0820368240382228
0.0856965706082905
0.090022108494543
0.0834911968310475
0.0886965926011256
0.0845852042322273
0.0873526991149114
0.0811967588641156
0.0862421963927357
0.0831290094667359
0.0847449422159705
0.0816660916877826
0.0859388059268461
0.0817268381457205
0.0857769439431359
0.0792185467807152
0.0832669923038756
0.0789098159499244
0.0827679763671932
0.0798049396010411
0.0877867067847056
0.0841309608621902
0.0819308778356783
0.0786915628464264
0.0821765586762676
0.0776107289767183
0.0819203698458022
0.0773687933148862
0.0824886058433447
0.077783069100798
0.0819114333963029
0.0774839264908473
0.0811605863136408
0.0788082661955293
0.0817934058422106
0.0750616796127373
0.0781466490538534
0.0750826475059167
0.0792519371910698
0.0757121075171019
0.0770141993367537
0.0748795665874258
0.0774442395206582
0.0726042946954013
0.0780291330754393
0.073603798463498
0.076806520999719
0.0733440460719401
0.0756538050387445
0.0720064416447177
0.0748184842216275
0.0731754172117495
0.074858050805434
0.0728662208960368
0.0744547985052221
0.0695075763021784
0.0735516605723733
0.0726652717869648
0.0710703182820725
0.0714272666801095
0.0762650753196769
0.0805480669198057
0.0734343693492655
0.0704458031202727
0.0767401080229095
0.0716775806363441
0.0739634908260252
0.0718701574963427
0.0704896179084785
0.0688231306745631
0.0754182251729111
0.0695343769209798
0.0745482389700064
0.0701394412199704
0.0705618137391514
0.066250794989247
0.0724567168596516
0.0702295819904388
0.0717048521267751
0.0683013447040016
0.0718726420388164
0.0681984840667508
0.0718214101268755
0.06950510795522
0.0691930617450234
0.0692484942829915
0.0682185419499761
0.070210897429942
0.0740172332581417
0.0694180300044145
0.0721027357562828
0.066595411956533
0.0687475755748272
0.0661057394281906
0.0705921039909767
0.0667377668144696
0.0697516094841651
0.0671230685449705
0.068068193998807
0.0636542443578244
0.070056461953782
0.0664972665291333
0.066770157772096
0.0646567538628441
0.0705482984122535
0.0636486270713733
0.0654839566888947
0.06563199288882
0.0714851251736755
0.0653199977971512
0.0713940556977722
0.060602128252071
0.0669838017844884
0.0629452067568414
0.0760188937342926
0.0663874463819541
0.0670948565203556
0.0642656877785989
0.0631424803803346
0.0633447578023274
0.0654159699766154
0.0629673049843659
0.0638907952356089
0.0602139722396772
0.0651013387015788
0.0645016988283177
0.0634306572167398
0.0613937529643944
0.0651741884022891
0.0640030853598119
0.0636985543326066
0.0629728677542871
0.065805639289075
0.0643039609320139
0.0655516863822361
0.0725887146609687
0.0712884205085643
0.0622065903312888
0.0682176693895349
0.0662693505472299
0.0738619477854817
0.0714033618139597
0.060962684974552
0.0660226662436089
0.0590858820478176
0.0652386232000812
0.0649727078312904
0.0646799585870116
0.0655920396906919
0.0696267936518786
0.0660441832122012
0.0655908654935052
0.0660237601647242
0.0643311672909842
0.0647444149343552
0.0621945914547489
0.0640996847826391
0.0630278078950393
0.0626979667715616
0.0635427661606148
0.064315297884138
0.062545191515773
0.0635434723074111
0.0612146147430341
0.0666052550880514
0.0683712628961237
0.0622854399170289
0.0625523804879071
0.0611471899757401
0.0614719600840944
0.0663224180842241
0.070664989904591
0.065117149072993
0.0606428872384054
0.0641145306705408
0.0603347211921524
0.0681119374309072
0.0612816211856494
0.0638894939675315
0.0599504950876248
0.0642506133673785
0.0611209459217989
0.065027944167073
0.0618282211743476
0.0644419925457359
0.0644679637785843
0.0648011857885687
0.0613401582271452
0.0660278272714251
0.0638059785864989
0.0647663241740703
0.0636252153418267
0.0728902321826033
0.0762530145165185
0.0725055234724251
0.0699369979969684
0.0659923860926575
0.0649858690785024
0.0661878909155253
0.0628121421295002
0.0644925713844677
0.0628063529874485
0.0651342037155225
0.0626253338348954
0.0643111291112123
0.0625561085889295
0.0627902590377812
0.0624117655098345
0.0632389866556136
0.0617735507730191
0.0649204854006887
0.0614784833428375
0.0657191406393072
0.0592122752140036
0.0683240399142989
0.064800248693304
0.0733583833570662
0.0590146059358793
0.0726812932809312
0.0630353006485673
0.0892071583174796
0.0660764529660721
0.0701250895497308
0.0631870513526608
0.0667148221958773
0.0636978301931917
0.0698715452318582
0.0666517173538261
0.0692070814496472
0.0629636569863753
0.0651996576007358
0.0642271801345551
0.0661133487702703
0.0671011139945571
0.0777007764351913
0.0814075612768435
0.0812034984772442
0.0651982934045164
0.0687418079672868
0.0725492049914536
0.0869859881112163
0.0698951152280173
0.0645627093057744
0.0719978408153298
0.065480342390347
0.0690535805873277
0.0642927574873236
0.0686630852264753
0.0714298058424489
0.0711256092825523
0.0684200698186846
0.0691720064490141
0.0702773943143765
0.0673835642505401
0.070546980169117
0.0692894000394613
0.0769417644109692
0.0697196042374903
0.0723132968137912
0.0747971068477189
0.0696559483863251
0.0707475944337757
0.0701562366565502
0.070739356326628
0.078003202224159
0.0778147773203551
0.0796336470943765
0.0807608262314189
0.0822261126752222
0.0755318607552173
0.0728451918568522
0.0835143221036516
0.0746187651154288
0.0785441746792022
0.0762076798674662
0.096994557663097
0.0908030961822554
0.0793932049425053
0.0841537245723887
0.0707670733848218
0.0809140094955075
0.0663472034916116
0.0849718700342447
0.0751544836254389
0.0917307940319013
0.0685526741159641
0.0875406061753276
0.0698881932515776
0.0921641110377349
0.077861667758027
0.0838518549383143
0.0752195387267267
0.0848183004718525
0.0870893631060877
0.0894282003013676
0.0803592600481397
0.0930831594466695
0.102220789738481
0.0951022452807717
0.0890007237638823
0.0906994404334039
0.0879615499229215
0.101105640394963
0.0794952687305474
0.0896688490615565
0.0816378188575061
0.0898059941020941
0.0882469582472373
0.103126709869465
0.0938100554067583
0.0881474236525494
0.0882817586527823
0.100598650907479
0.0979332757267001
0.103664904690458
0.0854816655543589
0.098439235514758
0.089659208946619
0.109441813042433
0.105860842236734
0.125840754966961
0.0976051513952344
0.123215434571406
0.111063193586174
0.114322121569924
0.108948606274659
0.104117671654203
0.111168038439787
0.120932278533641
0.104828964172409
0.110585362153769
0.113279458636183
0.124470161942828
0.121220209930638
0.109771899829108
0.118227352861889
0.115154615398966
0.132260200698574
0.152383124574265
0.130936666576759
0.122815490974279
0.129391481974942
0.136191518030655
0.137858540664144
0.12588535070074
0.127721776356561
0.128857377582374
0.126329224821393
0.135906230562157
0.136139595888901
0.142201160932745
0.136843810045254
0.139343298171117
0.137345693211815
0.160889287234186
0.177440904646171
0.164503613262049
0.16355174661178
0.145702758927594
0.173515704843751
0.157796338178193
0.15591025986139
0.151010255874407
0.157996397674853
0.163530653420923
0.157320651902024
0.167138783239014
0.169692008252543
0.179239382112646
0.186126528274344
0.183422775337927
0.184476976035148
0.168495480864372
0.214355173030681
0.198076862555634
0.239493845149273
0.185921012041735
0.213924296626661
0.2105286470879
0.247208438369519
0.230045544764883
0.217091558826421
0.22096036109238
0.227243343621035
0.234634393699737
0.24584593098903
0.253318434014154
0.265693459573016
0.261294040481574
0.269579989509002
0.266570038101281
0.32473555435052
0.321283617695797
0.307469458397471
0.307839705821853
0.313558013195611
0.317564309763834
0.325671666886553
0.327601159245329
0.33718997363892
0.36466679605363
0.3713107893644
0.381705589331767
0.355157326596453
0.384547020508848
0.375919597301588
0.41202795087206
0.391960229819686
0.443989906509531
0.407869433111058
0.424587304070642
0.428096830942255
0.434347156389573
0.451786219753347
0.46383836471261
0.476594122465639
0.47007304624681
0.473857248692018
0.477739562449551
0.485022799801047
0.49461666932564
0.484861050619857
0.505985513836288
0.495330686401947
0.584998056216842
0.550436614212438
0.542128663251683
0.515528039584023
0.50373249378814
0.523324258783215
0.533255870478503
0.544055646238935
0.561760640243945
0.550489322546465
0.532621835137918
0.527977957542238
0.54292430719266
0.523341696505499
0.537602053015696
0.51618730103188
0.541041619073599
0.528503555689936
0.541921982562582
0.541600289147384
0.574427831813385
0.536416880230012
0.533496022129642
0.542085221506805
0.522742542031969
0.527079685129438
0.528950550000582
0.540913400977201
0.53417058182105
0.537395194865963
0.502900095842961
0.5181393463241
0.517693786283142
0.528340183546731
0.498745466246088
0.488344085804557
0.503392569885117
0.487972086663734
0.488527109131765
0.500481447469157
0.501974271458973
0.49896748244006
0.472112320569892
0.474447938445197
0.461646644229707
0.468454410976234
0.466511296830054
0.472487425710025
0.457488104769333
0.463968914196812
0.456282734854153
0.464869826872918
0.44927425068984
0.453678560081231
0.448260453475855
0.451587418906051
0.441985285268029
0.447727585098081
0.438804845763343
0.43768161152815
0.437501997017568
0.435984963421693
0.435778030305934
0.442843521913582
0.437379984376325
0.434058534326283
0.430988149469996
0.431615695238555
0.42649215566997
0.424837033255063
0.421297377012285
0.426945574424778
0.425472611139496
0.427407291928949
0.424411743802976
0.419680541116264
0.426306667805381
0.422457555800015
0.422060576043016
0.413813417504876
0.422045207357042
0.406991559261851
0.418170146965301
0.428179666803112
0.431593284685833
0.414354991231327
0.40144428707628
0.420391437283932
0.38878112464868
0.406891039782331
0.415589046735637
0.414848704414078
0.392598069124987
0.382690024883347
0.3784789730278
0.400208534775533
0.382058173279284
0.388204480636013
0.359910431003503
0.37624039467609
0.373598488415185
0.405293959150718
0.441421291212883
0.417757106925819
0.380378598736292
0.344730936807635
0.378354667703195
0.355973851327392
0.361425670696339
0.335850806586519
0.355739256758427
0.354639518153437
0.360764352873495
0.343528354217612
0.332518660826598
0.338370752157509
0.351162277512754
0.355679261230976
0.34788478229483
0.353283645687321
0.337359035081609
0.345726128934531
0.340075560543571
0.382537432507866
0.331595152923416
0.320892624807451
0.306039514310321
0.305549626976679
0.325881460135388
0.31405102687296
0.318132003848319
0.304046856861863
0.297727280532835
0.297289666317321
0.295828146989264
0.314364807068168
0.280673417711064
0.314400306947819
0.292397540597037
0.302580410993794
0.278800103925497
0.30334182371994
0.315355700657902
0.32129752892182
0.285315383700764
0.272610295740301
0.299631201242059
0.296741991986746
0.297505599629195
0.273185468276398
0.266783736658406
0.279816180712341
0.272912258223137
0.273040926891872
0.28007983779278
0.28181673632983
0.295794095680259
0.288938097188713
0.317331566451479
0.285943366528061
0.265952266223556
0.259548611450538
0.252505323644938
0.267499390663918
0.251680861524669
0.259228483603175
0.282684339045347
0.263083978713113
0.276236963832965
0.267720730589315
0.279275375311306
0.265232526160124
0.269738870121422
0.268104413985127
0.27641139751784
0.294002372390963
0.309210365902014
0.281774748017599
0.302077553769872
0.290547185986283
0.303656037575342
0.286043410866722
0.303801858379272
0.29525486469063
0.313407488432115
0.319776935293794
0.32435467688366
0.319576816017707
0.33017596148055
0.323857918950276
0.378314014053945
0.348048170063723
0.377081247935287
0.3631959000858
0.399505205566524
0.410012395174206
0.400617873482605
0.396589594228598
0.395915244265793
0.412958890469214
0.414626181707467
0.408965087781895
0.441802952698645
0.432806109455754
0.446727178912287
0.433960229608005
0.451596977606259
0.442294807031038
0.459091186444528
0.471766482358274
0.477138447120145
0.515274221986661
0.480919016509675
0.51543054577031
0.481536258623999
0.482423620291128
0.47775126392357
0.491443819374719
0.487697706894253
0.490759436540043
0.507159707616199
0.504783187873162
0.501802522825965
0.49814206104784
0.502699995102093
0.508323114819439
0.503867024098914
0.520342815128315
0.51868276985482
0.520689119415636
0.524894767266904
0.513045771153277
0.542343256307568
0.56922771921618
0.550616683456284
0.539977671276633
0.542211890054873
0.561785408307355
0.549121411911796
0.563086904065981
0.575081278776515
0.582493318873864
0.5744090661337
0.570866782201532
0.582216837490816
0.579578540319403
0.598657300402949
0.59952771636027
0.602197409109638
0.602494550507746
0.591638045189096
0.661666248796477
0.614679162931964
0.641929934373927
0.61242926081873
0.635588799210272
0.606340270923866
0.619570076919849
0.614746389390599
0.621380561866274
0.624973908355128
0.632087623088328
0.620684543699319
0.626075000215722
0.620706264511081
0.617078246616303
0.628918399947146
0.633019801447239
0.62647709162846
0.616050585470363
0.612044377991237
0.623365821841307
0.612314376485381
0.638303198121298
0.621180705351212
0.625249600004132
0.608501421769843
0.630004550411871
0.63669260263556
0.628910109469719
0.617025762291807
0.623431406143227
0.606176991100113
0.634774058649106
0.616911534577856
0.638260358125556
0.627470709366266
0.644595629845404
0.627218690468448
0.63340742275654
0.61877558624419
0.637161361761625
0.633344796745085
0.649824916522792
0.643499098819348
0.657228483056324
0.656512319268159
0.659667009331129
0.649755161643939
0.657426286824711
0.676261519278027
0.667456374595109
0.643731499265771
0.650546767333422
0.646503815868483
0.657043381424792
0.646880068944481
0.655504417793674
0.623774818264918
0.643062829254233
0.617874577671666
0.636776311637506
0.629479752908521
0.627617196953494
0.62647641118759
0.604546320490806
0.604036492607265
0.596728985061586
0.605019908592107
0.5895573868796
0.587672530574698
0.584662924972682
0.586936675092207
0.578484083677293
0.575536548005874
0.57441987581666
0.568745868511334
0.572841243200026
0.570842714805149
0.57655931885285
0.571357084865347
0.569469395540332
0.566253082811912
0.56689904745377
0.557098703467704
0.552814272818204
0.574838580130476
0.578924249680212
0.578652509353537
0.564366069251667
0.579453294890975
0.553042118262292
0.556423659559401
0.561114122026074
0.569229068597922
0.561129078470513
0.556531193435931
0.558923542897944
0.560585602123519
0.557364269198389
0.559377404682067
0.565851606695883
0.555389351341651
0.557010169857851
0.547898704759948
0.55078164856181
0.551379561509439
0.554412970132574
0.548973867329674
0.555631285607118
0.5508565527841
0.5601496194494
0.546852089250639
0.554877668781432
0.546612354255408
0.552334987473765
0.55919118338364
0.551116063178248
0.548116458202827
0.551363267974073
0.551360120510191
0.548862050539555
0.547524360453818
0.543254392128066
0.538132759071133
0.547810071273933
0.541980782578994
0.546266426817695
0.537050945491511
0.526611171754951
0.527009877031579
0.52546491638208
0.518755022704222
0.518034213549101
0.512290601229329
0.510209499672164
0.50117298816563
0.501501110640261
0.49464172251624
0.491400475404076
0.488331177659222
0.487229479732988
0.483632341562419
0.483064430152637
0.480973864966682
0.482638594935946
0.479007279491665
0.482673262493518
0.479140312621592
0.478563053367412
0.478882759288777
0.481088893828077
0.47353026542546
0.477464652759899
0.477680944855969
0.482437884400562
0.476549836393189
0.485668218256906
0.482660981461016
0.48243179091568
0.487277340803889
0.486255377994872
0.492240182556599
0.489589486208978
0.495077841645252
0.493049485538169
0.500129937237669
0.493885343118687
0.50204704746133
0.498259633008828
0.508303787146365
0.506936025717216
0.508738766025088
0.505422208637286
0.510211795468321
0.504543201090003
0.50765409436651
0.511829045035509
0.50657847291998
0.508137161302852
0.506375146745608
0.50458541125026
0.499092823296561
0.500968576411575
0.499415077982449
0.498744910376997
0.492127276060079
0.498861684415739
0.492644550823905
0.49717874968919
0.493913279911055
0.493984145809561
0.489554243734455
0.487364375351383
0.484273486817989
0.484598588164757
0.4775850160667
0.482518331582302
0.478378183687595
0.477610160448024
0.478000022547497
0.482039595677046
0.46782362255123
0.472675195751491
0.465078568686025
0.472478853101968
0.466982521115358
0.470234224453352
0.466283106746842
0.465376759344944
0.464643861504845
0.459747110163128
0.457398250957302
0.45872527389045
0.455866262678484
0.456975694654246
0.45088270575954
0.451097218074316
0.444849341400938
0.445261231752942
0.440986791325081
0.43901641919801
0.432026023544049
0.431104721569656
0.427442172138465
0.426288278685988
0.420938728334486
0.42014831296633
0.420614691617532
0.418957203153717
0.413991142520862
0.415877464584625
0.413755683334101
0.412203332498585
0.413783877650066
0.411295862079274
0.411281090284601
0.406211008837559
0.410260330476608
0.405804008490988
0.405684906540186
0.400652861686602
0.396728607728381
0.394950224213111
0.390179013203382
0.382198100024966
0.378782930193999
0.374834888067008
0.371551785217043
0.363284307892849
0.359757357408174
0.363650993232699
0.358795182142547
0.36286578395985
0.364337851579093
0.368859379491348
0.374737702831791
0.37758268313893
0.386752110606974
0.399336193659696
0.408741146448999
0.422098456085976
0.436884283899925
0.449860058347428
0.469150109566629
0.488882118010489
0.505861298173781
0.522332074980663
0.541539335010287
0.561137587048086
0.577487603189854
0.591727800795827
0.615924897966805
0.629727724073069
0.654885813980132
0.67264630290392
0.686249361435995
0.706787152577294
0.717857654289577
0.733853463874762
0.745467948241273
0.761505766482309
0.781784678304762
0.801885474297309
0.801558738742501
0.810837007091155
0.817730493220073
0.845840550442852
0.844003497817249
0.852664542778651
0.845396302130808
0.850391498513283
0.848251808013456
0.855620446917471
0.862183876009809
0.855492185918233
0.855255316776136
0.861290503359339
0.847751440073124
0.863224144085448
0.856617868000755
0.854703145939946
0.872584193685359
0.85878984728298
0.859509206535632
0.870711964722644
0.868874354801778
0.87212621937182
0.882749903063718
0.881961294879788
0.882219312936138
0.90922198679551
0.901418880309305
0.913509383344214
0.937719747240254
0.929435594876774
0.953155124648064
0.964407335698488
0.981201968556917
0.985934844799963
1.0093649386821
1.01493959366922
1.01565135756942
1.02877556462178
1.05116895424291
1.04700277065349
1.06829919821808
1.0587310059535
1.08068997491727
1.08039855897051
1.06761093564313
1.06048007901348
1.06052903537135
1.06912310392842
1.06248307458321
1.05713206108191
1.05668228658524
1.05128371856462
1.05344855528626
1.06879198636343
1.06178830170058
1.09536302427972
1.09201609038695
1.10438325006484
1.11991985181049
1.13472069742631
1.16045871826648
1.17548274759122
1.19088184877079
1.19437353656298
1.24626839881899
1.24288782090015
1.23545238748376
1.24267653559767
1.28990122503603
1.31314226675836
1.32924653392273
1.3157704732305
1.34682106537951
1.39875004862173
1.39011525278026
1.45571339397038
1.40732770598661
1.45356060960001
1.53564749238155
1.58034479431313
1.54992485628643
1.60107557667159
1.58717731359643
1.68023802946659
1.6577475551264
1.64225508781344
1.68154085371591
1.71356477721268
1.75910075461251
1.70286586566521
1.79203426331947
1.80232782418675
1.82573535507848
1.70985715958811
1.68643434851729
1.73236687536186
1.78721365941625
1.73136014387401
1.68263982711721
1.70134549919797
1.77881581873754
1.73729163319062
1.76869794594184
1.78786240083302
1.73280798915127
1.8196353391775
1.72836500124666
1.72259289107772
1.82763107291578
1.80846517592684
1.77527629979715
1.85760995451901
1.88897337475236
1.84392065333837
1.9776895669433
1.96294181234923
1.88706932676996
2.08427882700751
1.90832252003638
2.06512848433198
2.05221977840048
1.95547748548394
1.92931313142421
1.96736760737452
1.89223408642623
1.99007987227688
2.23758115721666
2.20085120260747
2.10401794010814
2.50091839058555
2.32991044910095
2.11921818458895
2.12860132267414
2.24873613325866
1.9354151594991
2.17643410327021
2.08183077529115
2.13559899217405
2.06772378388608
2.31486997360381
2.17605136231271
2.12019864304153
2.43538697507097
2.52277166493407
2.31136166254455
2.00213607111846
2.08003791198037
2.15430889599961
2.19353989755072
2.11424619860167
2.07269336364527
1.95101956785102
2.19404328330196
1.98010009778366
1.90586560359456
1.9091253962485
1.85560781118292
1.73658563921419
1.69912562399944
1.59627671924962
1.63155108789829
1.53575610357453
1.54923751305531
1.44970588846561
1.48881344731904
1.43195026827625
1.42328504902361
1.42958189071387
1.42263541933603
1.41018263510204
1.37999196236589
1.36116678779944
1.34484027721671
1.36004656221394
1.33096176267832
1.28706208523265
1.28171963392486
1.27502689723856
1.24903288950875
1.22307854767635
1.20033782146915
1.16858416589898
1.14565473854867
1.1130828770032
1.06237632399084
1.04650012437312
1.01671962026661
0.961546144627503
0.920776169598245
0.880726806982298
0.865338564473211
0.82034433660894
0.789135266531692
0.753287681688229
0.71503018852019
0.690209298226049
0.661764639846746
0.619352571727147
0.605882310292395
0.583014542998768
0.569095723811277
0.549090068501692
0.523940662468475
0.511057223208476
0.506561145684552
0.485605378408262
0.48384522069987
0.469132291545101
0.461561251908505
0.454711437921839
0.453654069606773
0.450517262599557
0.451436278674316
0.443723506849942
0.446394428825858
0.445577574608725
0.443963367074508
0.437044399551923
0.448308332206254
0.444456706550562
0.454703142891342
0.450244990607302
0.448755765146467
0.45974203994316
0.46139218598243
0.458120422476517
0.459548878377856
0.449959114665176
0.453079253383808
0.44738759032147
0.447061761318393
0.441270853098852
0.441772687546644
0.442663537558942
0.440858629885615
0.43524401653699
0.436634918268792
0.437323186755635
0.440847393076377
0.432161251794497
0.438945422089921
0.432126406588067
0.443440744241281
0.449817533627916
0.451114969057
0.442964772316091
0.456276018877839
0.449858295253692
0.45819065758994
0.460495169039691
0.466202294265383
0.461168723778414
0.468761318793295
0.465068864991488
0.476344418064814
0.473631165226679
0.478725559446679
0.474000213190378
0.474738831439836
0.488615185966793
0.470653884780925
0.471680641928254
0.470420241035754
0.475843090505939
0.480636584049619
0.4801323522613
0.48601717992625
0.489196227760725
0.503730678610102
0.510705047563821
0.521964874490331
0.522136288362167
0.545400664390541
0.550685477637823
0.560694350676096
0.567277271737307
0.59147491114548
0.607988444846573
0.619720944785827
0.623105575382274
0.627527398002611
0.622346462149306
0.618230655220166
0.621834344855746
0.615129394422646
0.607837570902665
0.58372797007655
0.574487636751518
0.573933641041307
0.557927737245005
0.54976568530194
0.551320231810746
0.560228924932749
0.552549682712781
0.547532833288088
0.54400079595481
0.552490389124082
0.557304777993827
0.561767622710595
0.569560422397389
0.560104508868527
0.552205769967492
0.551725426487093
0.541132097870496
0.553246033967664
0.533517950250647
0.536353260487851
0.529632742299084
0.514984888798695
0.51348137801547
0.523309417314042
0.506699684665823
0.508228221740786
0.500390061200129
0.508379312506904
0.501455501252878
0.501668931446894
0.499716424069732
0.486735551633063
0.48551589983471
0.502210555365202
0.482708786534932
0.491954843714506
0.486307174637712
0.493835673150055
0.485677370371571
0.48865901362179
0.475054681717048
0.483425907869345
0.492946883626833
0.487876154722296
0.465154525073953
0.477616248347178
0.472776800936579
0.463814712800387
0.459236649766871
0.477230446025254
0.463927381275799
0.455154906003401
0.451064674368612
0.45975673850081
0.448235701815931
0.452647611195526
0.446952542507555
0.450280695447757
0.447205567497416
0.454304334442324
0.442664670314651
0.453465685442957
0.452630453652398
0.455586118370212
0.452061037633738
0.454130952180919
0.450110322599088
0.455219981063784
0.441734013169089
0.453010009606853
0.446510283478413
0.465944741165833
0.44785140012071
0.465739408308059
0.44400260797998
0.472125751997799
0.474019677704799
0.46395004893192
0.47330427576694
0.471099439812583
0.475251501980831
0.475619556962604
0.487289050246876
0.49691729780628
0.495664843293445
0.503953405226517
0.50739187702964
0.483274326303387
0.50570437484765
0.520099621836233
0.553224676769223
0.537022081171248
0.536326670605765
0.571066967209104
0.566004016538566
0.582598671867418
0.579121770527554
0.579922462630082
0.595946058722266
0.612442542022207
0.621055679897593
0.652050015235975
0.661919351628048
0.726252576464502
0.695003299157466
0.731939305142686
0.743711395292246
0.752438657841023
0.757590947501272
0.794743427646604
0.743682005844012
0.775877612119638
0.729884654269216
0.724437498526168
0.733681901165669
0.769151708088578
0.723238947284384
0.756881860468275
0.758837191540816
0.782179937986859
0.765742987461276
0.782098005715906
0.762867343987331
0.750739268261207
0.752309264105667
0.775076789234937
0.738022528703655
0.761068623408844
0.716062685832529
0.76355603819521
0.733245202393854
0.746239998947819
0.726799037907262
0.744205791122351
0.742554329760849
0.70396683266612
0.722117303863678
0.751762435773137
0.697655896354186
0.693462546672187
0.709206647250095
0.676321233631914
0.696990757589913
0.681303244390067
0.724050348224916
0.703692750092424
0.679008334043062
0.745893987353503
0.654594227356407
0.667867994796924
0.663936305653355
0.681708307685033
0.698730163424865
0.722087305192803
0.698263372261781
0.745073193281777
0.690802638003858
0.733349771644035
0.735085399010732
0.737877629358762
0.74836934390075
0.729684926001285
0.687616083355159
0.752087882517572
0.764186642406547
0.736470445895694
0.783895033491193
0.736701359344281
0.697187335037043
0.684250133655897
0.678324640567043
0.712216154980561
0.660991334902363
0.805310392076424
0.736170728004403
0.696503094526412
0.791637840755354
0.789958487158974
0.736974296615571
0.867244418204842
0.744525847539383
0.800000886195596
0.834936119310479
0.895015094613326
0.873590279067367
0.870799900731073
0.858648785509325
0.917602921383091
0.83441064128494
0.885799138696468
0.964952398922361
0.917750465187053
0.869999779275845
0.927422043747904
0.978833149636635
1.03485857879399
0.921530345285531
0.941156638089991
0.826509781929919
0.907454970035384
0.889997665787623
1.14650176432714
1.02437341109429
0.913513087117997
0.722795557169302
0.927723933437161
0.99514221958877
0.949701377622136
0.87081801445829
1.06240757090431
1.01097348657307
0.99788571275775
0.86145686127706
1.18745853052121
0.984586152280331
0.856303506250798
0.913801743835995
0.969518507121812
0.938554271977041
0.946653706958477
0.936851827144551
1.24252080552062
0.848513600156947
0.810181957373621
0.916067278775251
0.907135455532037
0.991572232635014
1.49383210786348
1.62752561718478
1.9711613856625
0.867625156399308
0.979583980236756
0.923116617319227
1.09462431803233
0.974172464991857
5
0.81590741653347
0.934058361972922
0.746163313962299
0.998845439271498
0.801764042454023
0.942128487870452
0.753019459428712
0.97364026997056
0.556721360407894
0.701595606972622
5
5
1.3726856958866
1.03714206496537
5
5
1.75741237006145
1.07357902681392
0.522188126806163
