3596
4000.36533379555
650.420452594757
1
2
2
0.0790959901928168
0.074044045368328
0.0855099371522918
0.0837601534086871
0.0729910216019885
0.085044337400248
0.0785599944393816
0.0773445654357208
0.0764502538447797
0.0812647504015718
0.0777207053804623
0.0765522694757794
0.0735516184661539
0.070544132360824
0.077774426235315
0.0852227124461334
0.0775076341040006
0.0685157162125237
0.0641359580390626
0.0685472368264251
0.0801347601319653
0.0801259766691541
0.0700708787524083
0.0781157064709805
0.0752420286107603
0.0788231336439327
0.0808182638819939
0.0805722801879355
0.0783230614293842
0.075367243969636
0.0665321128904376
0.0738537478737207
0.072216621114032
0.0770182237422382
0.0763372179378857
0.0806235161948828
0.0821422410052153
0.0803425342558144
0.0738986589279227
0.0758351582816334
0.0729886941544111
0.0806164056857082
0.080393833598398
0.0830870506052553
0.0670690923081157
0.0706758621166071
0.0706976306651936
0.0767416153330176
0.0774078274767973
0.0748140363212809
0.0705519318358144
0.0758501145328841
0.0820833309760505
0.0814308972628345
0.0718626684158079
0.081259581373243
0.0703085168791636
0.0774487825947443
0.0645642851509655
0.0729159828177288
0.0876598805112186
0.0901283112584752
0.07102398234036
0.0799452907039001
0.0684159645339679
0.0703680559901601
0.0732260205099498
0.0772757421885004
0.0716554152596138
0.0710303833485896
0.0740213029915851
0.0788091123697803
0.0954139641768667
0.0721412269209136
0.0732084172523467
0.0761387279381417
0.0684841450334613
0.0759034598622432
0.0674685870106944
0.0771046371185291
0.0854409445245067
0.0750658853990679
0.0730070706879927
0.0684918000128023
0.0704772485466616
0.0787996400537891
0.0713282245231519
0.0721927254059698
0.0911154930204013
0.0762806519801659
0.0694089517063751
0.0762847800989351
0.0673439455992617
0.0676298587386421
0.0672284891348988
0.0729697689568687
0.0723660074184576
0.0707517451015195
0.0772066726112535
0.0709553482165365
0.0735023982970695
0.088049669484212
0.0933728451999313
0.0817096240774944
0.0794708813838607
0.0899667913068897
0.0594899647804638
0.105925550078424
0.0835497638218095
0.0751796550263158
0.0693347605975034
0.0675614866298066
0.0693228979846824
0.0701450322027719
0.0706307221936645
0.075745967021028
0.0948926664671797
0.070173643518661
0.0689299648620743
0.0642404334739114
0.0567767022941066
0.0822666252642467
0.100250151548127
0.0738222424016047
0.0690759071672781
0.0638947069036885
0.072611152864213
0.101598553150027
0.0891844473437447
0.0732036545766027
0.0677062995142153
0.0714351887740714
0.0626674843063987
0.075536443688055
0.085636684552468
0.0726314807565164
0.059939317427322
0.0737431367715148
0.0754552258635146
0.110239354522947
0.0794150078537139
0.0652373726432407
0.0588816820945154
0.0769023295971033
0.0993238711408719
0.0809852827065762
0.0655725576535618
0.0844717893355601
0.0760716730907861
0.0650193067856849
0.0665005950889578
0.0674982399668213
0.0783658487488732
0.0674969303494889
0.0611966274667836
0.0747655669934675
0.106790171976977
0.0891314766502236
0.0891684148676905
0.0767555785814037
0.0604212876937116
0.0772447192842546
0.0564897563044668
0.072479784462126
0.0585284803533225
0.0720724953411969
0.0774125399011763
0.0977671141795301
0.0613173228370964
0.0759239102564708
0.0893928972064634
0.0760073603812226
0.0682568130342204
0.112859902029083
0.0801835266401952
0.0680412532733172
0.0902208001348496
0.078333444733675
0.0616675286833177
0.0806125531244074
0.0844039940712045
0.0762849731325252
0.0579011778447899
0.073650014058072
0.0709308921942333
0.0858736748169207
0.0729273282722302
0.0736464500563654
0.0653395561391187
0.0667395159299555
0.0708138388701413
0.106075794703572
0.0830725718379999
0.0782001177665272
0.0548846108312228
0.0612502211370393
0.0768258883899936
0.101155325624764
0.0633253443787254
0.0698364301524542
0.0647843516067137
0.0710344907078302
0.0613301421914464
0.0724543089492868
0.0578971767481438
0.0701935887051379
0.0758577832079721
0.0961651443156014
0.0609051711226921
0.0767280111303735
0.065873899765638
0.0846456667202318
0.0959163223461497
0.105136558112144
0.0699405780706524
0.0742364653864496
0.0617755693233721
0.0959527554510951
0.0740954606025974
0.0711562148029159
0.0662600171831609
0.075484785386046
0.0677431946605819
0.0736573692425284
0.0657341845950561
0.0773468061661717
0.0572203625707785
0.0721845358698906
0.0606872317923899
0.0702555953434276
0.072681405510718
0.0762922306339764
0.0639701064498691
0.0653933460748486
0.0587320277246716
0.0811692373352151
0.0820494275838945
0.0815995149621255
0.0658802889083194
0.0805882368514462
0.068342913595824
0.0769806927719324
0.0650243630002397
0.0719093332918891
0.0537905570147926
0.0843292942443335
0.080652876495726
0.0907407120894551
0.06165334789493
0.079268217991931
0.074246170607883
0.0936879235340305
0.0623184593064905
0.0725695363171667
0.0640073303442977
0.0707080392608528
0.0621675059795218
0.0946523832535775
0.0790964687465983
0.0734332267389088
0.0648833792746112
0.0742960805373852
0.0646226256275971
0.0687566160079743
0.0737904200414315
0.12170656338576
0.0842154615180547
0.086886301096908
0.103872234080424
0.0958184609387787
0.0716230389149941
0.0678384222128798
0.0593691169669332
0.13731383894895
0.103834390387311
0.0686068784270875
0.0728170026250935
0.0835985061629987
0.0800224939324672
0.0730691843295442
0.0706806764984076
0.0868911606924533
0.0948273062455285
0.134791060784514
0.0961142671068983
0.0892951505036044
0.0747344121240489
0.105237335627716
0.0652749178198855
0.0867548603484126
0.0702111628194541
0.0801284074008129
0.0805462293071489
0.101096072098181
0.0858063379530861
0.074102783581852
0.0794173542872099
0.0970640909786492
0.0872469767108613
0.0771454737404784
0.0792175632438689
0.088437340168105
0.081944709280093
0.0718138705557463
0.0785447229588451
0.0874356501929565
0.0742181724831617
0.0930327466810851
0.0998288203861163
0.0983821749152578
0.0886333544194424
0.0978158441623
0.0875101682868709
0.0845720377270793
0.0847892186248723
0.0803688833587089
0.076406248919392
0.0800458345156066
0.0837953824938972
0.101569587288431
0.0884187201299177
0.0869063616519762
0.0876937158286652
0.0899126588802
0.0881088120499223
0.0923294183162807
0.0936659087405936
0.0889986939270548
0.0832109924288585
0.0906599091679913
0.116014433343144
0.105626548116229
0.0881841724576647
0.121789490617343
0.108191933566017
0.0969240837993003
0.0883535319992245
0.0935652831785557
0.0840129647799301
0.104848533443736
0.0941502989989069
0.102329886244771
0.0958587013282112
0.1140367323171
0.103125065951589
0.110246516158917
0.106638328333248
0.165360210221385
0.12508563195428
0.1344256208463
0.100603631883669
0.116320259407645
0.126136243528728
0.134740614036235
0.130018330964452
0.135956826740569
0.122728870202077
0.113041681685183
0.123595032632431
0.126093054885956
0.119820753051915
0.124914220762597
0.124146726781011
0.126909649859918
0.132015825172884
0.140539709618424
0.131337345324553
0.152886981770393
0.160359806913715
0.146516307689986
0.143812241768547
0.141436457721558
0.141320522568737
0.172469548360533
0.178880922044809
0.196095023500877
0.171061741498352
0.217939325992645
0.172438739293133
0.178065631580651
0.155402828653378
0.178855594998983
0.167754579731129
0.183406609872913
0.179776081984885
0.184864729418523
0.16478825660722
0.187441100286962
0.170668449339901
0.198418239517809
0.182996392818929
0.208599970596793
0.194866859223076
0.210683079034916
0.189740887527049
0.219381227950244
0.209769855928059
0.29227552907018
0.230022922643265
0.223166753397148
0.22042776954095
0.223332160025822
0.210225378299834
0.218671255506331
0.234029716976522
0.240132313555384
0.238272658020391
0.270768012250668
0.249154409338662
0.276626652898178
0.241642507215656
0.266802852300498
0.260292893469443
0.277725041851961
0.26632450012875
0.296022734655193
0.270964911419029
0.284621527854746
0.286562289091277
0.292330647895341
0.290846657797906
0.296351961208068
0.286075337203864
0.292142400215306
0.288438204906454
0.309275162137793
0.298185855791375
0.333738552914159
0.304847774096475
0.32357650713926
0.319752175188226
0.330058415462047
0.330887623058221
0.37718598696694
0.332438666448535
0.343266056214211
0.332812444973286
0.373422967431501
0.329658954660238
0.359838567841191
0.374279736227666
0.397682378109282
0.377074272055979
0.392668467837359
0.354440677908313
0.38523290319415
0.391707107217314
0.380554366059167
0.397673300073281
0.409278279164879
0.386251709330061
0.405883076859552
0.393983554573884
0.419312854534657
0.41681302623443
0.421551184820673
0.41013681488054
0.446907997714243
0.426893614698945
0.479675676515329
0.430836965015098
0.469137569060859
0.479116182161018
0.50964487665943
0.475503301892473
0.491092189598551
0.450614310174734
0.481892483367441
0.460233756238672
0.49311591551516
0.48909025731488
0.513853600476556
0.487850608466352
0.535060088598369
0.507433379356039
0.519097076605266
0.487887686985611
0.539148209905524
0.510852955777045
0.578711414079273
0.548420333353081
0.587436302537404
0.555963050630404
0.580907008163062
0.546885899299335
0.558845472805279
0.545324408356573
0.619444775839048
0.556756303261179
0.600485234481176
0.571604470357427
0.622635553990731
0.586303773031957
0.62898641355916
0.591676941522941
0.619749526992303
0.591262408947806
0.644587522106795
0.591121528643815
0.666933205687197
0.615919468531002
0.646521318915084
0.626532409275313
0.651008961183103
0.653757534634816
0.704639588321309
0.657652972152546
0.694928202501642
0.659239782417999
0.702569273743169
0.674501709932672
0.782001843661782
0.682229592696498
0.709753702768613
0.701775604410825
0.779771659037082
0.758749204057861
0.749420530513028
0.736324103461922
0.744606643467677
0.730755173645764
0.784597725971665
0.728825192223853
0.78530704868189
0.735672065628289
0.810692956651501
0.755082271768051
0.795510223445946
0.79437001336692
0.845071886947772
0.755349621945097
0.837018727753424
0.799810921112235
0.867524592367689
0.786312010092655
0.827128686013843
0.793280380163186
0.822969238870255
0.840976357758828
0.880651786664359
0.795814136768019
0.8818302660274
0.807599443340697
0.94425731148911
0.818901882831644
0.928000781118399
0.80496646168843
1.00472572962102
0.857558793797368
0.960511681126164
0.895599598751044
0.964335294299652
0.910775053334391
0.973646665629649
0.935333210046588
0.995466521346349
0.928340602028306
0.9241163162516
0.948987827830056
0.938276921610713
0.957221182964575
0.977116498163184
0.96653525741199
0.984729226877033
0.922695674542291
1.06034343130593
0.894651497652665
1.07557385974256
0.896487317959255
1.01679876911703
0.961635643806947
1.07597372591718
0.997631969056957
1.10512271174425
1.12019073156089
1.10848667286027
0.976078195966489
1.05094693764124
0.976247935618205
1.19225172803036
0.98762711371781
1.15088548947702
0.987748573244958
1.13945530887746
1.07397498771664
1.11491586830574
1.05047666994496
1.13125284308605
1.07050398536313
1.13641308870846
1.07587218039452
1.21400022423091
1.11736899413527
1.19458322056888
1.11141405626017
1.11737203521834
1.13477216027155
1.32843387211962
1.07871734730903
1.16434758109061
1.10040965841753
1.47547833832118
1.13162200594498
1.42064874358276
1.02304983599555
1.21877804467981
1.24094492911021
1.22645112541888
1.16233562083856
1.24682557427885
1.18330132539396
1.24060459341682
1.26594955821452
1.54739099688282
1.22111348755931
1.3030351778215
1.33560210058475
1.36820505597971
1.15882227744983
1.46212285764625
1.20754548809178
1.25223438363196
1.30025374774976
1.43391790124462
1.23051896565966
1.45343550994696
1.20128239193549
1.43400333458806
1.18499014954236
1.61872316208605
1.25291587590679
1.45373425375974
1.30212240336441
1.37828826664547
1.30462148410658
1.34747149544481
1.2906143951316
1.45635285507436
1.23509701000799
1.69271108755324
1.28484008420644
1.35872622076062
1.2893362342028
1.54943181685314
1.43833523093748
1.63443406161628
1.26560400082348
1.41829583277724
1.17237544599669
1.54009883088302
1.2601807141562
1.35368165913851
1.40430067102518
1.91551390816609
1.46629877386325
1.50993954376751
1.45914779194334
1.60532414243386
1.28289626972453
1.57711572115066
1.2312452863416
1.67304391132279
1.22507369141325
1.60361905071477
1.46984478338673
1.63726939857022
1.28364360869604
2.63388209610007
1.26629332816901
1.56068625792237
1.59748053929812
1.76847058324447
1.3877711850116
1.52377838619755
1.33477204761431
1.66219016726493
1.36760850862475
1.51549782345443
1.49504018515508
2.06856030148917
1.40274813874516
1.52882885183265
1.57691251003711
1.55854811922921
1.35972166790262
1.44816642023136
1.52594975570816
1.64336891541493
1.3753792937829
1.79053726147332
1.42471578492847
1.74553988437603
1.61323092660049
1.62158816469935
1.43912606465796
1.75758983026209
1.48996712380479
1.80855208349513
1.37929191525489
1.54040871818921
1.49122213333041
1.67566479001967
1.56343586691455
1.73025141899182
1.41789333492297
2.20202881502886
1.4410940384192
2.1054474499987
1.3593118989217
1.5869172255927
1.3805668267733
1.6027027459375
1.36656274376062
2.07893933300219
1.56940655672107
1.77385380306685
1.51316941640445
2.39193012036446
1.56547797731588
1.85268944358443
1.39761396114465
1.68302404201236
1.46349577669247
1.62795539783863
1.39677241808438
1.65238348852581
1.4654008054343
1.65006618560162
1.56248864965513
2.26386697774304
1.41965927948778
2.11597305503183
1.54475132935548
1.66272613855742
1.54450438498168
1.92963251171089
1.46941187595932
1.67400054235102
1.52952213462375
1.75007667303037
1.5257227007305
1.75203503746451
1.46725563792815
1.49019508351994
1.38163766763807
1.76724905807359
1.46942166211755
1.62264841563299
1.42842163294706
1.68196672443975
1.37815966252388
1.53932692582366
1.58105368262598
1.80408423381796
1.53341820886739
1.69702980050928
1.53080097365462
1.85530438177909
1.61831561100721
1.70109206325125
1.48135336588069
1.58035967312496
1.48560408111005
1.49636610031154
1.52565658426373
1.91847593345739
1.48196947045285
1.53247657315754
1.50434919477839
1.6221493030512
1.63466950829722
1.92752167410648
1.38257940157221
1.68073775722611
1.49666936243606
1.74774308878984
1.70208086255928
1.54285279916957
1.64231375423578
1.64520864218256
1.38233364840781
1.71809985276084
1.5500019317845
1.81291293682096
1.50029830125797
1.82158307761665
1.50152302888818
1.66086492049658
1.5694920904007
1.6646851308608
1.54137752265108
1.50086369664375
1.61354972540932
1.7843681946379
1.36348020353584
1.54658157987338
1.37287899818637
1.51166502125891
1.43439617939776
1.72542578511369
1.79084562608759
1.56290846457
1.52757089961178
1.67912401184297
1.62224917694459
1.57644654648236
1.40950003703449
1.77561919822325
1.38683519771142
1.48016774995392
1.55794902441741
1.80884085099933
1.40999386952626
1.69129782083219
1.42403988000687
1.62577530214887
1.37952390030244
1.67807213633413
1.38701348956883
1.59928963966446
1.47530316456091
1.57435073333896
1.37328904478473
1.59452115001583
1.45452679774204
1.49014193703026
1.57930979065401
1.53739768276384
1.47550548875032
1.56742468645559
1.29252452576245
1.41191987402706
1.43838610174586
1.50421954548976
1.3948267316435
1.39596879241598
1.39579248386418
1.57007382129465
1.42397664000439
1.48365749269155
1.40472043811102
1.51952157473147
1.36442898901777
1.52629389710094
1.44995761403091
1.3869839729361
1.29608106198844
1.46218472250843
1.36767411978787
1.38338568505926
1.31357686583684
1.43273368952972
1.33501652430539
1.43761259432895
1.39142935513913
1.42386635206006
1.35797173397458
1.37327810798522
1.32111507585531
1.45412936971245
1.27430977242043
1.35026599498455
1.32697806024809
1.34527310520753
1.23893802367171
1.34315148787885
1.43068857093368
1.3682025992879
1.23636352602371
1.42123944817218
1.25431178252255
1.33328816328163
1.24238500699676
1.35270398425686
1.25589048848002
1.34813685153753
1.23439322014439
1.25546541232644
1.31020411119011
1.26553173210264
1.22034469795039
1.27192363251482
1.26025689380925
1.27461384032205
1.17854943213917
1.27290742397198
1.16959966570407
1.24314935520905
1.18615457499433
1.23744092877064
1.18934034502247
1.23648165172926
1.18545660949792
1.17213571527674
1.1600187226228
1.18241306320895
1.14243201049508
1.1614839176835
1.16323268416654
1.16777712328044
1.13191539831513
1.2267076641204
1.13097226730649
1.1640988700534
1.13834879459546
1.22166364676064
1.11045804970995
1.13150096961208
1.07271208404972
1.10081594330838
1.06948089173714
1.08653361478515
1.06360274072212
1.10006072125427
1.03063815266695
1.07950652447201
1.10042397426753
1.12916419362364
1.05973503014525
1.04756731694759
1.02020962766114
1.07227399045079
1.06417979115178
1.05676190769654
1.01396548928665
1.03990120599738
1.03611255969125
0.987972265285929
0.991354139792193
1.00895034737993
0.970131376812395
1.02079026335608
0.943010903624151
1.02049220112712
0.991662254638686
0.999159484918744
0.963944137815595
0.962759225803141
0.941137710946913
0.965853238162647
0.956158624710942
0.939914161096837
0.907257813654253
0.933447121341919
0.901425673188575
0.939120617622707
0.926340632991679
0.902584566797958
0.918373510824813
0.906159968520063
0.892818921367815
0.905429935559412
0.889579713047983
0.909289329257807
0.88139639910857
0.897080704398308
0.859382170093274
0.866965687151479
0.846446604647019
0.853272453172903
0.849215474320547
0.870498188913125
0.840929564429907
0.854948288228901
0.823764507682554
0.838093541130844
0.813312323383795
0.851263166160354
0.836571788006677
0.831907809031189
0.811023173793012
0.819036288280368
0.786558266812042
0.790693593767094
0.770429339410933
0.799710218957882
0.783203283773108
0.811460924694566
0.780282401288212
0.782897262007672
0.740942013266975
0.765008592327694
0.758402054502857
0.782112447265256
0.746711610725922
0.775660071754182
0.744750576038447
0.744929002463433
0.738349580601756
0.752339078423004
0.726028185457298
0.753206500563469
0.734381308275197
0.72608363120057
0.717477938209568
0.724708708398248
0.703175276228351
0.711399919748739
0.683913843054948
0.705692139416144
0.702483842975494
0.716015789370117
0.689971467153954
0.693276801516825
0.662233147502922
0.674213805759487
0.686576764670964
0.680281816188091
0.679670257805689
0.661484782622106
0.650986683958677
0.649862571894504
0.648044980128248
0.668187599647765
0.63872034058441
0.641023124218019
0.640146577090587
0.644238873736412
0.63694892195831
0.645040635771523
0.619535046169241
0.60745499313989
0.618142914194579
0.631639806795879
0.610496926500951
0.615726199041754
0.604040704185978
0.609682641772474
0.600011175895887
0.600084837044805
0.596007914841445
0.603267544873924
0.578249991988989
0.583135598098182
0.5752034226292
0.574019431197895
0.573141147109082
0.581392447264962
0.567293479431323
0.564762664631415
0.570910941181151
0.568978245066014
0.567491871809591
0.5598911213745
0.543707168294831
0.563511993102225
0.547534971292879
0.542746989360352
0.543994836267326
0.556874225998639
0.530409252228013
0.538766283246321
0.538085378413064
0.52981074103483
0.524428405958173
0.525133004553233
0.521070566312663
0.532090190711499
0.516545216992461
0.524310879763546
0.514368902884724
0.521862347462121
0.515875684170389
0.513760787375594
0.505826145872192
0.510724501375126
0.498300532537769
0.502632909630651
0.50732579168435
0.506651736852995
0.497939916137829
0.515790086766063
0.503014490480661
0.50951858342398
0.48602510915517
0.491541563913452
0.485662044732971
0.491134375094305
0.483413511853878
0.486322945810702
0.479309436648132
0.504664316969396
0.503850846582258
0.501171823647477
0.495378558312896
0.49679686500558
0.487118570657273
0.495527348473948
0.491831634055298
0.508271260391345
0.496047254588972
0.488473589664725
0.489496332733988
0.506756911233913
0.498613108822696
0.498097014438782
0.501154407113217
0.504534240539368
0.499347613585551
0.516629480069919
0.510898579031861
0.519296218805054
0.510143183734805
0.520929725635143
0.51402744989851
0.53285377230149
0.519151250450423
0.524557746115147
0.525846604696603
0.531825418488002
0.528235483649914
0.533338102532198
0.536639103985624
0.541488758058551
0.530435430404872
0.547248321695525
0.549783064274946
0.553255763073247
0.540447310527578
0.553074511421415
0.559064764889517
0.560337536796057
0.565993186091706
0.566309537723036
0.561669321394741
0.577582572228969
0.582611126063859
0.574369816498411
0.572119384271741
0.593882496705461
0.595716586555207
0.597058321288052
0.599179777830152
0.60325190056366
0.610721508088309
0.61537845034751
0.614713537769335
0.630437343666037
0.62588381622722
0.643117552673935
0.620327856566216
0.633158835509292
0.648326342062102
0.654675047397781
0.636536759378592
0.656565577623791
0.637924377676459
0.63233322606321
0.645607380462552
0.663018979340327
0.656545080084215
0.6551085234267
0.658305572871089
0.640918346169701
0.645873953629477
0.665494399254745
0.654726480558335
0.661428684163609
0.650685134497599
0.655663487091378
0.642582527232228
0.662095290409725
0.665079793405061
0.662150646629891
0.649730887379202
0.63870892090515
0.646877608393669
0.650156348732026
0.651120520737231
0.648104767151638
0.628621100861322
0.634627721011296
0.642372211288044
0.64576520527417
0.636318229408252
0.633378882031836
0.644948982865009
0.645832770997108
0.644742681589685
0.656245588950515
0.647200014207971
0.649428645368316
0.657256396941181
0.660999111025394
0.656281686620256
0.654562961551112
0.652224194227207
0.640885733253311
0.641381623051395
0.641079773024582
0.647070122747202
0.65662645259312
0.645869651306984
0.653905008401417
0.646324627723036
0.650601080925159
0.629624115623753
0.637787704917161
0.657569688228874
0.647058274175077
0.621152124449819
0.632292086119952
0.626977400815008
0.629047265721828
0.628036357329587
0.62426487559134
0.617840916821705
0.617340619033451
0.628015013186613
0.623118702107307
0.61252338186813
0.619413610673665
0.610157387544251
0.610158826218233
0.60272506670391
0.605024641242172
0.597792483221041
0.592207344127066
0.597340004108059
0.580794998612555
0.571708940142992
0.566565501434679
0.553600257782916
0.562999137383116
0.571447564079674
0.566713541819451
0.56241884945225
0.549690060916393
0.548012919708634
0.544492474769161
0.531742338755202
0.533320546847024
0.532230987295865
0.527995737590099
0.516981121978516
0.520982672980366
0.516420561360886
0.509652146509816
0.515454239168858
0.517619890987295
0.502081318728399
0.498620887603989
0.494662252739733
0.490446015763335
0.49311476252075
0.495930367231676
0.478744156565071
0.486703432838923
0.484126925378558
0.467198598165241
0.474374466353197
0.481039105382175
0.471606453195877
0.463451933275142
0.456239430104268
0.467154991100004
0.474572851889053
0.460752413837127
0.449141107278096
0.455462132129058
0.451202246868098
0.448442086970404
0.443975581285256
0.438978492711797
0.442370266080558
0.440016406320562
0.436225898286799
0.438775133773444
0.435257958992409
0.431046893436596
0.435100476897572
0.430141423541317
0.417484860062039
0.422801075633776
0.435487305114476
0.42980123284875
0.419077312836223
0.417993700058126
0.420090096989805
0.42071166463741
0.418877455901474
0.413870807344238
0.409784272340227
0.411025560254164
0.407934962568298
0.407846114578413
0.409668423877894
0.405127930764304
0.402587474820397
0.395178065457353
0.399713596119641
0.394881199038882
0.394481743771039
0.392285760385938
0.388656026511336
0.393040957274125
0.392932353005861
0.386807134144833
0.392373878060473
0.388541492060873
0.3900168268902
0.384774658932354
0.385640625061051
0.385791489266417
0.375071232975798
0.381149462640159
0.382869749181542
0.376024059122556
0.372788073829478
0.367148387260124
0.379788762369837
0.378202837087592
0.372494762364572
0.378723756972475
0.375319304037388
0.367641679613435
0.372021334338055
0.368986633853117
0.371552387085562
0.370219356044656
0.365448652661742
0.362115742901306
0.360219145684725
0.357969883008053
0.363879127245007
0.361378227992824
0.36363041115098
0.360251746423582
0.358286140374469
0.358519290407845
0.356844428596261
0.355759834095624
0.36063623709826
0.352078579793649
0.350835702717994
0.350399702348349
0.350687059192309
0.348267806913942
0.348220648596479
0.348200517514558
0.349615208529662
0.346465830314738
0.351147403098767
0.34288012863612
0.347132313689007
0.344653449914209
0.348748312652838
0.349499467208509
0.341341220335736
0.343440801569121
0.351261339007822
0.339707752072573
0.33998823767867
0.340267486752276
0.344655908386521
0.339924108844809
0.336951241548278
0.338114917537409
0.342886367220496
0.338101029900179
0.336640082027573
0.336416826816981
0.340711593266839
0.331824540755116
0.334005863419285
0.340941142621776
0.339329062102058
0.329896287928574
0.331982925974647
0.331971781362562
0.331299536484748
0.331727474746973
0.330548497540843
0.325527247463906
0.332272711781282
0.331617812375187
0.331264984082965
0.325598139484574
0.322624813105017
0.323007357158341
0.329497762387101
0.321337752720299
0.33249803386929
0.326792721309272
0.326249474128028
0.322985409508514
0.321715406836998
0.319410703569306
0.3229012010192
0.317207418038064
0.322798180433639
0.317855881510001
0.323748507915526
0.315206940220416
0.319405763377371
0.318730058592012
0.314222898765752
0.313688008636158
0.318787006988901
0.315604916697838
0.317369589081704
0.306185877506282
0.316380234868909
0.312163927133129
0.310354118786185
0.307799089558664
0.305595586062687
0.30234497508416
0.30381083200328
0.304543770818616
0.307827573275022
0.301651185812993
0.301620593888143
0.302649419077071
0.303819002188765
0.298694078368305
0.301508116135976
0.299511712731296
0.298529735908901
0.297122303451254
0.298127629794351
0.297736999376811
0.300002921215678
0.293562810159121
0.300692180672012
0.296691825800663
0.292438351067003
0.287690427372624
0.290437205278158
0.291420913168534
0.290784569695839
0.283492542220709
0.291567948790063
0.288831485614893
0.285549590984628
0.281883119831216
0.285993725954294
0.277913455881196
0.283182401104408
0.276513479517101
0.282376732817928
0.282128657458879
0.2801203242866
0.274676578413886
0.276853578363972
0.26742839065822
0.275942632938291
0.269154420081909
0.274126830219286
0.273986996581945
0.274220822751133
0.269590406787985
0.272178125679137
0.263946121301788
0.2683968627465
0.263079398962078
0.266016341127029
0.258806693134281
0.255886017761984
0.259284622769388
0.256696727026057
0.254422554752193
0.260033308075162
0.254158385725539
0.261370405805989
0.254663946479055
0.25430616595864
0.255587906008919
0.259778234854149
0.251329884730713
0.255502438052254
0.24715645274814
0.248930296752958
0.244427267751257
0.247526936921335
0.246666382932166
0.251037883529891
0.250138828545592
0.252046258226672
0.240906945561701
0.239684217830361
0.23934379051752
0.245314727177247
0.239378272724416
0.242268026995981
0.236865705321536
0.238277732656425
0.242141598817369
0.236689802492261
0.232471345542343
0.241151617157499
0.235448957677463
0.235959552894209
0.230377321455461
0.230894204594683
0.229901188841238
0.231081741089277
0.224481404725725
0.229432173689507
0.229469156200461
0.234883786824534
0.227511199945593
0.228928339293445
0.226383204401166
0.227159794529599
0.218099205547994
0.226122490947118
0.224315120820946
0.222848096144135
0.2202310566188
0.219778052815534
0.217434857147737
0.22228073406178
0.216057867444493
0.22645220355449
0.217917655816635
0.218693707065613
0.211803890232009
0.218600501019562
0.211590848834875
0.216437995124055
0.21347688391077
0.216714621404453
0.214820884306074
0.219246812616316
0.215430937267656
0.214650663568296
0.211342105230551
0.21254926915374
0.209279722505588
0.214217318486955
0.210277908391442
0.212082958584475
0.209375142904688
0.21122455657524
0.210044086462833
0.214488215826086
0.208994076958701
0.211521537419951
0.20734353299452
0.207973406953192
0.204968834733287
0.208747738057027
0.200879496306618
0.209704325282539
0.20582028983492
0.208742260677141
0.203007264397354
0.206119901136472
0.202660755053691
0.206806185946408
0.201620888786964
0.202917692618117
0.203482643974883
0.206609422768439
0.202258049893005
0.204863224474614
0.199433552031928
0.20268101084102
0.197771902038129
0.202413961957865
0.20170160875197
0.202550074618296
0.200629212804492
0.201006828513882
0.199424986040612
0.204936101234191
0.194933490707564
0.196765634901695
0.192244394906794
0.199224491365827
0.20023792418056
0.199665278737697
0.19512830949078
0.195209745758643
0.191792218516849
0.200028638170579
0.189605259132155
0.195593712348647
0.185617935976895
0.193915973035755
0.191522579625061
0.188436647468113
0.191488002196381
0.189910286384992
0.188057073736687
0.195541840905115
0.186627945300151
0.189242214704953
0.187168906434139
0.188097181735095
0.185760075034415
0.190012363461517
0.186235148959085
0.189504971447116
0.181899687016534
0.192834132679334
0.184695812075526
0.187381149526582
0.18416945133351
0.1898215795865
0.182452093990208
0.186076371925568
0.183566128067234
0.184949964283358
0.181460951481423
0.184923217640033
0.183190748453747
0.182517639846185
0.179678997297402
0.18325951158155
0.181196034605811
0.186271182248332
0.177354004791079
0.180280501711267
0.177939274235503
0.182058642205103
0.18161741436168
0.181295111511222
0.177105500434858
0.179516960430688
0.174364416378523
0.179048934408169
0.174589326902539
0.17735493483743
0.176229564718805
0.176394328782829
0.168489012148398
0.17603364733692
0.171433610777356
0.176401980298056
0.169513403976161
0.171350150453523
0.168022557594681
0.171895424637869
0.166817853123015
0.173262691037538
0.168250284400582
0.171051389741592
0.163097789861948
0.16975127708119
0.167712011768819
0.1676339982758
0.163202477067427
0.168297891808589
0.163670653967866
0.167895808504498
0.159090404590018
0.16416226524905
0.165247324949584
0.166233772877145
0.157028787098782
0.163469345476756
0.157729472069291
0.160620513864229
0.154558698930363
0.161544703749239
0.159115123898963
0.15932177544883
0.155514395544465
0.156270924294792
0.151357350446376
0.159202673637014
0.151532885157175
0.155508382703319
0.15071909921132
0.159158845604666
0.151440816813785
0.156315510343522
0.153575422992335
0.153344693693537
0.148923335284957
0.153224144715763
0.149327239226157
0.151941019457395
0.147579197051959
0.151177614539974
0.147031268816798
0.152625116559316
0.144355518678058
0.149389844996387
0.144012674238646
0.148839641005855
0.142897082140541
0.144675154373235
0.142317064567744
0.145508842469426
0.141113417209939
0.14542467467508
0.13890002936807
0.144729213236958
0.139832449405593
0.1458511476214
0.137364391085864
0.142398200772201
0.13926158489472
0.143131473431179
0.133478789320865
0.140558736085795
0.135500463451845
0.137754164330183
0.135785650333235
0.135965440637927
0.136391717005672
0.14067150368561
0.132492478712598
0.135785335457201
0.133967803920615
0.13488697933584
0.130463092245521
0.131593091605921
0.130148540110031
0.137943619539865
0.130686777423326
0.132907846125524
0.129912467168878
0.132989702738985
0.130657501251229
0.12977365809934
0.129096983583816
0.131264092807526
0.129887975092786
0.130947515141154
0.126715065758057
0.136406428519899
0.128732163292304
0.130400119233634
0.126400069202384
0.130914264579278
0.123818475393214
0.131399190981384
0.126348119766859
0.127984124473414
0.127040330391416
0.131882259758705
0.124544893784474
0.129178361233073
0.126245124290522
0.129490695729178
0.121545125423421
0.127366972387504
0.126134797745132
0.130370445699626
0.125164992957431
0.132076230991628
0.128065900330392
0.128577791526203
0.12584451606886
0.12887322855602
0.115672262539508
0.122920665669929
0.113955010202556
0.12649927022318
0.116213683977732
0.119302441455518
0.114645351286099
0.119258136428872
0.112974528197394
0.115950590471016
0.113040798387202
0.128037333863505
0.112078173273097
0.12749950142273
0.115604714024604
0.11922233272928
0.109479680336594
0.123562185657693
0.123706093658075
0.115013190864666
0.117621960983265
0.122620138490528
0.121252129439777
0.114394077664761
0.118037866690554
0.118864918720032
0.114989270886292
0.115695759029275
0.107890946655053
0.116443200110534
0.111149282385943
0.116560543449246
0.118170852162985
0.117967337231779
0.118381169434569
0.114601003387075
0.115029906997491
0.11187780679492
0.106033832126464
0.112349621686179
0.111098334286208
0.113296633578396
0.121180917598876
0.116136312101116
0.112776660245261
0.109520421925688
0.113193827913573
0.11872510533033
0.119262095161063
0.109979059558292
0.106575128536198
0.123122377961111
0.116824279943264
0.115517132869661
0.108731375778357
0.124843069027454
0.107637455187727
0.118057016961316
0.10966152592076
0.123409936445372
0.106001592679818
0.124252403473671
0.106336981585366
0.121600548438753
0.113443389648005
0.115486030539597
0.111504748501439
0.114234948393588
0.113812822896344
0.115646258208546
0.106510600360608
0.112838491248142
0.112708350672533
0.114541928067852
0.108815602929826
0.115078961910471
0.110783785866006
0.115146076077259
0.10741397847504
0.111672502446402
0.108970782296725
0.115324506280254
0.109152591791765
0.11238239114895
0.111554294150673
0.1150005437216
0.106842312476322
0.112822915687548
0.109225110642619
0.114825663693246
0.107974386064391
0.112787297259364
0.108681605200591
0.113583688972458
0.109883985220524
0.114761625018913
0.108980671015544
0.115062270338134
0.106892153567741
0.113765978617203
0.109347933524578
0.112337553408459
0.109813776477031
0.114031153068994
0.109031739558763
0.113268877014232
0.107787361249939
0.113428356119672
0.109638566006926
0.110916290136889
0.109854991815564
0.10999213485527
0.106434212179723
0.110400675608071
0.110229272634124
0.115833580751018
0.109501057761018
0.109786951347109
0.11110409432077
0.114641609792474
0.107115590178081
0.115922057367939
0.105533349200147
0.117246806135888
0.109130736520757
0.113821328525906
0.109939906559856
0.115128285109979
0.107156885283731
0.113568027637365
0.107827948862024
0.115896056089384
0.111036222502248
0.11486718113202
0.10973089414645
0.113556793216522
0.106960546595676
0.11637491102212
0.107606831463359
0.114745585262578
0.107305606481082
0.113928259752145
0.109233373267001
0.115413904198333
0.111661756077595
0.112159415869354
0.108367840537267
0.112543398832741
0.111634492881246
0.115870209397005
0.108796758931795
0.113361545127184
0.113289569904058
0.113479285598052
0.110209977887963
0.118717020760868
0.109188168302141
0.114797744806691
0.109314193886258
0.116009367182311
0.109745851336307
0.114191294825693
0.110504599526989
0.11626248494363
0.11612728954111
0.115109546103829
0.114363550983925
0.115088930536757
0.113593455809773
0.119054565980189
0.114562541923023
0.119693264576806
0.115261359635364
0.119968474726746
0.113703556047324
0.115812196904674
0.113529332584728
0.118906240062346
0.114066731585344
0.116846619639688
0.116495558693132
0.114569960006451
0.113848695608147
0.121522992216308
0.116137338063283
0.12167426953061
0.118671455892774
0.120589910390937
0.114503370404583
0.120674838556617
0.115906691252687
0.118454686388847
0.114109185923962
0.119635957190608
0.114759603319445
0.118675060146854
0.117318162225599
0.1205586615854
0.113947208700117
0.118855889369299
0.118090703703683
0.121361101215812
0.118873289744363
0.121869029907131
0.116660803684664
0.122115315978683
0.117813185842085
0.121993826720595
0.117651116393344
0.12144559829432
0.117505484238148
0.122612033756633
0.120376497780136
0.123491971676271
0.119027303470951
0.123517697733576
0.120129997219674
0.123571694323902
0.117648350759551
0.122122963867588
0.119523868981845
0.125381379896662
0.121290497754926
0.124374446347809
0.120937363503873
0.123822149560628
0.11896022163153
0.125299991829808
0.121703711081431
0.125131745571132
0.121630573744068
0.12340452735272
0.121096006236977
0.124838935004886
0.122267767466701
0.126134393980467
0.120044646215444
0.12482284743406
0.119259403499703
0.124676903781771
0.121464337456377
0.126379239401805
0.123420824484916
0.126829547924141
0.120017886352076
0.127699940766314
0.119233074199029
0.122842163869556
0.120112280754097
0.123176515576627
0.121532724788968
0.122453657557551
0.118763677236893
0.12026572064594
0.119792658750609
0.123326508486767
0.118027604406539
0.124989916870275
0.119403481381649
0.122319847582074
0.115767872635449
0.119222576883843
0.119775898531255
0.119176575965791
0.119387493687324
0.120618136587564
0.115942763892705
0.1181065385513
0.116413078635828
0.120952724496533
0.117752548656683
0.119667863616825
0.118956099233672
0.118117417325446
0.115370772196948
0.121738575847289
0.11863524164511
0.119962442583596
0.114783708867703
0.11861540040634
0.118338219379166
0.119794134747638
0.116944395537531
0.1206754583915
0.114892129960113
0.119579800983638
0.115382431157392
0.120046494742465
0.118243325250969
0.1189736642417
0.112282359601291
0.116651221687574
0.113640768544685
0.116627934968124
0.111037470941953
0.117791851547244
0.11354664451986
0.11639471117372
0.11614634307387
0.117639511529698
0.115205306241998
0.119624840622211
0.111679838459424
0.116544700724141
0.112263591173
0.11502041880967
0.110693018529217
0.116894650225257
0.111884415565992
0.112665332095225
0.110154238184697
0.116808166099631
0.115620669709782
0.114926070656617
0.111551068048517
0.114860776710864
0.112526691039051
0.116987153585069
0.109957183297909
0.114378708926496
0.109148695993606
0.114797156396379
0.10931742133282
0.111919639040513
0.112079993925692
0.112957557052474
0.107076779230606
0.114266113249091
0.112068975881813
0.113637461821667
0.108451018234583
0.115636462599673
0.108492305460076
0.11358505541435
0.109116005926389
0.114266892490172
0.111019167198684
0.112084230616585
0.107916030745143
0.10894370248767
0.108844120442951
0.113198891645924
0.107660689447482
0.107695525820511
0.107115477243066
0.108724395645677
0.110690783590397
0.113191552287471
0.108671125051594
0.11370266980396
0.107909678113374
0.114157822958427
0.106078591584261
0.107928661338034
0.105298270317119
0.108260704789542
0.107095435580055
0.105753309819309
0.106531695086295
0.1075567942451
0.0997758670638588
0.108206503742706
0.104408240101695
0.104105631928958
0.10188333164782
0.108517334633193
0.103436006816482
0.108579921328674
0.101463241868915
0.104343423745005
0.0980571833078721
0.104464234725613
0.100293975657283
0.103060180048816
0.0994681406696724
0.10110242812599
0.0998587302011086
0.1044918141968
0.101249547565554
0.105455642966187
0.0988540032125048
0.101254502872229
0.0976365390423367
0.100132413647129
0.097697161978517
0.0993605755176192
0.0968165474794439
0.0968737386023228
0.0942776672801614
0.0992651766224228
0.094909088200601
0.0977547380862717
0.0981543862542929
0.0957210157668646
0.092814125261134
0.0967119528765277
0.0934356669964216
0.0917859614083963
0.091515015176582
0.0948566381854418
0.0914016631804326
0.0952429850857344
0.0921933048293024
0.0922037686047179
0.0901053833355801
0.0959402086457195
0.100757276163082
0.0943752552208914
0.091258884189036
0.092789164176616
0.0920150206739542
0.0932834653769189
0.0929746789773792
0.0948912830713179
0.0901513899134191
0.0948935608841699
0.0887566202205297
0.0935134585730658
0.0891836776621792
0.0900753502129611
0.086695315985367
0.0921346961490458
0.0880588799109125
0.0909642606087554
0.0866491222784399
0.0890039663425628
0.0894241970873048
0.0918720521431401
0.0868834779660927
0.0868822567058848
0.0879412620776432
0.0878544129643461
0.0880161834415885
0.0924578626575568
0.0887571025823323
0.0900016014068754
0.0852344974795976
0.0896021862932959
0.0837831156694396
0.0898915670846995
0.085592329714184
0.0897805359355634
0.0878810004828482
0.0875121236205282
0.0839639732950575
0.0890552034437764
0.0871217039714003
0.0847947826317369
0.0834873944845931
0.0857377967552588
0.084999368402633
0.0859894458771714
0.0830827152098573
0.0870052739022573
0.0826714974164755
0.0898521098612885
0.0810265893129806
0.0856083096744614
0.0839339567308406
0.0976606837762468
0.0822142824932937
0.0852614806246237
0.082263055799268
0.0802253728618005
0.0811923218928459
0.0832113897714201
0.0819081756194823
0.0843980241872979
0.0787705452439534
0.0842827272891289
0.0817294472770827
0.0827387904552924
0.0803001903295837
0.0830616678008749
0.0853425338168775
0.084312009986205
0.0809148667191211
0.0817691985600851
0.0802109567008998
0.0849867717660527
0.0909645344501494
0.0883120009745484
0.0795987176564695
0.0863737827958992
0.082852302075578
0.0912257566946802
0.0877187900848225
0.0793364655118354
0.0836641064251641
0.0802961904460419
0.0827285345526923
0.0818210974201647
0.0799212168286072
0.0805238681882398
0.0859001890803556
0.0837271728601976
0.0832375991521434
0.0832457604709627
0.080419955666747
0.080009467155402
0.0793545638704354
0.0817770655888193
0.0795307113651609
0.0810279604680632
0.0793308485066226
0.0794219066553022
0.0782842509644503
0.0816627841092814
0.0800256582552931
0.0846148627449494
0.0864897723615004
0.081232596854302
0.0787592201941692
0.0796310832188478
0.0810962229976272
0.0861804428182587
0.0879556253008472
0.0802673314990097
0.0773636076054046
0.0808772119870243
0.0783574981400977
0.0827662519087835
0.0761056821445844
0.0796410995764746
0.0754662399220523
0.0790529602586371
0.0754610564783598
0.0803106669856661
0.0768332771092687
0.0797012618247968
0.0795792822589719
0.0804229225300878
0.0770333424713888
0.0801489539364546
0.0773053983674054
0.0819798496753466
0.0787925842043223
0.0889021732645694
0.0950789779104749
0.0878640686229974
0.0852535816811961
0.0835097283983058
0.0812764252337901
0.0809780756245029
0.0800238584866388
0.0806598927642758
0.0803017978031144
0.0794913396678923
0.0790109305950744
0.0806498954065878
0.0801607953478609
0.0768132410909464
0.0782840831509919
0.0791511002690427
0.07586729969679
0.0799009666296225
0.076812456517182
0.0809554614426362
0.0751876839592753
0.0819792255060731
0.0802762024241946
0.089227480271874
0.0754121533197595
0.0882400692490308
0.0820507949244818
0.104291325727042
0.079937594339518
0.0869722344265344
0.0785223383890584
0.0820918385328865
0.077937312190775
0.0812813137886087
0.0830767041706919
0.0850636980304309
0.078396256531731
0.0812282170115506
0.0810147900708313
0.0803043489060109
0.0794780676599344
0.0948069132674265
0.099099509822805
0.0971013625672091
0.0805715847861145
0.0840927652140681
0.0858603593290265
0.101410967798756
0.0840627935101273
0.080420639450097
0.0870459973233613
0.0798650223813953
0.0837459169078868
0.0800570567754184
0.0829395137667675
0.0882611670982018
0.0868859277919363
0.0833360541931638
0.0854085845665698
0.0849006646220111
0.0828430927608425
0.0856126953125871
0.0824117157570652
0.0924135582541162
0.0858049916897557
0.0876651781555231
0.0895328791034457
0.08543185334008
0.0864011272775182
0.083663778664094
0.0865997181891449
0.0933778043458834
0.0939183671524038
0.0947524960956645
0.0944077115361313
0.0977639976135377
0.0896982536011416
0.0852976026636825
0.0975191256392248
0.0908360114899456
0.0948322285420991
0.0905481973360598
0.111115171427048
0.104852379917881
0.0957777023543183
0.0981186552289638
0.0854006205689711
0.0950895454484284
0.0853202787125362
0.100148457038235
0.0903481267849863
0.105240604719038
0.0827976181281041
0.101855011004702
0.0852821878019658
0.108288209495845
0.0944743518157736
0.0987194831157704
0.088693701131424
0.0995447514143642
0.102646328411797
0.101585820951572
0.0928494432430972
0.110430046817758
0.119271593711494
0.110872723758453
0.10558218057718
0.104314339636738
0.101722501907418
0.115922759650909
0.0951530344320359
0.104783716762117
0.0950272232742281
0.104600338865886
0.105559908436318
0.121322353106959
0.11095419460168
0.106888152415787
0.104991871809843
0.113845309241446
0.114453706380178
0.116650719637717
0.10141202759866
0.115757505668709
0.10221462653071
0.121349488231233
0.117610277211068
0.139076267622411
0.115229249154871
0.138889015854541
0.125234192026877
0.129696409218567
0.122464769209972
0.123030842252799
0.128685053564077
0.137288253232913
0.124156286774549
0.126355477347234
0.131269836378311
0.141070290318827
0.13450363134257
0.127804532727982
0.133097383412461
0.133994238888651
0.15473020551759
0.176434456736117
0.153928144045233
0.143306505399547
0.146508408606612
0.152968314722486
0.151723943867889
0.144247754115917
0.148294369305852
0.147918636262668
0.146570210600604
0.156716957432797
0.155871672802555
0.163168554671283
0.156643437739566
0.161709875840138
0.159890640260499
0.186295581666186
0.194436098978457
0.183750085045958
0.184865671164743
0.165854988721147
0.196310099311527
0.181026903814721
0.179091472197443
0.178854032508652
0.184281616638598
0.187728474450793
0.183338119725366
0.19128584190184
0.184936712241721
0.208279716088382
0.216143883063157
0.20668892276969
0.206034329673455
0.1948341890566
0.242063841806305
0.241960128104527
0.263533446348765
0.210396394584427
0.245098368609007
0.239373872665053
0.273772721103255
0.258733995679211
0.246739808641712
0.250915252601375
0.257374822480032
0.263865750240302
0.276828334988301
0.285131221176599
0.296141439324781
0.286557211568808
0.296014927897308
0.304340623271377
0.378954698299842
0.364569868839684
0.339360401080267
0.338067472807639
0.350050046048341
0.350955279314532
0.354285524228255
0.359671954588534
0.363787603520055
0.39596857427199
0.421380218029588
0.413923645591135
0.388261732420801
0.420207843539747
0.414198774132486
0.450767669541219
0.421843766756073
0.4832525782018
0.448857281464503
0.467235403781325
0.468737511676957
0.480109445946644
0.490407363453081
0.49418281335135
0.516382209264261
0.503811666529494
0.512462756441179
0.518140716979384
0.521443593769818
0.539622637600063
0.537573015637216
0.55846039089162
0.542938366914233
0.641208841933907
0.6417842509849
0.602048442457562
0.563619941770705
0.55881913982578
0.564857558705949
0.577967859202167
0.612785937059569
0.61623140534467
0.594182818100953
0.584857031322135
0.577535923156756
0.58673192311942
0.580758282615459
0.59616101145366
0.571986300974071
0.592594819296725
0.578705804609011
0.600222019315617
0.617834635610868
0.649678765240208
0.590757075072523
0.580404705887993
0.586852620483908
0.571537769332739
0.582513504160951
0.582076985686486
0.586731303231707
0.581975054643412
0.587803557539386
0.568262077867852
0.569620772823993
0.558251189899215
0.582300100816994
0.562279841443387
0.546408604927265
0.551625879378226
0.53938479556393
0.541321157574446
0.55832970343188
0.557312408230951
0.545672864290943
0.524197099624886
0.527090507428863
0.511576386098748
0.517622692921012
0.510110368996286
0.514757892802524
0.503845620994444
0.514400844098154
0.502293941597849
0.503913280914123
0.49354587143083
0.502324024660199
0.498288941648339
0.497053015069338
0.485869320985451
0.489744146901039
0.495044258929303
0.488526326816323
0.481337102394566
0.485095623621419
0.480045744178668
0.482941139942835
0.48385814255879
0.485746465144455
0.473667156626133
0.481442589247005
0.479822969117842
0.470841035109985
0.469697308717624
0.469588612647528
0.471394006995767
0.469008806663793
0.466522631327991
0.465923541893317
0.468060456387462
0.468807938462883
0.470125736515076
0.453940576595448
0.460408919606861
0.451864106128106
0.465422044988189
0.468899321964971
0.470080764847161
0.451937555487562
0.443863165618225
0.456054553463719
0.42774118823263
0.449880153508479
0.449392891592064
0.453676760929738
0.425259630198142
0.425532135881508
0.41710517027804
0.430385953591883
0.414439290247882
0.421658924494707
0.39483936665039
0.413470910889045
0.408093502880676
0.441943768768747
0.469783844793782
0.449801246682796
0.413606025794218
0.377049799704738
0.408645708189681
0.393294069006038
0.394520002633831
0.359264942036136
0.37234462833467
0.378086198152133
0.383583325957887
0.369647389898425
0.359809590789633
0.362275581465877
0.38302625497693
0.387363867327825
0.375733283426557
0.378860008501202
0.367285705524102
0.368999125765095
0.386389018066894
0.406433035620214
0.345758389530096
0.344586208465818
0.332992902877601
0.331051120354909
0.354701785572089
0.341220824912712
0.346787658300445
0.336401241895024
0.324847110027757
0.323072969445126
0.320595351364069
0.334851884537782
0.304827059791138
0.345343537275912
0.321213380019012
0.32701083487586
0.301232888353146
0.336915968510658
0.342394711903917
0.346155830456399
0.312041542737345
0.296674510000276
0.325956984610719
0.321475761780995
0.319481150404094
0.302681268558274
0.294431949832879
0.309763642431515
0.298023730777469
0.296113100148845
0.300954932435239
0.307528469050858
0.319173462719977
0.313721097806573
0.339834229050877
0.316773773721807
0.296638752220239
0.287468759080606
0.284852829980945
0.299086432154247
0.276502125289121
0.292004373122001
0.310757334151092
0.287510496193581
0.303666341094165
0.290825869174383
0.307117955079528
0.294003869799019
0.299670223949422
0.300224790689827
0.302810159278035
0.327190898030849
0.344250000744239
0.31741261320578
0.337279722901879
0.329524567223692
0.335066812748648
0.319435569029569
0.342055327676482
0.333200628191773
0.350176838715274
0.349234883471258
0.357655562228769
0.353768952534493
0.371560484313599
0.365915093557492
0.417400974048446
0.390275884387996
0.413145927779319
0.405093286979579
0.443369386983511
0.446765642733546
0.447299408742894
0.443540241031231
0.439698550211623
0.452432384455478
0.458467554315192
0.453277034272468
0.486313007214258
0.487722302563586
0.493538676019914
0.48142944793596
0.500610367659703
0.489126735372897
0.519088614611572
0.521740292162083
0.529675599096732
0.577075339711446
0.546296428853831
0.565180852768213
0.529553542842103
0.533599798226808
0.532906707449887
0.546289429622358
0.542753514740349
0.539028000690535
0.561219843499767
0.566957175314048
0.554334415146653
0.555566848685804
0.558312792724414
0.559940349060387
0.560934946977931
0.565007671451933
0.572146066012196
0.575249630109464
0.579197981243727
0.574624309252327
0.601366926201504
0.621955847706637
0.601070770541869
0.604004420178802
0.599622056228956
0.618532334553248
0.607317898388766
0.625085739019489
0.642200859805635
0.640498763677511
0.634762855759597
0.635535093336852
0.646055730394229
0.640473710230262
0.667772743273427
0.660333287011266
0.654466517097546
0.65769688866381
0.647580575045247
0.716649359443337
0.687017183018521
0.697869639357591
0.67384566978596
0.703475504866566
0.679549428572386
0.687443819661244
0.676125581117296
0.687741930547503
0.691174350176203
0.688339958053864
0.684599564681173
0.691655621526506
0.684303225356704
0.687066299358338
0.691125211995836
0.699601756988059
0.688055914766903
0.68844887118327
0.686769205364345
0.684538309767358
0.674583009083558
0.697299700793034
0.691367865430064
0.688511357663478
0.671373127285816
0.696233857540434
0.699464872901442
0.694106538064349
0.679790282215367
0.690304127895872
0.673733150516464
0.688576116936641
0.668564333647031
0.706736909299649
0.695463818274105
0.70294462391337
0.690266833487339
0.701752743112557
0.690332964456108
0.702379257698083
0.695556837682954
0.722492358801707
0.713681800216459
0.721033525140077
0.709869955096619
0.713997956093325
0.728921841426373
0.729586236737442
0.73944239797576
0.734901883192683
0.723237738487573
0.732465147140549
0.712075105270645
0.740617334037446
0.716417993970123
0.722953354850413
0.701917863474721
0.719222851381089
0.685568222742112
0.707845217300718
0.712477344073643
0.709002315078312
0.702081316703865
0.67752391095528
0.683963374621716
0.673253263366267
0.672914425505249
0.664931817337997
0.665631739659243
0.66382422127524
0.660318107483765
0.658763946407184
0.651534342568364
0.648624717126573
0.640513638382004
0.638706779253042
0.64211207146424
0.642906986535908
0.64144915890014
0.646427202163986
0.637089306116367
0.645880352637225
0.632088643621084
0.631907673886561
0.650212894694518
0.645864962451675
0.652574157808301
0.628543890452131
0.645083321985651
0.634907297326755
0.640995748861624
0.630515392108092
0.635940312663869
0.630824584567932
0.63078256441648
0.628521399997974
0.625850104778208
0.635741639071985
0.629194669666493
0.622178308539665
0.621824943830353
0.625653728161119
0.626065637128909
0.62287523957976
0.621683277717398
0.622192071967176
0.614749944023659
0.620746411433244
0.62497989782803
0.628811038759852
0.610727846138155
0.622730944463911
0.618221041162825
0.622461552635441
0.623005607787236
0.616178255531381
0.618871346269058
0.617427340657374
0.610486180343792
0.612977276477414
0.610913810494795
0.610710525906342
0.611940819405052
0.617137915377559
0.610776462535576
0.607990322944592
0.600868270280009
0.602295320186631
0.590808432816285
0.590626120555228
0.582510529462958
0.582188381228957
0.574737878798845
0.570103270765747
0.56363361589376
0.571468647780638
0.558384547169824
0.561855871474596
0.550021149551286
0.549547712524905
0.551280577761959
0.550193998008496
0.546892684780461
0.540047626203432
0.538691756085289
0.540709977573667
0.540136588515266
0.53634293864537
0.535037147404398
0.53695086279167
0.533937810994142
0.541018957385619
0.541129027512638
0.541322938282396
0.538928710418678
0.543537698877801
0.54143185247514
0.545436532577115
0.544056903640773
0.545381124630594
0.549672018530069
0.552263634830071
0.552960470016698
0.557193372484283
0.558761015271843
0.560144598915688
0.560937230944941
0.568775210254122
0.565715660839233
0.567232507988335
0.566872788466519
0.568538675199225
0.569964548356522
0.565646645163105
0.571981022982795
0.566810633627579
0.566064184277212
0.570666362946158
0.569851618974138
0.567221679301454
0.567964285048392
0.566419607720566
0.566739171671383
0.561480163124751
0.560464074982144
0.558373420749738
0.556552501904803
0.560251564882022
0.552377977966101
0.55289720639785
0.552464054132476
0.548503022661812
0.55033148130327
0.548071837253215
0.542501454570047
0.542263266401427
0.54110311542634
0.540253980837988
0.536730453647633
0.538666635881005
0.534829847170079
0.530428516659733
0.5345252004582
0.528721295117632
0.526559563345678
0.526396330733192
0.524487402698631
0.520091904797262
0.517272069855921
0.515311923716007
0.516324637585475
0.519303762959838
0.515468351171355
0.510248014385068
0.506226890363187
0.506444700112964
0.500464024262727
0.498091531829001
0.497183652614347
0.491525865666135
0.48665909178653
0.488636583921884
0.477993549097923
0.483289978093075
0.47931794150505
0.475124718886272
0.472234138567613
0.469327743411748
0.467620316684277
0.469329445570292
0.467338714597359
0.467818740012825
0.464782901640651
0.465869505225389
0.461460054520833
0.465438124966649
0.45839698864124
0.456769790362582
0.451407271063159
0.451091734464254
0.445740209708548
0.443471882273298
0.435138128052844
0.432694503115442
0.424930898452499
0.418889919701026
0.415480262557964
0.409260193966024
0.40524767702845
0.403695358117929
0.405311629757044
0.406458353910063
0.403064250298761
0.407755810831859
0.414433717191241
0.420246001709937
0.429905400022731
0.437197970213487
0.4476828535365
0.465116894940728
0.477382584155759
0.49508825543698
0.505306284432814
0.527214050240515
0.547371526688043
0.569853027568812
0.586649295515942
0.604109325042749
0.616776504197497
0.637865022866225
0.660908964841083
0.684092447851213
0.704407674443566
0.725896329344525
0.742823307468183
0.759742120082391
0.789065790557519
0.799864683444638
0.816204666154836
0.836959411143743
0.858684381674639
0.86843690828036
0.887903133182153
0.899446210812153
0.91157006586483
0.926289860599912
0.918889967753764
0.942080360515475
0.940989453271666
0.950164193150068
0.949680972754925
0.952269027812386
0.958250171286375
0.95675312771625
0.950681394017734
0.958114842323311
0.95303994854848
0.938333590533832
0.937925112830592
0.949745990047009
0.931372164917709
0.950265434211692
0.940676239666934
0.944789881838377
0.948996342423557
0.949198148522608
0.95121076625089
0.976202163821955
0.967754429496812
0.957612385169167
0.972611556961868
1.00299852998466
0.995399429732783
1.0189545203367
1.01891542465756
1.03305547629397
1.04257448983274
1.05260149515322
1.07281543946945
1.09869464477961
1.11135236904514
1.10929226171135
1.12060945619143
1.11678061661905
1.13421751463157
1.13075724534554
1.15524371711439
1.14024248170116
1.14850423420635
1.15506116701722
1.15010408092219
1.13192992356554
1.15572523865518
1.14924248016644
1.13256440958681
1.14981261399412
1.14246845999369
1.15399197000536
1.15223589907834
1.15082033527287
1.15661702024189
1.18891880253614
1.17265828485328
1.22115559430811
1.24519597898891
1.24487264907387
1.25089988650778
1.23780069602868
1.2865678214263
1.29947580040502
1.33088799767432
1.35071943205463
1.34844394093103
1.35886866899971
1.39584640052764
1.39072729635261
1.45520423243344
1.4444765143188
1.50240490650843
1.46792916826891
1.5747293477583
1.5856513689737
1.58279649160752
1.61055353095728
1.63708702929289
1.6727908555636
1.73269516294689
1.62390767840635
1.64160767666985
1.7492792629223
1.76436373056229
1.76923953839577
1.90240592661032
1.87250041914147
1.76683216120241
1.90118453121039
1.80703027156049
1.87127279381904
1.81249876902239
1.8522051165209
1.89783878587707
1.79636370521032
1.86240503234077
1.88771843666755
1.85441541765748
1.81883674072749
1.84473500175131
1.73798029512446
1.89871387745387
1.85002593557235
1.79986088351542
1.8419030378644
2.12299030894787
2.05748222862541
1.90315388897651
2.05445340473891
1.93917799167468
1.88305920367798
2.02560404727991
1.93701555726092
2.29233210425069
1.94501566822155
1.97834450421008
1.93793746354361
2.23700472737505
2.17708291829821
2.38623401552241
2.27432294746436
2.07801839324292
2.07494200058843
2.78686240694415
2.27972805052843
2.32915037881585
2.07052965701084
2.4009522400851
2.51637307715211
2.28304903306196
2.39924486774583
2.68087137299783
2.30105401457075
2.41105419243343
2.25090210700702
2.41495946890173
5
5
2.63004292934588
2.30540291130043
3.33023493458304
2.34341487757838
2.24435268226034
2.27740457875368
2.53902493985968
2.35957708087526
2.2130446294799
5
2.08402665877235
2.20960273136673
2.22708522097697
2.00766587884095
2.08094071713079
2.06410786652247
2.22937904965059
2.06962194142718
2.02482005946761
2.02107244105073
1.99159895962588
1.89931562683454
1.96497298656821
1.89481806394616
1.82282033440141
1.80765911127169
1.8115592315876
1.83075968493368
1.64358406664309
1.78537414473155
1.72771431939762
1.84908717912041
1.70417634947852
1.71476366311426
1.68734201243013
1.62915857634992
1.67077020457272
1.59020053424361
1.53036954627742
1.57705701186537
1.50216882750977
1.49761792432746
1.43488009442752
1.36008676967314
1.35745679747021
1.32889669089956
1.25500294253385
1.21652763652019
1.16961320292841
1.11952876887823
1.08436521362461
1.06186054326033
0.98085738754903
0.955659764174386
0.91639471837533
0.860598465098859
0.837628158167317
0.81715003200004
0.782325098393408
0.75229351602337
0.718437359969259
0.708269968860608
0.686306686205635
0.672742055518925
0.655856065700072
0.643621158425982
0.634852605761953
0.612204342127343
0.610209826677502
0.602573698914619
0.599456057511457
0.592735426676383
0.584930893566014
0.587070148176455
0.584681971445953
0.584978706625598
0.583291367737369
0.585578502791928
0.588303394479751
0.600546021966732
0.592397721468682
0.602458469789302
0.59531855163204
0.602937193326975
0.599671762446384
0.611617823733344
0.600555232599915
0.597423467919605
0.597266185658159
0.599015610330799
0.585987318077634
0.593184756822394
0.59664393758961
0.589418866554517
0.581760594687817
0.577122711636069
0.570379048366714
0.582529554478747
0.580636032882033
0.583814123985924
0.578487408322705
0.597967947899989
0.589502623801018
0.599808783506263
0.587857550226212
0.587629925769936
0.589868113689003
0.601934180124735
0.606885032548646
0.601587212298374
0.595320859257675
0.606136324134947
0.600862091484261
0.61004081935854
0.608909797805439
0.623892277270194
0.615135295614449
0.611906378296056
0.60830691964719
0.621883151535564
0.607608406885821
0.613130549318096
0.608380051819526
0.612135397691017
0.61964320463762
0.622137468074297
0.622623648728632
0.634146068934544
0.63886338396727
0.657014409273057
0.670997306600865
0.66049289033064
0.689117848173983
0.717712882060627
0.721453473478703
0.730340193437406
0.737368194361467
0.765903734566748
0.749884814412807
0.774636249315121
0.766780413772307
0.770190154479966
0.760832747106215
0.746778366521116
0.74043375309654
0.728342600874455
0.720049345439578
0.717192461712205
0.713433682624317
0.697620701377868
0.685693556981031
0.691946085273083
0.67883111898871
0.677118653130615
0.698572688001992
0.700383292268069
0.686102860265627
0.688962234446744
0.684046838363614
0.69918807627989
0.688504637224129
0.685361960780068
0.675295293413833
0.6853027339196
0.668037149179311
0.682961982027125
0.666098935472455
0.671671147885073
0.654104386979958
0.678932066308038
0.660365015003228
0.641643735851896
0.645329839648908
0.63461407859723
0.651547694665484
0.645483923950676
0.627762382077576
0.638281639384201
0.63660638740643
0.622948229354214
0.630857868213808
0.627235506523471
0.637104688453424
0.651903400778317
0.631929510825517
0.618308430318695
0.622080645281318
0.636675140458242
0.612296697919614
0.617888877889935
0.621656453971549
0.608314019838835
0.602876325529838
0.595384858963139
0.598642134706211
0.605067886987039
0.592824554059789
0.601805186705299
0.576818831784263
0.613876856515615
0.603869617980654
0.600965797589599
0.600175635184239
0.571344623852209
0.575184661474608
0.58519082570304
0.595858155070489
0.567571877080105
0.564321957519864
0.600573942967225
0.581229623092845
0.568511576855538
0.575469841032971
0.581429373302753
0.568675747838426
0.579021803823638
0.582845233100542
0.605945957639682
0.58492429990095
0.603253260724995
0.585196649950953
0.609175193765333
0.609429102719029
0.6106804447932
0.579987461812733
0.599760016614928
0.607364604769701
0.612647311124875
0.622230929853866
0.632642052763198
0.598584357089233
0.624842875386384
0.661848125760632
0.635538958220499
0.623730685333224
0.629554779894908
0.652576889134313
0.698259193957692
0.701145364306488
0.693619046178802
0.68140009974738
0.696818855669233
0.697935318127831
0.770484984966345
0.718187573717605
0.773781219964991
0.801518700600006
0.795760791925579
0.855863816383567
0.859382887529623
0.836671638095469
0.932824096477776
0.92438884182394
0.979879339191107
0.951649803065879
0.940244092972383
0.923309447279968
0.937834187801746
0.930321307278964
0.939061803190833
0.939857380944611
0.898703261061816
0.881548698150612
0.991608671855649
0.964444019254696
0.968167358239681
0.952266617719452
0.923691614937426
0.955895463031461
0.939924714157756
0.878552929439299
0.944268295043315
0.998895590330582
0.945815621792295
0.849926575993896
0.959150333513229
0.930677444090839
0.965488680902751
0.964687527135855
0.938823294199237
0.89615448033699
0.914843879420904
0.930967719061852
0.93299713490755
0.852424620349041
0.899834151277163
0.804509048327657
0.9595803095434
0.943972848427166
0.907574908640981
0.90105008726648
0.896444214944854
0.871847252384035
0.90125965540886
0.780906687498143
0.84737537165011
0.817283542728867
0.810913934040506
0.83550055314249
0.910346064029096
0.886080874094458
0.940102044165759
0.860795052261438
0.904110866607574
0.905807235100934
0.930059171182196
0.86242857127936
0.937474325282164
0.835193876744957
0.950755263457296
0.934669171823558
0.933980808819132
0.922375491349501
0.866741721720938
0.875566065385824
0.99382000685772
0.973234423734607
0.907724768253819
0.93695827578639
1.09027244980541
0.934489370653985
0.960154249235796
0.974811033208109
0.865024178818907
0.759531760759671
1.01291245544219
1.02133615090322
1.2186807316561
1.0109422696936
1.15224424615264
0.988366163546174
1.101393472828
0.984150499507682
1.04817226812703
0.915500409958789
1.19372752272732
1.11989371890583
0.970906437317397
1.07835920112109
1.05716654424756
1.03298715584582
1.21311353654412
1.06570669769202
1.31676613281465
1.15828489045073
1.61097686799853
1.16177685114778
1.5267050781331
1.125395931687
1.2849058137261
0.994522420549402
1.30777072443539
1.33511429177981
1.07366926877178
1.1884937648226
0.94839560645351
1.18700436550255
1.26694714621638
0.977626431933575
1.29482530802182
1.3284615148254
2.28481361794478
1.21210811549173
1.31584749531463
0.986624195817933
1.3978485599555
1.77898900051764
5
1.69502832211565
1.76396833811072
0.905309007241459
1.24620262637022
1.34863524760839
1.16987062930869
1.03042294024502
1.16927830652203
1.70223345500249
2.36523483996671
1.59918896962566
1.2542055334387
0.951885955082455
1.89646973943158
1.4391055785001
1.17252437721378
0.545300501563385
0.844947419870944
1.02490686585899
0.865786573798676
1.11236491418614
5
5
1.27855810959968
5
1.84118696223526
0.631979834738664
0.981922155265215
1.07900462070341
1.04087877252793
0.618471144181282
2.83202379706595
1.17405904991289
