3596
4000.36533379555
650.420452594757
1
2
2
0.0716857824990421
0.0697281388888463
0.0696138542578171
0.0783131970088628
0.0613383346971411
0.0735566243311141
0.0623515860354562
0.0649084254600107
0.06641938052127
0.0752681863955495
0.0602077055755892
0.0686788118331668
0.0602120772596774
0.0701528349705199
0.0747785769226323
0.0795333286950419
0.0697690836775852
0.0668623033485798
0.0528833369423077
0.0740033214889479
0.0702740384011142
0.0698620880821417
0.0638701412497505
0.0762191122601805
0.0639890549984115
0.0634271881606358
0.0583851447825703
0.0656234608824313
0.0677441363835631
0.0677871727434623
0.0620458691721535
0.0678856606197359
0.0585011777989583
0.0672189766218234
0.0635176874035692
0.0721212658937386
0.0751163263363774
0.0764047764751056
0.0652505285080427
0.0774481617108973
0.0671513525437489
0.0746559042579452
0.0671998836146576
0.0785436248671471
0.065156580944581
0.0626779620769244
0.0604280190941231
0.0728136020320873
0.0678740209728829
0.0684885678852023
0.0607716142228474
0.0716719307813673
0.0614993120193606
0.0784798786385668
0.0786166436324572
0.0751018697743391
0.0643468277511084
0.0685210872939415
0.0544879403449582
0.0681664293913965
0.0684446777029014
0.074660994823582
0.0718750766303554
0.0760815823901519
0.0589281923053879
0.0692364844034359
0.0683739651878493
0.0666073273434276
0.0719207093840749
0.0678622143545277
0.0649830034877433
0.0779865172257366
0.0807562345015161
0.0716471183216058
0.0631324150822696
0.0643863285251029
0.0624398711402536
0.0704735261948419
0.0630489744090316
0.071912951335077
0.0682984035922785
0.0682488423463859
0.0661336450229447
0.0624067571710988
0.064827081982883
0.0734338221808272
0.0661246575383416
0.0685009271901317
0.0765460564911457
0.0658782554811692
0.0605986150625087
0.0744339653672903
0.0580695570792346
0.0660485159449973
0.068536410239529
0.0731365648119721
0.0649725677346062
0.0660946055739978
0.0617226047781247
0.0673913752038302
0.0641287678925532
0.0827660433876458
0.07853977447284
0.0863949713633308
0.0628073449214292
0.078522810031234
0.0499013073288843
0.0834238576052952
0.0726812054825363
0.0661931884701291
0.0643368553238686
0.0634823307606347
0.0613231280615653
0.0592495827414969
0.0635315378031381
0.0808261138271861
0.0838274813653398
0.0650365864547795
0.0675322884730568
0.0625640000567585
0.0516359846566266
0.0774274828749197
0.0809940051861862
0.0800143399792959
0.0625119503312676
0.0604154367514638
0.0616867193323858
0.0998483737714145
0.0721176019794615
0.0690310947236279
0.0547454231938436
0.0644514471241071
0.0478625579501227
0.0632380988427182
0.063140827800067
0.0750548412028067
0.0549142103163857
0.0679764572185552
0.0722227576692185
0.100283936622761
0.0722831237016736
0.0632509896871993
0.0561271781198246
0.0710692350854408
0.0802164298967585
0.0770852758812463
0.0592434037845286
0.0771434434841883
0.0574457623788539
0.0677229048906149
0.0548115236764278
0.065108595617104
0.0748321101027092
0.0637063431558153
0.0449237050943624
0.0770349800359598
0.0891960373921614
0.0887892202689118
0.0636550124976704
0.082785923778803
0.0472482476185684
0.0710372032119191
0.0501124611872751
0.0663219908472735
0.0537788403942952
0.0652652738751245
0.06501101205004
0.0843300103114536
0.0575911025269671
0.0740145022182863
0.0779369616931664
0.072836662773826
0.0546465497856247
0.0912882768721956
0.0726124897479937
0.0590260568932967
0.0728902157641789
0.0794489995643102
0.0497873087101617
0.0812535735734501
0.0652631101214515
0.0729485036734879
0.0488654678834049
0.0682724883026506
0.059724718321713
0.0854849445047312
0.0640808232056884
0.0717186744292887
0.0526961606754487
0.0635725423250553
0.0644302023451354
0.0987181359083319
0.0651563993152144
0.0777498258635879
0.0458315822598659
0.0630353497148624
0.0698931650876817
0.0964076496013108
0.0629948938146055
0.0674190151764507
0.0587918883091297
0.0685970141005921
0.0549868609348049
0.076597009155625
0.0476942184619767
0.0730388565641235
0.0655732315163864
0.094818782752579
0.0430334851121294
0.0626271855323312
0.0465656318802936
0.0726873546944894
0.0864488085480059
0.0859490976447718
0.0597094612630903
0.07028413258209
0.0541030346009967
0.0800262280497305
0.0651188848627012
0.0668873952180046
0.0568996327128899
0.06913665626478
0.0591417276479264
0.0681685492885602
0.0570343552816293
0.0704479485276722
0.0528790558084542
0.0646301552766118
0.0499862187324128
0.0725044286036802
0.0648812244290972
0.0742273624479946
0.0582579351240608
0.0602056934867256
0.0526037974650856
0.0777115166394291
0.0676000388831293
0.0774563375884827
0.0519928156207345
0.0697684715636816
0.0603912488645975
0.0693994276688689
0.051047143382531
0.0690622287646127
0.0422960773379065
0.0834935308736873
0.0621773577286196
0.0856548924488703
0.0556396171220097
0.0714302251698028
0.0724758317976308
0.0889804966894316
0.0536071415359102
0.0644913226787213
0.0599115322861841
0.0652362265661863
0.0574488940564958
0.0791109557280875
0.0666396020630926
0.067285207652778
0.0584815757451152
0.0676935593115405
0.0676995820029967
0.0517109358255098
0.0624874576664137
0.115239011401038
0.0734800943728394
0.0856623872940211
0.0774292939448822
0.0859602185001409
0.0698179164358535
0.0598679815537039
0.062329962284717
0.130930591612195
0.0946605263001324
0.0689907523442015
0.0688407037906902
0.075803266496422
0.0677544973881551
0.0771942100934181
0.0641868373947839
0.0863509037794293
0.0772693391228447
0.118553010390736
0.0721054827032469
0.088346471582771
0.0681223302090422
0.0867268260804357
0.0574448607084986
0.0776579334461381
0.0626849342712454
0.0751926973495686
0.0803913230132963
0.0855872938346533
0.0777655552281936
0.0640951683906708
0.0727427630576245
0.0852544770201222
0.0772390012487137
0.0688583854460325
0.0758138467425989
0.0729669795676709
0.0683981977731669
0.0644369545439594
0.0697445008935923
0.079386126433838
0.0648481893709798
0.0833895074363414
0.0869934427926045
0.0830066901796744
0.0884887261537646
0.0908681459061624
0.0775593887719097
0.0665353548908733
0.0745191959025215
0.0745734001574171
0.0664187389395326
0.0694033246662127
0.0740496024552951
0.0919405179472055
0.0788809310609189
0.0808003428799164
0.0662460227317202
0.080999876865976
0.0681342034037419
0.0775420301567416
0.0742425634498093
0.0821221806208374
0.0746346432445578
0.0762271117405743
0.103611460550744
0.0977737892770323
0.065201738052578
0.111733312335969
0.089827218096877
0.0923906181331314
0.0651952477749672
0.0816080592730991
0.067895044295577
0.0883487193882842
0.0821599115981917
0.0833799763062368
0.0796054892206195
0.105820347142159
0.0885307962972416
0.0964007927422288
0.0903592454250477
0.143368608954954
0.10704044977297
0.119707614424222
0.0847250024192479
0.0964493020342382
0.108874054600582
0.118111039470408
0.126849232948293
0.111855360644709
0.101451013083747
0.0921413427785584
0.102748063158179
0.10329221135413
0.103723866251369
0.112666139842585
0.104867352963777
0.108305761659934
0.106232785862783
0.119113436459646
0.103984293941891
0.135017228838703
0.12899385363892
0.127791217165296
0.115896904684478
0.116339341884722
0.116642459219805
0.138975664399435
0.136409064803746
0.172177355539054
0.126741391034855
0.186095192298838
0.148939155968893
0.156506338203325
0.125256943146655
0.144960792980169
0.13886467931952
0.161074697434649
0.143258375994982
0.156122690489657
0.1323619817092
0.16894976371526
0.148251216840215
0.173747641938102
0.150783523911174
0.178005122437925
0.161560610872936
0.181785255598566
0.158253574783466
0.18045363586195
0.177152226102285
0.220216662832737
0.197987286829948
0.192418911760852
0.178084755416266
0.18121367569497
0.187134733960569
0.193680082205301
0.192210825945192
0.200073761952821
0.203301386908459
0.239108757553849
0.198416472811939
0.235542047143832
0.199220283490452
0.228413258070612
0.227827459530683
0.2283249274409
0.234552136130118
0.257691197924599
0.235705685923947
0.233726582840182
0.243457498670823
0.23951615994005
0.248159816939724
0.256332593412429
0.234454071186
0.253721146049088
0.244932659072411
0.259961184019852
0.243189283154332
0.268784046952833
0.248784698921942
0.28459687003057
0.261979315599994
0.286257922842786
0.274864864644311
0.313336992027005
0.271722003181115
0.320828513136807
0.283909885817743
0.315974886423784
0.293981453433586
0.306519630184268
0.307366897242667
0.326644382141468
0.319748208942973
0.339993551797187
0.304950506608688
0.322275242675908
0.328681680299848
0.345554253676219
0.329671993350626
0.359791432977639
0.348386645911659
0.345429606003711
0.333528316209032
0.377619154659563
0.338837962649985
0.389135554531558
0.355926045661603
0.383539435745944
0.338157981318603
0.39160145849243
0.366408683088013
0.396834634394452
0.395499896883204
0.434903886418316
0.419995657471237
0.424353642982536
0.405772916269527
0.434518435977992
0.397482201808583
0.421673435799283
0.427214891764285
0.443793109218441
0.412439850595609
0.436649330813756
0.432358628730373
0.430794981739791
0.446673422397016
0.479302566547406
0.455120469643432
0.517679316778343
0.458721481087136
0.460721406102025
0.471836186230758
0.48173634137733
0.497452442102788
0.500726976201818
0.480840174425535
0.54508747893822
0.493583660615598
0.548688292313019
0.493613617217814
0.522824553036439
0.499907978172175
0.553687871750795
0.520776978052713
0.540838166638736
0.535778120077315
0.562601213284013
0.533902312517039
0.563057578789426
0.519868662213733
0.60689486300467
0.572692729855775
0.586777562713719
0.535543171561565
0.631797122455993
0.596059112549114
0.634644885653217
0.573970987449737
0.613200462813689
0.567350401931856
0.671918948513994
0.62668082715921
0.644276081139599
0.590134530982653
0.636674307584553
0.650757482005278
0.66770718848007
0.616856114162454
0.648056696008144
0.655896001304817
0.678889997755861
0.6844843290974
0.719834114749579
0.631161220332229
0.737141626045891
0.676918577899162
0.726355851206901
0.652553882403519
0.721734745019361
0.697034761798065
0.764888968099772
0.689713437705279
0.738605921452594
0.719996603018497
0.769148338417814
0.676678852737871
0.771737331901276
0.731196390073184
0.782508510036781
0.738110318647323
0.803758494128574
0.732802038035958
0.779184592846156
0.79318562559107
0.873633502377771
0.793593482592839
0.830002980235494
0.773826913931172
0.78640671289114
0.818036464644357
0.833893277851546
0.813415505487568
0.879861789406653
0.779943113691272
0.886286317141655
0.85227439371801
0.84888453962035
0.792375806761596
0.884782483677107
0.80736053559774
0.898630769291309
0.829365112493871
0.975372490147373
0.862277337107413
0.952892166196385
0.821030371152477
0.884359671244025
0.786294793208629
0.944806021377588
0.882889411507082
0.982575383740277
0.87692314583018
1.06355664722158
0.891741539427149
0.982608994829988
0.933936902933709
1.02148585648714
0.875979101568705
1.0717718954056
0.919240546226221
1.02703887728949
0.956727252877269
1.08950572654926
0.997485678692261
1.01476641555323
0.946842809437567
1.04437453153069
0.946995715148131
1.038309599607
0.958872351585619
1.04308043607382
0.926025718343831
1.05982747064062
1.04398135443294
1.1229686665317
0.941314504095933
1.13298697892244
1.00679130601442
1.05675017845381
0.990254253244504
1.07989995652915
1.07351407563951
1.09564844561069
1.0273663515053
1.08607963343574
1.02921682639324
1.20818542734243
1.01381957029218
1.16309496937684
0.949808662664815
1.17490569596818
1.06055638014651
1.20179632449287
1.03136521380302
1.19302637739783
1.05958558188688
1.23614092018548
1.12382560047539
1.16164316604196
1.07126727262355
1.18416709891482
1.06821981843952
1.16645977255734
1.14756949150719
1.16226822320631
1.14945913450641
1.21885853352947
1.0149549748716
1.21664850622347
1.17859522907449
1.24967423864929
1.12104770575415
1.25676626600471
1.11701668443103
1.29895470350581
1.17653430310137
1.24592580845771
1.18294615054724
1.23654254703763
1.0999959731598
1.23918991955504
1.12031468765546
1.37980008811243
1.19682883215938
1.30202595071112
1.21697564067357
1.24372000685823
1.07530216411681
1.27731539307673
1.12164493065535
1.35350520162413
1.14196148830255
1.44090723998452
1.36657904029726
1.40090390056542
1.17437858030533
1.20696416383553
1.37165457046039
1.32319650006736
1.2938778517066
1.31822199885391
1.22332106875251
1.27772699575671
1.18707278812627
1.44449189392374
1.26320581113968
1.34349622853688
1.28038529699335
1.27256776105084
1.26713223570028
1.51288779380659
1.26004594069986
1.28918487393166
1.23991041464785
1.38576465995405
1.23045298067938
1.35208884521111
1.29936190376439
1.33689682941274
1.26888151760769
1.43951668006659
1.21494572226737
1.30585590201371
1.2888358858331
1.4470976310969
1.28329966905065
1.48494427515393
1.23949089719292
1.42896774838048
1.36177474416295
1.47675744826751
1.25883427716124
1.35393982831819
1.26923122276947
1.41231613146027
1.24832249960333
1.40639414643184
1.3847557329313
1.50081879768847
1.24119019058919
1.5299940059799
1.36238775933522
1.45878471618085
1.18309320571904
1.42851777219061
1.28416177028257
1.40893732830577
1.29561308670103
1.47713764570398
1.30925526308238
1.45197175082295
1.29802330917899
1.52824329296349
1.29005664445844
1.45173827620595
1.40162439488946
1.48397819588092
1.4099835848151
1.38384059277013
1.32401378857678
1.39325759948357
1.3429581549395
1.3418728833108
1.23371330216054
1.42230433981731
1.38510317881352
1.48338800291653
1.24393877228959
1.52145476002286
1.28501466403968
1.36681344242456
1.28211257258796
1.61758795335028
1.30224693688185
1.49382555869686
1.34201872004479
1.35831566956777
1.24887215612449
1.32758595682193
1.25159733681894
1.37158274905085
1.32192788258961
1.38241739849705
1.29280853478472
1.32627349395515
1.41880915197341
1.37750470664584
1.25673335282239
1.4816015861788
1.30671025881921
1.41431462613966
1.32404020181395
1.45446888062619
1.36825914939192
1.41314102725311
1.31157791625414
1.43619733678219
1.29106591591281
1.38574164800803
1.24821701281224
1.5489859438065
1.35393009630096
1.37124842117069
1.2262308345379
1.33193020201102
1.31083596503831
1.40575170407391
1.30720816407889
1.39416931679362
1.29174095784239
1.42349577498098
1.21813657293195
1.32812987405756
1.29134048174712
1.38089298431093
1.30907637621805
1.32807500106615
1.28714717197349
1.36593950960659
1.28610628075517
1.28497372440997
1.33417097913362
1.31765603576367
1.23445391374142
1.39094814487733
1.31115278669531
1.26272427579771
1.24051417095234
1.33694930701533
1.28830319761972
1.27443221640892
1.23859468832368
1.3802604591105
1.26859963940028
1.33984978406618
1.25359276410335
1.43155808594908
1.25475584303643
1.36939257702664
1.22364234052522
1.35382908531867
1.25199642481596
1.24882668630363
1.25903550012105
1.28143768151844
1.18746091484034
1.33361117659646
1.18850938482043
1.30785612987133
1.22238109879962
1.30603463589265
1.28448819839433
1.27655890324853
1.1944783483082
1.26573680265218
1.16225857414079
1.25627784736383
1.25481741312788
1.2544701017212
1.24767795829076
1.25825405568062
1.23991298454348
1.25146118901608
1.15905547787021
1.19748917807968
1.19232056514387
1.21672560912156
1.16140680218045
1.27148501312117
1.17892469045751
1.22102154149016
1.11503562850622
1.25463365904629
1.15261098490254
1.18174015074211
1.15627561416931
1.24683844039769
1.19176592261089
1.21435022078955
1.15012451104875
1.23792431948968
1.12885353476631
1.15977458466432
1.17669792180843
1.19019984738382
1.14250891404947
1.13583676796435
1.13524855790484
1.16858520609804
1.12960694820244
1.15265068016996
1.14552782167318
1.13325926873802
1.0811160020098
1.120811514491
1.0624899160596
1.17566179522084
1.09993174421663
1.1235786262279
1.12254889305431
1.08197117976424
1.01234279404109
1.05710531018181
1.01423327777275
1.07033011052929
1.05092161896866
1.10034354018345
1.00238280236821
1.05478501653221
1.03868661814763
1.05787314519474
1.04219829896721
1.0722652840534
0.991911035105935
1.06487501429588
1.01301411622528
1.02715730452232
1.03187288349171
1.03389737726859
0.989388457669705
1.02955454537166
0.988280466591348
1.01056716963913
0.989085276360718
0.981962474642383
0.96640433474329
1.00912871071091
0.971941854980062
0.951884831642893
0.953675530706107
0.968895193491428
0.954447864587161
0.978559922141881
0.926583429742794
0.989252351413261
0.951430481205484
0.957249399352735
0.924104635562414
0.949066281607502
0.914889990428335
0.942984854439111
0.919378764185971
0.89039683597747
0.91373985376515
0.915205870859792
0.883007030282876
0.904278506421418
0.882902588532019
0.87118446874715
0.860379761390546
0.876107801454278
0.84528949224578
0.864553087120691
0.838742049704514
0.851956830778798
0.847971316468864
0.87125423491755
0.824599212621828
0.835249002207333
0.846520023600236
0.844352839967243
0.813814759038229
0.84075396878873
0.799864380840747
0.825408145780709
0.81402574751161
0.813145390759385
0.789489917907688
0.804831775086579
0.80274250829443
0.815291974776303
0.776229435121281
0.765019634254145
0.755278574090585
0.784736169363304
0.755920006534739
0.784110637077518
0.757889812548551
0.780888861240251
0.739453385817897
0.741183818482957
0.755299513026692
0.748850902918805
0.707306515645489
0.713311085102187
0.724939642754715
0.745464199955796
0.712864884476466
0.725203609486312
0.719286558971991
0.738818961553458
0.6894404922751
0.709238179448826
0.685108732024164
0.697587284271539
0.678053317841293
0.699317167165484
0.703702416423233
0.688812061888567
0.668791145113866
0.695288234569438
0.669479099483623
0.673959290143004
0.660111816085799
0.656305761675528
0.652634162230638
0.662506577517745
0.640940381728472
0.647046841170387
0.639717908216313
0.651011008923317
0.632379736847809
0.633612708647299
0.627603082185369
0.621333534234823
0.616664666550129
0.623239764796493
0.596709692344185
0.619341950337504
0.601540523183827
0.612744934520722
0.600190362698446
0.59805060105136
0.601454015871354
0.591460768401169
0.566032643792223
0.59498536184795
0.578374430456013
0.584754676838472
0.569149671284703
0.581466921202231
0.570968574532071
0.569686865561852
0.564942879814821
0.578787390102235
0.549177942876498
0.553679152901811
0.570103167000515
0.556294607187915
0.535751010631157
0.551227562526901
0.550407150106615
0.545050040977816
0.536656712373632
0.539151601361011
0.523899376738742
0.535667017714389
0.538138899634462
0.525972092572816
0.512325264843649
0.520652404363504
0.518524838942347
0.519481181016949
0.511756449223323
0.517809027946476
0.502594047107563
0.507223520718613
0.492716476307117
0.506611432719701
0.486735343175993
0.492268733792855
0.493739291440776
0.487851238788929
0.477401342484609
0.483963341207545
0.481904924647089
0.477664090572289
0.473039065269142
0.471963012994547
0.464327256067299
0.470419442888956
0.465435339808863
0.469688105601234
0.463104978222863
0.45559677522812
0.449783832142537
0.460071840604154
0.446865707983727
0.450210268825421
0.448875139865417
0.447135993423748
0.449252938501163
0.445415530330855
0.436456130792381
0.435924368431033
0.431121857286943
0.423635120149462
0.426578721611683
0.434447558093604
0.428470715270138
0.425294781885291
0.416638138559943
0.418156140365904
0.415399189331487
0.416283731073544
0.416154839872886
0.418398504771382
0.405501459571364
0.412262907240489
0.40477782269305
0.413760838566231
0.410512745897777
0.402006072611679
0.406629070781272
0.404358904652906
0.398199667531035
0.397504857193283
0.386156108070988
0.382818934360921
0.392516744235742
0.40058508604221
0.386704103229712
0.389904787198456
0.392875962867568
0.3905193149929
0.388719205350224
0.393109161905608
0.38432779563849
0.385411367626179
0.387961656542048
0.388240199585372
0.399034864686513
0.394421837308462
0.386166940851512
0.38815623673109
0.393389792409667
0.39669171520341
0.395538915097499
0.397357036332549
0.385748301115368
0.387009905028561
0.394250193211151
0.401145529569335
0.395415577524373
0.390032019174802
0.390748308737249
0.399644119735282
0.399269028493656
0.400240564832451
0.396967693581152
0.396468349319628
0.399680266837816
0.406182791593221
0.407630540887047
0.408167481953613
0.412679724707288
0.413342512291879
0.405919528457986
0.414778080999693
0.414413245749039
0.416955968487956
0.418297650194245
0.424597658837037
0.418164318911456
0.424267996540474
0.426883248499813
0.428690559128485
0.437101490636771
0.437640688969574
0.436448784560849
0.442702349681897
0.442718882480645
0.439343459199271
0.440583383103122
0.450709703769959
0.448837091360823
0.442498393641015
0.450852984696474
0.469089004376372
0.465322592834516
0.473431187512422
0.474802016746902
0.473582871007084
0.483421644461223
0.48082118579332
0.49788555311991
0.491681224096791
0.485656716992399
0.503887522935523
0.501245338887301
0.497694997199386
0.494512384648926
0.502695419687205
0.501132189404892
0.506779728864241
0.503871203454052
0.503213415642479
0.507168301022105
0.509437251233466
0.519653822803157
0.512145249849282
0.506154366181261
0.513394820242404
0.504553416765653
0.512636656987755
0.512445529648114
0.50971496980526
0.507599451179163
0.512621614660287
0.517220374603854
0.507904645704398
0.504500817886243
0.495325991283077
0.505055228071464
0.505740552552301
0.502021186842692
0.503647604806208
0.498941595443849
0.513023752167564
0.514058474411583
0.498853408137508
0.489687906687167
0.49448299595737
0.505106201849626
0.505715886787599
0.504847244088071
0.504453839407069
0.512289897271284
0.501845219628679
0.510145436941203
0.509850747526941
0.496213686318972
0.497432493229713
0.506817654392813
0.501390082693317
0.507646643167549
0.507730931790147
0.501484927438021
0.500212551943996
0.501166332069218
0.498759196610896
0.502858889498276
0.500466569084824
0.511624057473161
0.504551481391389
0.497899560937891
0.507008807491805
0.503650389342035
0.506645130206534
0.500980853725242
0.489864029505786
0.491846863675471
0.488274690755285
0.487268227735898
0.484668629869526
0.490282213268293
0.482013413677284
0.482324755626832
0.479997344240408
0.477844994101928
0.480624644424894
0.473576213283445
0.469602719694956
0.479841910132496
0.473211893426548
0.462684005232692
0.459136196427585
0.462202128673915
0.458988379219033
0.454709406543052
0.442236145786055
0.441857160023123
0.443829871783473
0.441118648282263
0.432881781511171
0.429061667962263
0.427061666255474
0.427801316231498
0.412345886296812
0.430382526235432
0.42088997789948
0.409302196718826
0.406575161207344
0.403579732264256
0.402739623897035
0.394089510411618
0.394776176855263
0.398096858206207
0.394656821886382
0.38791389621418
0.382188390151492
0.384960705828138
0.379347783414402
0.381378986595344
0.383857725366283
0.373863058569189
0.368816235805272
0.374618002875043
0.373218100555932
0.371498830357053
0.362272900749889
0.358909647276986
0.358966282345956
0.355773644326272
0.353680280316836
0.363229966798317
0.356398944944224
0.357266969911413
0.350421341755748
0.349513482038049
0.347855685888516
0.342742798147113
0.335734107719862
0.339010119119403
0.332577242284015
0.330997612973855
0.333716498398571
0.338750432925654
0.330996789196662
0.33032215426467
0.329772376518006
0.326210953089899
0.328474500792084
0.334002222157579
0.324603509061701
0.324476805551453
0.31673886443373
0.316139893906856
0.319790339711692
0.31950761887347
0.315149653954045
0.32177805029857
0.30880404403758
0.309212882616601
0.314463224499946
0.313164849078404
0.307564058860125
0.310335998518012
0.302416522711431
0.311047205367912
0.304768090382706
0.305093348629578
0.302793664441513
0.301195789001058
0.295228794864041
0.297583213917833
0.293754718276765
0.295207296331127
0.296777794292495
0.300752487723838
0.292974947513269
0.292739718199127
0.291864143397469
0.288039731608959
0.290267258535291
0.295669155103721
0.286131042428934
0.284778283425017
0.284051490965966
0.288412981733371
0.280023023070654
0.284547178666842
0.284849427815491
0.283705480550867
0.281115611361512
0.283718924299224
0.27281338236201
0.277780774728421
0.274569679885677
0.279249991257061
0.277171255614161
0.272075966443437
0.271019505666612
0.275115202112446
0.267065817799763
0.273619984503704
0.271789154882063
0.271880156149771
0.271262847745782
0.2720961660782
0.267147360650431
0.268464498564334
0.265443034358626
0.269341576384789
0.270297888875942
0.267714971202842
0.264808073249844
0.267675837771028
0.263967965464048
0.269523633554094
0.263085491877107
0.261725847995723
0.258791632173051
0.264554798277683
0.261410867151039
0.260822459066949
0.257439260274914
0.260966625408665
0.257082657735223
0.260418458488935
0.253281767690353
0.258707868963097
0.255239267526292
0.253609989369352
0.251193171592642
0.253824879134218
0.253138017230261
0.256683317773658
0.254250674165582
0.257639194941516
0.250943240506376
0.255666629622512
0.250239712525907
0.253924989936053
0.255459665611152
0.251719665115638
0.250925716687051
0.252734793261498
0.248947899826682
0.253345631453773
0.25151021934452
0.255115210180074
0.250578914373434
0.248046928581898
0.240982686750518
0.251821428209084
0.24807287505193
0.243013035766506
0.242436218961111
0.246702888362568
0.242549231480848
0.246154119062497
0.241254003547009
0.246983074374914
0.23858921754719
0.241631742804248
0.236684873450858
0.243568725032136
0.235766001373762
0.239192689941109
0.233968914740593
0.239671484244127
0.234925597285217
0.237704318710436
0.234032095416335
0.240149510099902
0.232844655919401
0.234583279592303
0.235595972871411
0.238996736486083
0.227384689444097
0.2380937402719
0.233015201745605
0.232281441414143
0.22703210125638
0.226075729847878
0.224089346459751
0.2249412493631
0.226350836784392
0.232078429887254
0.224116356032135
0.228988993131309
0.224121097143628
0.226717755362746
0.221219109842378
0.224928519723716
0.220473787727561
0.222045246326896
0.219670626914546
0.218669009277166
0.217686929467677
0.221429397999463
0.214410184359239
0.224334224325094
0.217802313177412
0.21662666519343
0.21068367215282
0.21590815195317
0.214688620370619
0.215820753702612
0.20989998609916
0.211176524866203
0.212561780392286
0.213169231157813
0.207411899408864
0.212623746012843
0.204251332248531
0.206782654330305
0.205027729300771
0.209490908094972
0.202497962306674
0.203427444216973
0.19881350263566
0.201739314312846
0.193621104140596
0.202571322487091
0.201035462959833
0.203925860540729
0.198997137038781
0.202793979734837
0.195689496791975
0.198444803711198
0.193515308807741
0.195830833897416
0.191020437558126
0.192110194961751
0.186754510028901
0.18823759731123
0.185254885368059
0.188428580766344
0.188589112066673
0.188123980499026
0.183760234110145
0.190677920021699
0.182462098336033
0.185591265384574
0.186922450881996
0.185092444263196
0.178750144853147
0.186497303616315
0.180573625354479
0.182993182599859
0.178410963470755
0.184089706664477
0.178752133422959
0.177022695692386
0.174287077650642
0.178135293233443
0.177285526552358
0.178098861552785
0.175862242687909
0.177240728199689
0.171704115237932
0.177147196159587
0.171544537356534
0.173294950296695
0.171521711521471
0.173058602628782
0.16901593751245
0.173007901295358
0.16880924991891
0.16919027063445
0.163279198172065
0.163403472856223
0.167049492814341
0.168569497067901
0.161780453727126
0.167470378381526
0.163852259705458
0.164580735108713
0.161855958523613
0.164103553770682
0.160410418073341
0.166360181180686
0.158050916552176
0.162790349990722
0.158441659075305
0.16233558888951
0.157693383593174
0.157769337988842
0.156104802993927
0.162157419936255
0.156409338448643
0.157708169982072
0.152891565755631
0.157852611221333
0.154197229895146
0.155962599759617
0.152076337645078
0.153393851120964
0.152914372332926
0.153868149785852
0.154034649220253
0.15464097141771
0.147958763304227
0.153584928154301
0.154711340824164
0.154055616060928
0.151252062584717
0.154178846683192
0.147818336522845
0.149002718688253
0.146465562438746
0.154202383037506
0.150423298936366
0.152624484414838
0.149956286146387
0.15122300271965
0.149597156636793
0.145845640077112
0.147608307339753
0.151787771164627
0.143316743759624
0.152230227984615
0.146199602740978
0.150578356507194
0.144249714114016
0.14746176626705
0.145355969050695
0.148154794971235
0.144010962115815
0.145182010760887
0.141688160330867
0.148159223042449
0.144272977837397
0.146063810427086
0.142906994186353
0.143234255206811
0.140989056694791
0.143871656573984
0.142533903745677
0.143378801161833
0.139493699005898
0.145159311082411
0.142262483892312
0.14657438419956
0.135823396795434
0.14313832481952
0.134059476781998
0.138401452004984
0.13559925241606
0.142216703244624
0.137708030086902
0.140500641242087
0.136673503762833
0.141952379887085
0.135577541281925
0.14100120428214
0.133991811877516
0.138141023138727
0.132898968100144
0.132861730634551
0.133037502423612
0.133818668408191
0.132254495875522
0.139627437869204
0.128967347640876
0.134112618422139
0.13688438184473
0.129112078468606
0.132717341864276
0.135017497939811
0.133582778577483
0.133481734714522
0.131370798144354
0.133485964366586
0.123598438939965
0.133916871906238
0.131009298410402
0.133014882344545
0.126633042486841
0.129671320789821
0.12871483759231
0.131209425007922
0.129178503493284
0.131230873383664
0.126231010301588
0.130777720050995
0.126536819218487
0.129057563619821
0.125057974976698
0.130056669928866
0.128953688759359
0.127258793027622
0.125164674654703
0.129823205812787
0.121943564024412
0.125785513820671
0.120199955149243
0.129586633577929
0.126212412935883
0.129389435752721
0.122686895218526
0.127798767552586
0.123792996968699
0.121542524457419
0.12108220190037
0.125470037907335
0.117734517612102
0.122693375584203
0.121510588451644
0.122515242050629
0.117887395812109
0.121273726748079
0.118652329777
0.1190561888218
0.117193839025965
0.121826321454244
0.117093117005172
0.116702296071972
0.113038919492333
0.116346031515305
0.11385356510486
0.117186490515179
0.112056662644168
0.11776038881246
0.111126118511447
0.117892089775191
0.113716887270405
0.117051039874776
0.111865129699491
0.115183500149192
0.110966840415628
0.114074919147662
0.10928631432536
0.110071117238325
0.108850104163824
0.113969026801217
0.110926693687421
0.109531472998397
0.108923035347536
0.109171903941181
0.108740669197991
0.10729260497137
0.105797500571074
0.112539935933671
0.105132033379835
0.11090530594553
0.106106033605598
0.108228934786857
0.104378574299492
0.107801548997466
0.102775324756505
0.106152243423822
0.0994234002264706
0.107573564905459
0.102709589580143
0.105651097449605
0.101415208344304
0.106281963030872
0.100002748791464
0.103021217666498
0.102000519446269
0.104300488072203
0.100907664955405
0.103205654063861
0.102866096600513
0.101359028980843
0.0963333616668405
0.105605143428811
0.0991108713895591
0.103046263647033
0.0957030667833619
0.103535607544695
0.0932148973469838
0.0975171016068447
0.0945943192784387
0.0968820147043343
0.0978976301838837
0.0988425353053772
0.0986607471186925
0.0953447089278844
0.0940712450278979
0.0984324967787314
0.0959471001847056
0.0975631212808088
0.0914361721695596
0.0976977335348846
0.0913733841137124
0.0945464556562904
0.0915293212400776
0.09614501753076
0.0921231342480419
0.0948740388353338
0.0935049171390955
0.094247846420031
0.093321766744365
0.0955389555671665
0.090158240597797
0.0928754918081325
0.0918513931534617
0.0967007306347311
0.0880196559243649
0.0946675255684652
0.0916356392480262
0.0927516136390783
0.0917234228952101
0.091651611822444
0.0887256973026965
0.0929589282889964
0.088524126954816
0.090889275704104
0.0911729568071186
0.0939274056037297
0.0895847801382962
0.0956892424257156
0.0923299023078734
0.0947312107567958
0.0883062505148813
0.0900356777479093
0.0924332610026707
0.0925698322901503
0.0892837874711944
0.0947568834979053
0.0921910879391006
0.0942232810759618
0.0880348778095009
0.0904070308502477
0.0787579967879177
0.0840495334480904
0.0824347895766283
0.0911006633274435
0.084470546760684
0.0839806388751733
0.079402843426358
0.0858556526912848
0.0788142867422993
0.0833506376439146
0.0852116122957125
0.0873236839617213
0.0804198341686971
0.0912253958261975
0.0833070880894898
0.0827201984830728
0.0764497294459011
0.0876461453717911
0.0885171056889912
0.0814699682670171
0.0878821763111136
0.0888610275066016
0.0862018732821819
0.0838762109685433
0.0876765769721392
0.0826424040581349
0.0820798313627761
0.0786641280587235
0.0838738452172074
0.0773771089419509
0.0830303698743188
0.0796969087266927
0.0853757999067738
0.0829568119052269
0.0901869169463356
0.0785784368351299
0.0879522685676953
0.0760739901783797
0.0787851496396032
0.0751837728381427
0.0839276345373114
0.0801918692613391
0.0914032544689233
0.0772492133250239
0.0792692717034269
0.077596568875695
0.0832442797617532
0.0854794694387673
0.087552586978728
0.0765978552949087
0.0786329631684516
0.0925334541880289
0.0814567558428638
0.0859087001006647
0.0727545819192807
0.0975030804763401
0.0684514636654827
0.0909703374566906
0.0713824637023457
0.101202738779109
0.0680106230464801
0.099773910155319
0.0716764152887824
0.0935980754979572
0.0767862988327858
0.0890238936114102
0.0800903866916484
0.0827003217830127
0.0806648527680569
0.086247808134815
0.0788857918287585
0.0821349263849633
0.0814337023351826
0.0872996531458109
0.078428779796822
0.085217680225435
0.0783720772139809
0.0871887233539401
0.0761529118156932
0.0853085547313736
0.0789943223921003
0.0874171224521416
0.0778105258981139
0.0823863148607933
0.0808274460695387
0.0846473702002156
0.0782971291523467
0.0847190775502808
0.0784572081499827
0.0832217848392604
0.0772307115055748
0.0838445208621651
0.0780333924694582
0.0827867562051751
0.0788314466948227
0.0843583797029749
0.0791473362354629
0.0843725886422951
0.0758040270527353
0.084760995345557
0.0762370951379493
0.0832854630542152
0.0812985295615855
0.0829854605591003
0.0795163692707126
0.0850399965443485
0.0771049719683527
0.0859403580208745
0.0765957668610562
0.0814127718394739
0.0797731784272653
0.0828565263642226
0.0781497243245324
0.0836656536341127
0.0778565412258119
0.0854928977009671
0.0792352560511009
0.0846844639350782
0.0803389827720641
0.0843308991397321
0.0759563349071834
0.0834552430373421
0.0782049512248507
0.0881876082550642
0.0805166409305906
0.0831188122441258
0.0820973619966795
0.0816465079650824
0.0787970487463481
0.0856041388847632
0.0792386578331742
0.0841843849966839
0.0795345784061006
0.0833754277781998
0.0800907771032183
0.0862005317315443
0.0791586152050441
0.0817804904169265
0.0798506403528085
0.0850234278463799
0.0802028658330423
0.0845120809528326
0.0796312348703211
0.0816817435864559
0.0816197099614229
0.0826375417377194
0.0791266173706574
0.0815296106831895
0.0845458657016347
0.086916513467091
0.0802401831485231
0.0867620534529487
0.0803754425699501
0.0872392005940106
0.0817303204290229
0.086883179939132
0.0807373144887326
0.0827314593840276
0.0809769794758414
0.0847444690028787
0.081124836122601
0.0837521691145023
0.0826492874966626
0.0850301563346326
0.0823430269704808
0.0871795613211832
0.0839963599030128
0.0862993846063237
0.0841795926000807
0.084883603520117
0.0872669244693705
0.087317019689866
0.0830507753558544
0.0857516903114998
0.0846884592281223
0.0869006202326928
0.0835460217642428
0.0875870448911239
0.0847721453811611
0.0872528314420475
0.0832826505792602
0.0859328511059854
0.0846537421635857
0.0870826821557723
0.0865411758453754
0.089650762007937
0.0869504243053425
0.0876235881001518
0.0850662980474315
0.0892635879208976
0.0803176988270022
0.0883078909575651
0.0826935451431742
0.090316125262193
0.0869129421028902
0.0870339517701127
0.0817466975691221
0.0883460045407499
0.0864056231333088
0.0904689814772703
0.0843846097966945
0.0887718059433754
0.0883726574556658
0.0871486917726765
0.0853890687329759
0.0877457567118594
0.0855087863124046
0.0891533162287622
0.0875749158026255
0.0915417698173243
0.08537073040021
0.0900390009336955
0.0853922520184379
0.0903053295376064
0.08686384226156
0.0892116644177577
0.0872954932017149
0.0904957362622876
0.0876014242814314
0.0928573099705784
0.0889089860493858
0.0919772050999373
0.0867433476437904
0.0894124170539536
0.0888344449723618
0.0926897161699698
0.0873236474584795
0.0944226090812981
0.0914712195843771
0.0906562184263123
0.0882868260025774
0.0910573364772624
0.0872910471568842
0.0925875818039766
0.0907657124157317
0.0929435525955093
0.0880078465430384
0.0923333196006113
0.086220756875001
0.0905855864995124
0.0871367372724408
0.0924384889516546
0.0887473322009221
0.0926710603375696
0.087560056857212
0.0941104366881593
0.08558746282212
0.0912541920914289
0.088978885738009
0.0916297922900792
0.0858564659031027
0.0926544601368329
0.0867625657675662
0.0894259758386215
0.0877507994816839
0.089648254718941
0.0850832292870529
0.0921775704446923
0.0878959697625194
0.0900763721062425
0.0851800922382389
0.0878103569161206
0.087951121289704
0.0885678022502603
0.0842680754121044
0.0902037710384506
0.0863340937613395
0.0891375245851437
0.0849589831232239
0.088865642312502
0.0861569881440336
0.0886683881698173
0.0826595161023576
0.0891299463770806
0.0841280248143446
0.0910071003506368
0.0848085162436679
0.0906952528474703
0.0853623042038815
0.0899385920279751
0.0858677795887158
0.0855810816145891
0.0861089683953982
0.0875472583189522
0.0833966197224471
0.0869120865722135
0.0840961442409875
0.0873748086438864
0.0840269857455183
0.0864073629352245
0.083713154404928
0.086069666819443
0.082895011029427
0.0869843421862048
0.08027126967817
0.0880011445699644
0.0835149225221464
0.087849639131265
0.0834023269351241
0.0851730439322483
0.0849063390601398
0.0869709417029604
0.0823859542084508
0.0854392181277257
0.0836954511074765
0.0852565913222103
0.0833171987317837
0.0857010391214661
0.0807466447993456
0.083661771517378
0.0832482706702082
0.088201287646187
0.0817714289136411
0.0852475524187789
0.0842823059635497
0.0834790617336656
0.0836560437171521
0.0842181697442732
0.0801173256131767
0.0822042218893758
0.0805661982011901
0.0861314044752554
0.084776495874804
0.0836868653141329
0.0804100337146481
0.0830268678332443
0.079094896395226
0.0829989233782882
0.0798450412283397
0.0858172381307697
0.0809118218025429
0.0853618226012518
0.0799716416228736
0.0846086795332065
0.0818177741773172
0.0813811061991684
0.0790466046114434
0.0837845745485306
0.0791298609756966
0.0808215067121949
0.0795808826860581
0.0813857195361912
0.0804067150839093
0.0801727251369336
0.078889964642956
0.0786642296474804
0.0785082720202189
0.0836359910964923
0.0792144964928648
0.0821812940775301
0.078389226208688
0.0833775286067369
0.0766064617928551
0.0805522647080638
0.077151295606985
0.0801180645024921
0.0783239908778292
0.0808339222813643
0.0775313969523015
0.0795846090646863
0.0746321848139651
0.079496413265776
0.0763059817020601
0.0775737004198877
0.0750043585340704
0.0819702670127825
0.0765494287262152
0.0770283369106561
0.0738532172900857
0.0792033008090242
0.072845379798353
0.0771716739571337
0.0735430967738166
0.076820769686369
0.0731844252935564
0.0766960654753571
0.0738735919128542
0.0777426389565018
0.0757173922347177
0.0766690294930434
0.0734209580598637
0.0716306380090003
0.0697085598478274
0.073756645707796
0.0705046055449258
0.072026106292242
0.0706198703793389
0.0711456260279641
0.0717759798690421
0.0750287261502227
0.0697029095465377
0.0744064782267893
0.0709001111486577
0.0698149158908835
0.0689999122069652
0.0711506752143855
0.0732132244656288
0.0732484600089915
0.0694336565843161
0.0710041003794776
0.0668470158487487
0.0701575990098443
0.0691351828721475
0.0679566579247702
0.0683205605992654
0.0722866216427807
0.0773886947224948
0.0691809637163407
0.0685522163811386
0.071038617361136
0.0675621873457388
0.0699753187069614
0.0684905588509769
0.070986430112605
0.0663469564479634
0.0679952233861973
0.0653301286087817
0.0681638573775759
0.0665366586172474
0.0684723313034519
0.0641226665503163
0.0676786535081288
0.0668271155739185
0.0696403059910193
0.0640890719577822
0.0658466952841967
0.0645049261347142
0.0689230294791358
0.0664670374461338
0.0670281264046869
0.0669428208782074
0.068682948862148
0.0693128114284512
0.0713989475108349
0.0642838681515883
0.0678844061799626
0.0644329180667191
0.0664567104205853
0.0601623283807247
0.0661455690643681
0.0627747257379252
0.0676206066680428
0.0643909666455271
0.0652766170513008
0.060402380184525
0.0652813256945899
0.0627697036073543
0.0633586628532505
0.0618204135051354
0.0649227251593536
0.062786237325926
0.0646341692690452
0.0609619105037499
0.066557052095961
0.0600075984464813
0.0676786441994255
0.0584371493822139
0.0661354011019032
0.0612601507526518
0.0714689941440477
0.0640177898833493
0.0630645228977817
0.060871277193926
0.061876401598789
0.0597777373699557
0.062164302682727
0.0585606331092446
0.0604607081916124
0.0581353345064822
0.0616396565132427
0.0595206243554115
0.0619665398661654
0.0619486735485792
0.0619171173232075
0.0608994397446731
0.0610994903659494
0.0595140447273784
0.0617035712497632
0.0595573406780996
0.0633440598788324
0.0684770120204644
0.0677320845823891
0.0589305395677172
0.063613955447725
0.0629853324242193
0.0675684357141736
0.0690621001106935
0.0572738903328116
0.0644145928479461
0.0577812279364009
0.0631330692017975
0.0606078879555861
0.0605987478439644
0.059687977393333
0.0670579282122598
0.0635161521584235
0.0611584875394986
0.0633462466546804
0.0608267777268524
0.0630872230377959
0.0603401009321854
0.0585743575855789
0.0575664132753025
0.0604132528205852
0.059721109692571
0.0613860671898157
0.0593371265791032
0.0609834666928748
0.0615104604953852
0.0621851851499081
0.0651801869044807
0.0594918807263322
0.0577988810459787
0.0580495154653195
0.0610504042852568
0.0645293362764666
0.0652489810132185
0.0619337732688418
0.0594024213150912
0.0632980225894102
0.0571496220024266
0.0615090972698837
0.0547262768846735
0.0594944992888615
0.0557601143545361
0.0613228030130154
0.0582881782945031
0.0618329904889462
0.0582590723225524
0.0601131543241197
0.0592860497300004
0.0604006068059709
0.058605075411979
0.0621208992617377
0.0594974142484185
0.0602373761222608
0.0602142620702132
0.0668035635757162
0.0706586708232834
0.0673968891312496
0.0654238956387659
0.0626972385941137
0.0615342388159011
0.061786421082586
0.0608165558364923
0.0607257483534782
0.0591724151656054
0.0618419509461215
0.0615183793757043
0.0614086289423127
0.0580759698982474
0.0615349151605429
0.0589949091489417
0.0619356319511719
0.0563741425488216
0.0601731031991248
0.0557549220334254
0.0628561425817502
0.0542196666309106
0.0660765318450064
0.060860451295048
0.0700045862247947
0.0544909951856066
0.0685588139801187
0.0558043564999948
0.0831455718370996
0.062165584937607
0.065784040505606
0.060255881786916
0.0618528431147983
0.0587693681083377
0.0638563774159839
0.0641193946036727
0.0641568658677298
0.0585374245166497
0.0630978548953929
0.0625143523045883
0.0596974852282684
0.0611420966666762
0.0746656933405308
0.0782355515627986
0.0763299583116472
0.0579695559913128
0.0645586409088475
0.0681368189180612
0.0797780908803884
0.0663887517272355
0.059911107959843
0.0660655282920335
0.0587730881118184
0.0641608171947077
0.05886230220997
0.0639253622064522
0.0667008170160461
0.066178734805071
0.0625110749727138
0.0616442435512249
0.063578772350248
0.0618079854927629
0.0652239129858305
0.0642484713638272
0.0727771189042625
0.0651377227834489
0.0643421664792311
0.068931590739619
0.0635512066540462
0.0633491163256614
0.0620753418468565
0.0643641827826088
0.0710529176200529
0.0717534260721575
0.0734048441522651
0.0700910454979125
0.0740544579061577
0.0688178038923157
0.0621499922066452
0.0749125971118015
0.0671292971455099
0.0709276860359021
0.0673902889907909
0.083667340903428
0.0858188129016332
0.0678532305671613
0.0779979819836072
0.0607784119998953
0.0746969982734327
0.0603569296832244
0.0774075940700061
0.0667848710518813
0.084349913765867
0.0596564672714232
0.0801188421460493
0.0604346970993923
0.0833417088861011
0.0721102282152043
0.076360138542033
0.0685871403644411
0.0771439494071272
0.0778915361980014
0.0766583671138756
0.0722647990361127
0.0787474057834862
0.0940174171158415
0.0874919225635875
0.0774298275162545
0.0797502465817999
0.0693018094841183
0.0903789586049258
0.0713567528779133
0.080719872006041
0.0699478206859956
0.0798414011858282
0.0829890902673475
0.0946184935113969
0.0868922952152736
0.0819629186298732
0.0754311329906157
0.089292635721574
0.0847693161378443
0.0911270502572048
0.0755367656472845
0.0887161255170056
0.0759568985251465
0.0961816605139351
0.0882939579746256
0.110199786776767
0.0878976919846814
0.104225886187033
0.0986298352745508
0.0957283818423482
0.0940955826520484
0.0945230078562435
0.100854444110438
0.102282435328923
0.0920231178183552
0.093563435317478
0.099331757240331
0.10529972281936
0.105943530505033
0.09392491377801
0.102202788862368
0.0979455105394621
0.118933322312061
0.139739637916411
0.118079550371396
0.104218215500875
0.1100047730551
0.11343412922313
0.118392686144203
0.107616966341689
0.108685429126835
0.10679206814564
0.105262138151119
0.116322392576409
0.113907637324171
0.120159386029695
0.11500755002306
0.117851705536172
0.122623417954408
0.137679760087765
0.146507121984765
0.130886345372392
0.143498989702965
0.122566092821385
0.150531299174586
0.132360697625163
0.132356104909564
0.132567462058122
0.136193724781235
0.140012940850837
0.136006083322046
0.145030796728422
0.139855466250745
0.157662055739542
0.166916244798203
0.152767508347699
0.16358466561084
0.138342134936309
0.185557740513985
0.153041806918716
0.210565712905837
0.155284240884928
0.180921063982293
0.179339120097134
0.200000781366128
0.197318807646674
0.187627963091382
0.191877182038112
0.189245133446413
0.194511862630269
0.210193557427677
0.211808291031685
0.223189839138551
0.216305554781852
0.222248350147221
0.223909357504092
0.291696558770764
0.28046425809897
0.255375903083039
0.25391167212628
0.266545259903611
0.272521605784698
0.269978462944049
0.270580424614517
0.27469547294584
0.300936794772721
0.310859913289936
0.31774632765083
0.291587321304251
0.32881772453017
0.305154228169751
0.349147315320389
0.315470525725793
0.364204045841613
0.340656742575969
0.352339425611156
0.356025871593663
0.356178756397308
0.363102372907326
0.366613546410522
0.395818315984149
0.381345217050048
0.391359394073667
0.396493978513502
0.39260336852892
0.408005797915412
0.402157804815403
0.420414704370101
0.409446141621192
0.474798264558898
0.449726643852729
0.461693699761694
0.424878699350411
0.421646989543838
0.439770461191638
0.424883123613736
0.450441456405415
0.460377362058694
0.460650530103676
0.444626974957491
0.43488974837746
0.447616295260082
0.432393687239454
0.451797720415562
0.428353917745446
0.456192965792039
0.437469258111585
0.442713066754562
0.459141552015211
0.485065404065482
0.465114430713871
0.438754470052683
0.442294824484782
0.438554127692219
0.443949016285584
0.434190093757643
0.444281790649873
0.436474474459481
0.447354252912277
0.421121252173406
0.433940733725763
0.431356353704492
0.444642707874661
0.426961517940554
0.417939618719476
0.424373724606749
0.414028926720093
0.406899966848554
0.414935256798125
0.420560312844553
0.421357249789357
0.392196307453641
0.404549272329263
0.389956147348847
0.388342963625489
0.378998259497194
0.394190316727624
0.379099787955756
0.3910520980638
0.379408267358185
0.385651772778705
0.372588062771282
0.38171451225444
0.375338507575304
0.374865726846477
0.371231710268722
0.370812001150088
0.364594692661767
0.368902616960634
0.367416056559466
0.3694024758526
0.36768415679051
0.367866752543836
0.362043732539715
0.363233406522128
0.362677370247228
0.363286797476944
0.361320051021243
0.359269200431727
0.355060773215858
0.360103613928686
0.359873946165124
0.351573913752661
0.346775991297897
0.349414765056292
0.355195457210908
0.351359351618964
0.348806633469006
0.335966434144618
0.347291814797235
0.334210562910287
0.350418177217505
0.354806137789797
0.354067637883729
0.34803609388446
0.326180574994372
0.339865816840386
0.318733640618102
0.332976210611193
0.338743695239615
0.347407164798218
0.323521193486097
0.316043179438741
0.307049637784006
0.328166650369797
0.308055996581547
0.320364452956102
0.289901052516582
0.307967929717497
0.302679347956194
0.325764288861596
0.372225201587009
0.32816224916909
0.311125728333749
0.276477815482543
0.311478427233995
0.288496511186508
0.295199701179516
0.266449927905408
0.280354771692525
0.277677237106194
0.282059983390902
0.275603746257098
0.261944355289672
0.26079260020406
0.280997308486869
0.287989215713975
0.268224221836076
0.277875118787801
0.263981380823606
0.272252264215089
0.265811753490479
0.311155630403599
0.259695171562391
0.249461930258252
0.244869193910333
0.240077781817697
0.258712553444499
0.247668971739524
0.255466900905949
0.246216485855186
0.230161792654232
0.232756123660927
0.227233519438267
0.244365933234936
0.216591371246539
0.257171707127235
0.225415851711035
0.238068701730042
0.219395455900626
0.235698414522277
0.246384299125288
0.253797890371232
0.225420637995854
0.212906907704065
0.242990857978389
0.23296152745742
0.240750304864116
0.219044181294541
0.211266511039035
0.225835152632466
0.213491569150716
0.214870826223241
0.217575044814163
0.220664291700896
0.240854974892199
0.216649493529461
0.260559026410084
0.243747872143546
0.213525780419822
0.214265913629349
0.204702910024278
0.216785468563631
0.200958912097446
0.206978554170554
0.23015385497974
0.208702185753523
0.228675795680387
0.209963530060301
0.229931252425397
0.214302373565565
0.219029311887142
0.220921715182166
0.225980333407201
0.235923036472763
0.259225984698962
0.232293589544912
0.25020964367518
0.236037136534015
0.251485243796346
0.233098324913512
0.250048845271604
0.241544083839025
0.258499615714957
0.261166755885239
0.268403069299542
0.263628252156328
0.278454638833155
0.264940670004102
0.317526420025588
0.281045074868361
0.305669494739497
0.294148767805771
0.322449993845769
0.329601778188482
0.323244549129624
0.329592613658804
0.323954961713219
0.336564313850466
0.339749286841422
0.329782797982832
0.367182830271689
0.349377403453883
0.364434528004885
0.357029112891322
0.363600167988207
0.356832883473004
0.37476432918781
0.389230970028837
0.385476207737028
0.430071453779191
0.395589704368352
0.42033621323097
0.381729094357816
0.398364287890592
0.395614402072298
0.396979431372084
0.396875765681459
0.385968095333667
0.411057617564827
0.410854545504089
0.412069501889651
0.411812768539883
0.406064432578003
0.412249040572208
0.401748568176952
0.414148602056952
0.420329671868957
0.42242721612954
0.4287311617297
0.419457131208637
0.44455294193402
0.467029058050314
0.442290648354794
0.452127118987636
0.439439133757493
0.459605944035325
0.446309373146732
0.459940091158647
0.468911452356796
0.464354115514806
0.464712433431989
0.469675649941666
0.474388247885258
0.468756687153354
0.491634500422107
0.486653095971404
0.49130392087122
0.493146129683629
0.466299632416386
0.545519879625233
0.495585573736486
0.526348777411924
0.488348830273408
0.511103457453237
0.489352266885853
0.505127093735805
0.497742282024153
0.510892115640381
0.503336506845722
0.503174493046113
0.504526626951476
0.501687762349762
0.507596783856931
0.497704973925852
0.504111928684147
0.518588183178229
0.50388043441587
0.51343041555777
0.504247349746071
0.501982425205464
0.492431407611373
0.513959826116593
0.50051833605397
0.513190015721931
0.494056497477652
0.50540010515582
0.509022744570367
0.509686608768644
0.495794909425299
0.498872441314012
0.495073700934387
0.510871046353144
0.48811816215174
0.518270504099368
0.520393773409023
0.520248678226613
0.500010057496911
0.513946652483812
0.508528374201932
0.524762311979951
0.518564292534043
0.528570279729245
0.518749753295742
0.53303140054536
0.528202822165465
0.528949240869616
0.527107412721486
0.532109667289664
0.549812303372869
0.542194012673063
0.525869723981607
0.533827799968089
0.518611065010286
0.529105122424417
0.5230547204862
0.527826921622726
0.504293186228295
0.519025851360303
0.490547809272987
0.517999174878046
0.512730688460567
0.502592030297513
0.502003243320176
0.484386022306877
0.483680854280487
0.476843997323882
0.4790381613002
0.469516001568394
0.472626204131107
0.469601257216975
0.468410568644317
0.463123283580634
0.457516638815446
0.463375888830935
0.461873540244004
0.464057644101099
0.452966531987569
0.45303245310438
0.454287875959978
0.462067619807854
0.449959470091795
0.452587134147766
0.446569411008102
0.452786971133046
0.457286834532564
0.457896450427016
0.471553000367172
0.451992706717652
0.462946917612234
0.449279014506907
0.452271259706122
0.44595974785121
0.451652601154652
0.445333472112702
0.447916343605576
0.443631661927798
0.443204528469373
0.4517752749356
0.446493294567031
0.447851158032184
0.444245416588648
0.44219906046248
0.440804794734428
0.442259990586347
0.439630154347084
0.443420230472924
0.435173266978529
0.445771331933712
0.440387189578757
0.454036869748305
0.43758476516477
0.444607337661532
0.443640583698687
0.44611076246162
0.442793020947276
0.440690329692813
0.441711321320736
0.443004880291625
0.438712956988059
0.441888618503423
0.435662353733418
0.438039794363592
0.434011337853158
0.437190817215602
0.433744865638245
0.430359772981254
0.429486585623052
0.426713065056449
0.423453578076947
0.419213456930238
0.418876112299429
0.412806006199935
0.411389303647241
0.407205709310046
0.398365075686654
0.398307116801954
0.396078615288246
0.397876889717499
0.39206676985049
0.392896393801432
0.389410997689622
0.387826435300308
0.381910338445955
0.390326568374992
0.383401186407698
0.386587430262567
0.384300706344607
0.382923079771286
0.384212578122483
0.385588879303796
0.382973364960913
0.387050479976289
0.38377037071382
0.386603468750373
0.381713520619021
0.385680422297551
0.388288204214283
0.391621495920862
0.389960393561021
0.396286192802573
0.393591984650383
0.393559900386614
0.393224569085679
0.397312947068161
0.400133557407429
0.403361234419677
0.39989120137975
0.403884173974711
0.40401452408099
0.404821065223006
0.405917116050294
0.405550503412207
0.408369447750107
0.404620721291866
0.409302836382097
0.408342348972939
0.40288279381205
0.40618273862443
0.407484840443556
0.408110507098651
0.404413679953486
0.401689728244825
0.400323410461729
0.399723995301987
0.399398708607599
0.401230899958072
0.397985158768112
0.397062694395199
0.394051567142946
0.393756795614137
0.390349167082254
0.388846271803529
0.386566513244144
0.386649672085593
0.386476581521571
0.384549171638068
0.381282131429528
0.380449274384584
0.381258702227299
0.382965557213507
0.375477835297685
0.377169362486732
0.374305904700999
0.373089634472938
0.372652834651006
0.376342516693874
0.372191687363501
0.372713964334807
0.373937346764624
0.371280933124065
0.369526971444205
0.369072154226452
0.36964727243338
0.365780090409953
0.360820560314895
0.361889472469945
0.357214930851779
0.35778326261818
0.355557050524688
0.351774545430668
0.34581677236846
0.347263509143246
0.348024336779755
0.340266828351651
0.34119338391353
0.338278095246471
0.334729192718502
0.335371749311869
0.330128789815365
0.333080985883913
0.334334851395747
0.333605042811741
0.33112427887509
0.332093988203406
0.32921182052953
0.328766500426864
0.327236463671582
0.328296772107364
0.323162684827939
0.319159878670364
0.318789711710541
0.318184467240812
0.312097756824664
0.308666340159951
0.302036509847192
0.29978638834541
0.298629562116598
0.292695180223613
0.292259603071873
0.291092710644918
0.291261288806547
0.29188509803125
0.292907559352493
0.300467329153255
0.301199156811562
0.309490457706332
0.314575232337865
0.325554245167181
0.335867184008975
0.343671966746549
0.355782223370489
0.373742938717663
0.38525106792955
0.400228556593598
0.414550486961526
0.435451336720415
0.44559411359855
0.464190017887537
0.476503401944801
0.491922896460346
0.506460868991507
0.52077884027204
0.52744101339262
0.552673750955265
0.562424452456344
0.579415196439268
0.592058643363104
0.602316389737473
0.612121847861949
0.620853659874365
0.632633600240596
0.639700241020395
0.651713455543056
0.663756804755448
0.668690732268944
0.677775446823211
0.67770267780264
0.681421480547414
0.691875539388227
0.686965547452765
0.689675137782363
0.689020759573027
0.689417593575321
0.684994728884124
0.68791824942076
0.68913598977011
0.691373549213113
0.691490582033562
0.686437567329367
0.690255697178423
0.690048821193519
0.698625743936565
0.699404780576818
0.710299178233745
0.710720547469724
0.712599055543889
0.718552157513765
0.731241032195503
0.729535266534855
0.732247557374164
0.73601606928124
0.74602375429203
0.756630113624487
0.757003420070573
0.785613790904063
0.789307693152937
0.799782490121569
0.818879683146016
0.817173522999437
0.825270883451601
0.847849767334146
0.851746923795665
0.853666412547212
0.868610765689021
0.862149556220057
0.87572384557564
0.870394883362578
0.888560819672897
0.876018450449423
0.869128360278959
0.868039841946103
0.873038468210213
0.855442832221424
0.858416957419888
0.855196261574517
0.850648992694724
0.856062418198688
0.866485060798959
0.87501261801993
0.884928320101851
0.886266519067903
0.894054333006055
0.91512779460917
0.942170690743873
0.94849832981736
0.97137493244841
0.979326420179359
0.985821429352998
1.00443822184518
1.02483538174023
1.02946300914523
1.04641116528941
1.04810900720509
1.07897646326811
1.09657606843466
1.1090998040678
1.14325102092227
1.15952452720141
1.16205788231726
1.18178703622891
1.17452421490148
1.24013585696241
1.24525013594418
1.23436777374753
1.27714112063882
1.35861573197376
1.33147985598812
1.33218632348611
1.39613790056214
1.41158029218698
1.38698845947781
1.39542789376074
1.41753595336377
1.4234675670128
1.43046903488245
1.43213227606917
1.42960215953327
1.44499651123478
1.50644562824289
1.42239842059792
1.48360836286447
1.44685023159113
1.42221851668429
1.41892665313053
1.42016442631012
1.42282869017834
1.42034723186732
1.36656502913803
1.40363296175723
1.42531130268357
1.39125819173421
1.4198980007564
1.46991050744317
1.42259499340449
1.42394047197793
1.45566396197221
1.52831011572446
1.48497970591162
1.51837105333748
1.5524683781662
1.53877822744268
1.54972693544179
1.56096929022129
1.58539145969827
1.55894649641632
1.56844806236528
1.60678324403736
1.55387720948932
1.55579198577337
1.61868187227336
1.61985677037069
1.61089777213946
1.61345113973232
1.64182205590891
1.65568373802083
1.60177176288776
1.70999322621983
1.64243817764734
1.65905482111419
1.66610873927214
1.54879756156767
1.55478518859284
1.60210854631512
1.56324515386595
1.67425183655925
1.59972177341279
1.59590950548112
1.56850270734085
1.65884144235109
1.60480226756567
1.51372583551471
1.51477174144003
1.54528748800378
1.50892327106143
1.43429228985041
1.45585794065891
1.41114980467224
1.33105386440126
1.31773017486538
1.27374962093944
1.25398157362262
1.21940271615846
1.16873031459361
1.10687161153147
1.12059401766284
1.065782579621
1.04672287444932
1.0261101181779
1.01163155151524
1.01643495718839
0.992042179213295
0.98824117619833
0.981732111892176
0.982572159720914
0.995697913518341
0.958677591774187
0.958497915196877
0.928941512183457
0.944890763203383
0.91878743090827
0.912070661214217
0.901993681979499
0.876932680803403
0.86005783173093
0.868851330693933
0.8346498861546
0.804742558876597
0.795901932320821
0.769194079306269
0.758867541595116
0.74133184735182
0.699381778259455
0.680125737260577
0.659459163211717
0.629483095506296
0.596230551336404
0.580178839400899
0.564736846679973
0.533807709555033
0.512522444646111
0.49927784978719
0.479036614887623
0.463666450734653
0.451048571712993
0.431798730859204
0.41881811022793
0.412766194236558
0.399909522526898
0.391675358962318
0.387305818271544
0.381829687832684
0.37002380788278
0.368660047823533
0.364126697821907
0.360736425560403
0.360084646929371
0.362748465614194
0.356587547460943
0.353467568663307
0.354811355433537
0.35468975967351
0.356560782523026
0.352779978441833
0.354935954586675
0.363332761961654
0.364152500908502
0.360285008237331
0.364340266224876
0.36577883648456
0.359017992818718
0.364198726468416
0.361260676892668
0.363893642773107
0.359119693195455
0.35840896227153
0.351986585624459
0.348567199038194
0.351779129226917
0.345800707579401
0.342994012049524
0.344498402232696
0.345786962316545
0.343867236810718
0.344003065600139
0.345424139510491
0.343435852933022
0.347984257325088
0.352600062765521
0.358998379378723
0.35514396207951
0.359358403591977
0.360271148390231
0.369599829725928
0.372145238895119
0.370627777643163
0.367295333667833
0.367004295513481
0.370279191397829
0.379553515850637
0.375417950436099
0.375445992459441
0.377164186593859
0.384518687972501
0.379491123589762
0.373480387164527
0.38116924960561
0.386597364166049
0.381520369005666
0.387227470764835
0.387916423206012
0.39963492381686
0.393050596971537
0.402577359073322
0.4045063334004
0.409456480027051
0.42051647990698
0.432366469447779
0.439603786936909
0.451379791965748
0.461798703254845
0.470190753327158
0.477019768658624
0.480785993063868
0.486997941434333
0.491276125121461
0.487802119717314
0.493078422022221
0.493820366499506
0.491521931960472
0.473810441843188
0.472837700178669
0.463527569051578
0.467039451180823
0.451624520668261
0.457689774168247
0.454002039175044
0.446976518445736
0.449776758006393
0.441927774693185
0.447845657316105
0.450388496978583
0.453333092277747
0.45524495708222
0.450423714875051
0.453293509229758
0.449231307626023
0.457071155585959
0.445471649100567
0.433083073586014
0.430837747758898
0.432362781297412
0.418804833347385
0.422840019597529
0.424353539619645
0.430319673195294
0.422676211220836
0.412928283137315
0.408423150458971
0.422483081078489
0.403340025412397
0.405505833571459
0.405247618931669
0.396460560951777
0.408873483616411
0.415676462765524
0.403039109942561
0.412041730244808
0.394462353174948
0.406083225993338
0.399088987662234
0.40513506228874
0.398150268963934
0.392723518236288
0.382310348857625
0.400453812048699
0.394166917152431
0.393418199236728
0.390762090263418
0.390989565161059
0.407090010903772
0.407468516389219
0.390500312385892
0.38633616184486
0.377359363931633
0.382751652362497
0.394508631330796
0.375937643753402
0.374128605051497
0.366051558804252
0.371990541329589
0.383285747098657
0.374999681915512
0.387990447834008
0.363884268742546
0.383277952538666
0.389817031707824
0.394053920197837
0.377030933786767
0.382779329204436
0.387790417156605
0.392851804516254
0.389438096283235
0.392914061831571
0.393087105581103
0.406984893850364
0.392436929789726
0.394392342068435
0.397358276031226
0.3933842396265
0.394316878156539
0.40768843666955
0.404564301937489
0.410108555262048
0.408715274482341
0.405182687846603
0.406852253656877
0.431884605301054
0.425514299638468
0.444484331113062
0.423725439895397
0.448564647590914
0.437779813408065
0.452948423768722
0.458093995329249
0.445797675171863
0.450916547750035
0.474516980748853
0.479780591628239
0.481904981080353
0.504258727774869
0.53501109318787
0.528234576381271
0.53943669143646
0.55061331898893
0.594326582850968
0.572442856874842
0.596487277699041
0.596915955914861
0.610625811831064
0.619080714303404
0.651813216406602
0.621555904564481
0.61012684616616
0.613976026067543
0.620682304732165
0.593876395495521
0.635977030721005
0.615616070702575
0.584420169016557
0.614271073899301
0.632905137742991
0.591403966821993
0.638692616108464
0.640798408653684
0.615817771285313
0.580868610836311
0.610772374346724
0.645319447257744
0.629078483599127
0.606349559340289
0.611132679163997
0.594483684146709
0.613660302948031
0.634472666595712
0.625632595923733
0.586843370439667
0.568478470157402
0.570468374308115
0.591874145857844
0.57023650120191
0.613844590596725
0.58500187592143
0.568779828581942
0.554435984289296
0.567469519386944
0.571446060501783
0.594970259941182
0.55808452134783
0.593412003416191
0.558736002725634
0.54200962205308
0.55888901140709
0.60025097669565
0.569419161579768
0.595032844735445
0.568878921723135
0.558921272919761
0.570024633276606
0.559404279037274
0.59833870667861
0.600561564615644
0.557025681413081
0.6151160801405
0.563617228505804
0.58661051277337
0.618143257038678
0.646063145937261
0.630186670390516
0.61519556941276
0.622741820100051
0.685611445865933
0.601654104037866
0.59927762488198
0.638603904146289
0.659407969827538
0.641033247235971
0.65895176131514
0.61277173256812
0.635515267365727
0.695433251808211
0.722720280739662
0.61588000066003
0.688555947643545
0.703662806381667
0.618464836936138
0.675016047868294
0.638350130609952
0.650808155779026
0.754734413812499
0.683127858231821
0.616008014542109
0.710892363998474
0.815318354225159
0.700837304793892
0.718780145271321
0.74957826752211
0.930896920165791
0.822530391950424
0.818890554053949
0.938242739519326
0.815728269841999
0.736448858252733
0.786838119546642
0.760325269967038
0.821260749138658
0.805611741477553
0.793166074856011
0.749043026837942
0.715550354819746
0.707790504482333
0.784218098003894
0.601303175650359
0.718035615097191
0.719815078727685
0.7032064814163
0.667594491764631
0.67091272616011
0.665646463356181
0.739395353059394
0.70400913078887
0.804936217704556
0.841393564440132
0.829781924360133
0.871726695564733
0.844419073494861
0.815146804544877
0.738165730020169
0.712858657419922
0.927262805614867
0.789221210267156
0.79753391734021
0.762741691869468
1.30344999040069
0.863658761528488
0.776333969465262
1.28142923494817
5
0.693355045939769
0.793301458555356
0.53373956793812
0.461231642700576
0.785969248858004
1.01791797999291
0.719371000622147
1.01260650754299
0.682919372860981
0.711008771141613
0.486153774269394
0.490190307463548
0.852167114292831
0.992441736314113
0.562653491201589
0.649936445039741
0.928676313592793
5
1.50645283634517
