3596
4000,36533379555
650,420452594757
1
2
2
0,0552558519986411
0,0710483758779265
0,0525296145372355
0,0586564396032971
0,0581347238968763
0,0594356363203105
0,0482570717311927
0,0623715906385275
0,0492396309226494
0,0573800804428256
0,0617226152010077
0,0695256579241973
0,0604325180229779
0,068311273918413
0,0591782589945691
0,0637324275643726
0,0477107006872072
0,0613389206411069
0,0549276437473466
0,0610184547529279
0,048503701673951
0,0632046359838433
0,0451016645422123
0,0529231595498243
0,0562509883353174
0,0575034783063348
0,0589543157551149
0,066029244897109
0,0595302057134053
0,066322946490257
0,0520833630818368
0,0671252552952487
0,051315676136333
0,0688104810254594
0,0583148560474921
0,0584565120056808
0,0499401790005613
0,0650089234734633
0,0513378775735765
0,0695106861089072
0,0572871200855089
0,0542363228237801
0,0552121789444242
0,0531866817756618
0,0544403478918085
0,0726685638132269
0,0529776692763433
0,0609716985303117
0,0573957141132444
0,0647603868328449
0,0558476329990516
0,057081426573917
0,056643184564823
0,0644175321108876
0,0545077859067297
0,068009921914362
0,0583710017712346
0,0670590662004347
0,0592389323016944
0,0628889708957388
0,0663773872697261
0,069129225202239
0,0557309373132958
0,0585590262521756
0,0560571115560869
0,0626737840070016
0,0519599761542661
0,0660092292273068
0,0473114181664292
0,0643258212267413
0,0479875546070396
0,0716035690106148
0,0572086510470317
0,0724788489773671
0,0613532623264873
0,0648956877133484
0,0510356950858547
0,0617866006931307
0,0477168888486119
0,0661943829970314
0,0539934857759498
0,0720696936093816
0,0569752152994765
0,0606989238969712
0,0546642332483805
0,074204496802547
0,0472217223302044
0,0745587786146305
0,0569941661690326
0,0617049567880072
0,0499179240924334
0,0634605359573771
0,0447528638026028
0,0660864748814081
0,0532405193530971
0,0604485336420156
0,0459179394466296
0,071129526614938
0,049820346427842
0,0615079548350176
0,0321467026577131
0,0787387534708424
0,0670874313388011
0,0495260680247094
0,0702242366952692
0,0511020581207906
0,0599311999684961
0,0725921470122608
0,0573156581116547
0,0669984799830705
0,0484448027769013
0,0591850947570987
0,0429944683095258
0,0626694655168871
0,0458272163930444
0,0814923982881434
0,0576064964241093
0,0634738846666082
0,0512092682442246
0,066739007768592
0,0303864888569332
0,0919642021955871
0,0599960256675617
0,0652392546470309
0,0567933820326321
0,0625203537430847
0,0355635796215319
0,0862240450862162
0,0548562888539496
0,0656178913365596
0,0498673694666893
0,0666122508955156
0,0446009582117421
0,0645437581547309
0,0659741569530457
0,0649908934942102
0,0539624208205157
0,0471217829550957
0,0681795960246372
0,0780838155897574
0,0532984870612813
0,0679321207269363
0,0396728765960874
0,0643416768828993
0,0628368193160182
0,0606094854530671
0,0516986970268792
0,0895150641073679
0,0526773826914362
0,0631051697455312
0,0506898453750759
0,0627728966229452
0,0631211368736426
0,0704758939089523
0,0149648734162566
0,122189295649331
0,0292138823039647
0,088871375339832
0,0619991335061871
0,061192586590329
0,0638086273382455
0,0582492773995992
0,0605951981633079
0,0589688739506614
0,0585796222948178
0,0526415267607398
0,0616357412377007
0,0685250477712764
0,047842391868984
0,0609464350729226
0,0754412270549582
0,0606790366668109
0,0378629970367637
0,115208383304039
0,0479958099867056
0,0651001380092956
0,0611815088683835
0,0723639053609919
0,0407497383020547
0,0776644426517699
0,0552613327601809
0,0653096745968239
0,06082370384955
0,063259084427922
0,0571506851365264
0,0771636388697559
0,0569935267744324
0,074060524738217
0,0529088625247234
0,0566332808583275
0,0556306511998446
0,0788905666538451
0,0634499857561604
0,0612782518604713
0,0518729573569966
0,039037239960471
0,0722161254014742
0,0661100248613798
0,06065701585739
0,0608479546839416
0,0526572181344351
0,0704244599941189
0,0488610426699886
0,0716784419484601
0,0487919313528282
0,0532794805814247
0,0665960055232209
0,0662830574582391
0,0587417852466505
0,0569595708838766
0,0615577513732365
0,0398506297026212
0,0806016590525014
0,058651159998979
0,0646980448810892
0,0582562747519763
0,0484568060370834
0,0788351695572366
0,0548510890761043
0,0620756441635486
0,0599076173635398
0,0591441583898695
0,0521235199747319
0,0604257585747161
0,0562668065179561
0,063083478226417
0,0568626670605828
0,0645235357139575
0,0528317213481766
0,061851298890009
0,0628633907441812
0,0619352343533246
0,0548277985052458
0,0638227629487296
0,0465906249818406
0,0763528533964529
0,0532873367345575
0,0646716297234667
0,0566235352328586
0,0573780943047129
0,0502287406376765
0,0652995765154706
0,0490581679244524
0,0679218938230306
0,0459844739438775
0,053295392297493
0,0759830472742404
0,0548754594489312
0,0634373878716227
0,0463204459846287
0,0727287732718875
0,0561315515727946
0,0609722263377978
0,0488046861833857
0,0629183863717489
0,0564853377386526
0,0656684626537211
0,0695853127748079
0,0641776976931762
0,0506070458307034
0,0696522715521193
0,0555925139154065
0,0611600214717304
0,0459880020343843
0,048200046535434
0,107914906738917
0,0486671692094603
0,0619278958356541
0,0783380181138819
0,0604497684296135
0,0753952334647078
0,049013035933003
0,0281735901555646
0,0960080977855165
0,0834831137460989
0,0616391902630881
0,0516345307436237
0,0662962208624182
0,049692461303114
0,0709515678232052
0,0455513712053276
0,0776370823713358
0,0634420731105835
0,0858460197558466
0,0784275146070216
0,0462981711122575
0,0843812085439643
0,0646169444010628
0,0665040218550461
0,0606622930726511
0,0662261941105697
0,058429538277549
0,0694818527032317
0,0660620209275768
0,0728371180268154
0,0610543020148188
0,059627612568531
0,0731253488239009
0,0687980443937027
0,0572847210837952
0,0680434695725754
0,0789697284699413
0,0619378453009516
0,0755589304061247
0,0627334605496507
0,0824613722115828
0,0526871787614949
0,0691779081346617
0,0891185191329681
0,0757737710899759
0,0741748304521502
0,0926682050845716
0,0716923074875292
0,0818880230161512
0,0685186328780932
0,0803471042334351
0,0781210045265436
0,0829386035656148
0,0736932500411835
0,107278708808285
0,0734539464689901
0,088720956880111
0,0815768318138674
0,0880580852697096
0,0774386144725597
0,0975244337488175
0,0810997596082691
0,0889429106208882
0,0924996786495357
0,0859447153266493
0,0970636494718834
0,113357246938207
0,0823154737948196
0,133444817767063
0,100987820812508
0,115460766942914
0,0995885915029159
0,109595366531542
0,102103750607827
0,116218880835931
0,107850879233684
0,108522293890197
0,114907009147567
0,138244696123975
0,115034395379707
0,12411498361345
0,119864032471506
0,1465071272015
0,156463649670711
0,14730794615891
0,135824293717206
0,117516530427746
0,172142606549922
0,132755723848469
0,163146463349755
0,172769992075354
0,155273060085173
0,167409598280854
0,156445874763217
0,174860574769213
0,162659692139797
0,191031188013124
0,167148558505425
0,198133421598374
0,178030380092659
0,206370190106572
0,178251770984012
0,203223716805899
0,214632688864283
0,219863686596368
0,21632209097505
0,217142530471657
0,198230594672408
0,257471917569883
0,208909672771705
0,28417108843665
0,22688267489594
0,257866763508582
0,256586703825342
0,25733934093568
0,25217780477324
0,260879681992665
0,262336033994459
0,274615089473774
0,270136450958621
0,286132112198688
0,268458653616244
0,302073189538406
0,292373020086387
0,311617463600544
0,302099091052895
0,314612032070659
0,317881029815045
0,320120194425516
0,319914555462455
0,310523187801043
0,334035365489564
0,364372567609871
0,364873559669562
0,340008783376951
0,332972522493667
0,341895687321641
0,358174490276438
0,355944084087336
0,366111933728214
0,379994146933731
0,355589092131499
0,419455319604801
0,370614839273107
0,423719195612349
0,386039905673711
0,398979052341163
0,415428262208259
0,408808840935169
0,412269644782215
0,432427303581593
0,428405547451106
0,411578027232323
0,441764899227841
0,443506843136236
0,438018070772424
0,449387568665299
0,43078630553185
0,454541864432506
0,442969033452541
0,468861588783286
0,459796501211376
0,476497542102108
0,48890427721634
0,493593141614266
0,476385096688066
0,500903881041155
0,472234390571999
0,535655483278049
0,485723130010476
0,529605528253352
0,500286398955349
0,53835776187446
0,528410675513196
0,522268766755386
0,556438393893134
0,585485322915683
0,539429908215426
0,569919231065869
0,535091481781571
0,569256652793879
0,551470439590097
0,577452825220983
0,569040371532939
0,60492484240457
0,5770590993649
0,606458659646781
0,569242560776478
0,624722053643413
0,581592094691231
0,619307082702615
0,60806948675687
0,639428929659283
0,624036644374579
0,668934799141043
0,628866790471184
0,649168097778032
0,665257913694797
0,711088745861264
0,651569821285958
0,700376243452825
0,664371138803755
0,722598379425933
0,663314598999056
0,702996941998003
0,642415670631907
0,719247669125586
0,688125735256842
0,726439648789133
0,682969109338746
0,726548267619843
0,705720375937628
0,743194540545215
0,716688097825004
0,747322581345237
0,707691135889496
0,813775101618152
0,715624523596423
0,794210380550615
0,732666948539646
0,802105072441632
0,753234093664165
0,820299092112206
0,718378100105557
0,856561730733646
0,770659191789939
0,840473857348668
0,790579663029237
0,847823263303652
0,78692170307623
0,87750072069557
0,782066475739525
0,916990046945103
0,78829471739021
0,921373113155644
0,801930118747771
0,89738031433148
0,844815466478358
0,880634408087136
0,830835636309858
0,931694690722579
0,853594716816322
0,881432598114738
0,824237675556225
0,927249234410248
0,836581465242846
0,950777851875076
0,860969895282338
0,98651957550894
0,848646815318881
1,00417314612866
0,91536377192207
0,974072875843841
0,884990042444999
1,00726635135082
0,911154579467864
1,03771024784399
0,978043936564342
0,980395360960548
0,948147213763865
1,02679353001373
0,980656935639567
1,02297164251696
0,959559406296304
1,09098415166996
1,00519290514093
1,03135468812989
0,907737619198303
1,10578571429676
1,04409719775437
1,15823838780938
1,03427037205645
1,04986532771127
0,978391264894893
1,13434569354336
1,10166986864164
1,1254993743007
0,988534906619229
1,12495525991873
1,03437142569284
1,11344126768329
1,03196050874134
1,19596364592447
1,08841180462352
1,10662113485127
1,11805377690262
1,32681320685064
1,11969688262184
1,0981778762022
1,05452657386978
1,15419205717593
1,04354630192767
1,21814745492974
1,12475639281984
1,21926345132159
1,08894509618914
1,18868841245682
1,10324435673922
1,33391391425192
1,10780905974908
1,26332199584812
1,1687412727533
1,29457078041592
1,04899670996873
1,20956237480761
1,0881318134295
1,27278870689784
1,18516191200459
1,20299869417961
1,25280005541916
1,31273355551078
1,17247140716228
1,22751296395479
1,12627558296579
1,54738293543082
1,19682161849185
1,45314247160212
1,28036612183391
1,38472803569523
1,22811727328055
1,4952223964814
1,27904934510988
1,31861976958687
1,16356204791025
1,31736244431993
1,33299585085302
1,40738957859704
1,18415306632045
1,45857292302972
1,2530437639318
1,4341262112242
1,26405009001121
1,31304381920855
1,29887368435585
1,6088111189422
1,24927732820851
1,49359208531734
1,21752306379911
1,40327785989589
1,22230425931167
1,38823629147823
1,27402874109568
1,71156362398415
1,28100444510198
1,66603134354665
1,31863130540911
1,63220377954169
1,24915362310385
1,50968456570771
1,46246758262799
1,75288362750189
1,29323885229336
1,66938631525147
1,39727400477748
1,69213211115313
1,4977942896635
1,6971148518425
1,51633354631321
1,56966344234015
1,4605770019728
1,54274833418778
1,30847220940926
1,54454621320974
1,4510327156124
1,4402154815116
1,32589042261198
1,68980232934704
1,29729975880759
1,57810777463809
1,44424653955853
1,73998961425618
1,54121233612139
1,81762412021059
1,43338376516784
1,88427320158143
1,4041189793746
1,54105109074659
1,39467344735986
1,73150889076967
1,29975129218613
2,0409684154097
1,44658361333042
1,65647011545948
1,56033419812559
1,70720297108624
1,38075356026021
1,62031863680054
1,45508409445257
1,57369113833065
1,43134356815255
1,83681439488978
1,46857903135983
1,70910710994569
1,5630830268803
1,78250723020067
1,63466016800966
2,18638852620935
1,41338106983098
1,99534983060006
1,87811365490105
1,77234880607857
1,52926822631973
1,65906974505992
1,38876000188679
1,9123391494912
1,54290556538057
2,12410720124604
1,67956093891248
2,02216118222504
1,57707990667112
1,74883234655788
1,61593026387349
1,79266009674887
1,58147256869751
1,88120430466679
1,74035375215289
1,90308887309605
1,52261668086364
1,99104921268761
1,57479975097567
2,03644097163479
1,63263779442727
1,78452071824043
1,59302602093999
1,62470658952584
1,64710499899141
2,05847978185028
1,40254928177005
1,82798077781974
1,44476622440874
1,88085780646554
1,5601784714988
1,95221054095202
1,70695420196688
1,81420026208994
1,64173288742417
2,04997043193699
1,40937737933967
1,69871498559957
1,43796513361709
1,83536934411664
1,59380289250677
1,82211602768042
1,45367334967019
1,88831402218685
1,796317518744
1,81590013499741
1,50790176587854
2,12607334558843
1,68067900115726
1,75085936541704
1,52302159807932
1,78025343196788
1,5740084622806
1,80958299141132
1,58863757972241
1,97789410348321
1,5658044338788
1,70010141951438
1,80340433947809
1,83490401608275
1,51741034387261
1,75155808331068
1,44612239685914
1,80947131616584
1,69887466861089
2,23003742226408
1,6281963626234
2,26242098257237
1,65972535120368
1,70939442426904
1,57378760259037
1,83636285320258
1,52261056915103
1,86303768248987
1,40041091119694
1,66885151327652
1,66477307229477
1,97382835734107
1,70048432532277
1,63551868626343
1,49529632488857
1,87754782305631
1,66958620051125
1,81074496157238
1,53032963298218
1,81532870492959
1,63292477954454
1,68202106445455
1,67491468472481
1,9500572731112
1,6314250534454
1,78468986598075
1,65339967255495
2,15713510705323
1,48128467666286
1,70316644399232
1,66533413136477
2,08951670009518
1,51046284822669
1,88386523802212
1,54991832036537
1,94767743218314
1,62520539828466
1,99791903652659
1,63877352792318
1,70593677884632
1,72659215183262
2,53960256189081
1,56222023952445
1,92532945733357
1,64089149467568
1,75825702402854
1,64437484455038
1,72124403061668
1,65602038022644
1,83014807858908
1,60482659235545
1,88128198156877
1,50035917796945
1,66071202706087
1,62605653312218
1,90848894525975
1,68248120328475
1,75356699067719
1,7503443622242
1,78966859412832
1,5954705280819
1,91626290605642
1,55954212102941
1,76702907662182
1,4771753731405
2,04757457616826
1,57785368073029
1,72128693854949
1,63015888157369
1,88358946139647
1,50688245158628
1,84541320087742
1,57338763792937
1,85645088413322
1,53981757840346
1,67631750988207
1,55439368843146
1,79095224080339
1,53851004815727
1,95046168458988
1,59278390456847
1,79377223900964
1,69737380937734
1,75958995660318
1,54907606307981
1,85042918908598
1,54137069677932
1,64915467495319
1,56686459427921
1,77187336987962
1,58321552626729
1,77229347321304
1,62201606951352
1,83171379139552
1,59337406177665
2,05875069151278
1,55159098238655
1,58591443643815
1,38969418419828
1,75019354501142
1,54903792554944
1,70297916776308
1,6415312734814
1,90473447734069
1,56787711105719
1,58021401546746
1,52136254390701
1,6247155576957
1,5862173471178
1,82190439356336
1,54883339073915
2,04791936252139
1,51636077787054
1,5987253553661
1,49679708069776
1,80745487617457
1,51837317942289
1,85349120320702
1,54354117741507
1,66820959140172
1,49941088379501
1,56951207119906
1,46474084906658
1,91822816037812
1,51062147842608
1,48947046777994
1,48537029106904
1,74204902675178
1,4653524195507
1,57343084185757
1,55733389498797
1,5880498485006
1,5542220073817
1,51819864607055
1,4648400975074
1,74826693884874
1,46186700956829
1,49953834291357
1,4368426641756
1,73679938083993
1,51744335063579
1,48953239182729
1,37464064570027
1,49044180706489
1,45167262701588
1,50852027443687
1,47169820110842
1,50716020945643
1,36147132462269
1,46053552033248
1,47247088666643
1,44434817717218
1,37644210211426
1,5132218648135
1,39051949847301
1,40905845116917
1,37893776978505
1,45510900864508
1,45979434066329
1,5316511144874
1,3884888842238
1,39001558045732
1,28358179794125
1,45170821595401
1,31619159529888
1,38735590542451
1,29865766415764
1,29527168923649
1,34161508091772
1,40412382135463
1,28658994695603
1,36583049824472
1,26578605447462
1,40569910995057
1,30241603767781
1,35079533876101
1,24866770074599
1,32331873543685
1,23919266430363
1,37057177090545
1,24509542018688
1,29187193754818
1,25043522463901
1,25576331974777
1,24857162526349
1,27267047747689
1,23235965464777
1,27990493120717
1,17296475613316
1,2094748218137
1,21771331273236
1,22959550715891
1,18757992065135
1,2740413363946
1,198133896723
1,21460593268453
1,13873597604968
1,1934388520742
1,14251094178391
1,16398839748566
1,12497526434363
1,23712823153619
1,1213304275556
1,1906940362044
1,12077915137413
1,15158829876958
1,11327039100082
1,13650359172529
1,06720521474432
1,15287468357124
1,06352784794017
1,08679174714184
1,08409776583408
1,08787209207562
1,05521448286959
1,09639722894196
0,995937127395921
1,08035086837659
1,06005924394821
1,04867826889858
1,00715802459978
1,03156014365685
1,00609391402747
1,02957581010442
1,0198232909843
0,998466178225103
1,00040947068481
1,01244148131251
0,96964899123995
1,03313429103796
0,955193812596485
1,00095761488119
0,950573115844519
0,976492049337368
0,949774438472546
0,98822199326665
0,944029698499759
0,955583736179708
0,920099667599593
0,938714390748745
0,899158266332243
0,932704044462303
0,885506402532672
0,921671346182188
0,906781810711228
0,907402464609565
0,866736107662563
0,897736191076067
0,907887978701897
0,869026151426254
0,856510171308233
0,876320910278104
0,842979286645581
0,860956376145032
0,836248024752082
0,858501844850505
0,834193592352316
0,865486305424953
0,811624327342062
0,832052888387002
0,782727162491435
0,837968416192966
0,827803190336821
0,833519689765263
0,797394650950336
0,803408876982402
0,772142604187959
0,795773476732279
0,763326155448078
0,777561714474576
0,766954917747952
0,782044276544796
0,73654619846099
0,76503230748699
0,755037985745097
0,759081087779317
0,74568310071571
0,763851439176215
0,729563957550017
0,745670860217587
0,718234596873648
0,741329679994207
0,715167813383145
0,721410289018142
0,687194667077315
0,720422882354549
0,693120232799469
0,724945831463491
0,688056508477902
0,700023430666621
0,678502896735128
0,683427310528765
0,676236855148232
0,681045065815653
0,655692996902869
0,674089216277037
0,66499370612398
0,667153026512433
0,659133144543862
0,661458662517008
0,63754299547539
0,647374660686373
0,623298418357897
0,637439478854583
0,616068653450832
0,626040121532412
0,627512111889868
0,62810356334494
0,612263339749594
0,625687938848661
0,599996505252487
0,626001861017943
0,593031698966258
0,594153758825562
0,586350899087949
0,59425826134715
0,576520738388463
0,596961397083261
0,576932668938315
0,5995917435567
0,58242678868223
0,584984700454988
0,571583691643372
0,571148208516712
0,559625982979182
0,572768309184555
0,547829304705005
0,554713308008033
0,539433765601485
0,557253721132728
0,545953796281316
0,555928878930919
0,532054344384201
0,546308087540422
0,525519132254266
0,527646817647534
0,516389635290671
0,523187345030265
0,530311419881881
0,52984724388561
0,511061013804916
0,520829685584663
0,504611553587318
0,516442304783062
0,502984305902188
0,510240291715922
0,502783606020843
0,505612127713716
0,488993101013605
0,503312204638373
0,489102666267814
0,501676270632275
0,485638412197195
0,495857515368666
0,488209463517957
0,493278635231854
0,487952441251524
0,499434741431254
0,488097478413518
0,489912883914476
0,473191958471508
0,486674194284999
0,477280227353566
0,485543749123194
0,473124303008649
0,478519942170611
0,477533157982738
0,488548454105198
0,472546723640922
0,479145154455027
0,469706681559423
0,477883740332137
0,467015914578912
0,474317557771851
0,464385946917954
0,478278223591127
0,476192689913892
0,475965488142049
0,465634420168289
0,474056669542886
0,459662058120665
0,474125083880939
0,46668312739904
0,481641072481762
0,466410921832487
0,469998017362528
0,464332087767421
0,47951591533665
0,458921561398579
0,47701626523231
0,467368805184689
0,469539080438009
0,460941905723048
0,488054195591074
0,474525942941362
0,479831268252708
0,475109530820221
0,480459956539011
0,477013705674725
0,480979959045859
0,471765435732769
0,484141318062121
0,479951614257228
0,485789616767609
0,486451824662993
0,484836314408213
0,474676530198019
0,488693677782424
0,485688242447186
0,49503772124343
0,474437198874379
0,484633764236735
0,474788134709322
0,488806182218172
0,475334334607934
0,480369692227793
0,472221710892109
0,49226946017158
0,468510031350036
0,476875344759708
0,464341877851003
0,473726126208433
0,458881599767768
0,480556074034369
0,460252487286895
0,47013076946288
0,462704373063174
0,46815409996124
0,459665882961781
0,46484999865764
0,456390238565737
0,464381461945334
0,452420148085799
0,467246654384259
0,449470270811539
0,462388035219506
0,458453761701907
0,460413482080091
0,440007002738069
0,454894644362777
0,447478472827092
0,454295811045878
0,445712706191341
0,453036684433399
0,444997421982213
0,457394268661843
0,446190559170859
0,456083658572348
0,446725217227172
0,450367494889076
0,446129975020142
0,451083911975273
0,43702267328612
0,452113475150507
0,450495446849847
0,44643398250665
0,441206321009159
0,448380797574746
0,437947892699019
0,44972994628573
0,438954164328962
0,440925494453506
0,437628099135484
0,444502296141825
0,437264707240054
0,446264665977554
0,428646626983018
0,433893684626388
0,428603086287645
0,439811566138385
0,427887148041364
0,438152987188421
0,418861120822998
0,434454520290595
0,418528574846876
0,421392285808199
0,415782387946212
0,425933428144798
0,41238659070296
0,418944013607246
0,403211913590551
0,415914795129118
0,41149894680239
0,411124303151937
0,398603654586637
0,417007619318887
0,397388671109231
0,398717769749414
0,392990290180164
0,396744084345457
0,383453333327098
0,386976950252922
0,386832790650456
0,380747264626193
0,373856576318405
0,381172903052752
0,369665023362195
0,375455768695288
0,360801383980089
0,374612334562616
0,365167248633208
0,364668720719222
0,351884235413304
0,360401294451452
0,351023216362381
0,354380087302177
0,34261697933317
0,352058476748361
0,339477120630081
0,347290073051667
0,338499965721108
0,342970649133835
0,332414482072418
0,33517931178149
0,325504313371933
0,336868197142092
0,326488711823839
0,327785140567789
0,322085055625076
0,321346221073187
0,311155030060779
0,322841451293171
0,313870402113157
0,321826808698002
0,313627768217045
0,314272289672326
0,30647852361053
0,310414530750161
0,301870363615287
0,305748162293768
0,300197152172297
0,30849755974161
0,296127278915536
0,302360042395907
0,29366077267563
0,304611749728347
0,286115260174508
0,291117286419669
0,285470685122539
0,295585525952937
0,287941085091393
0,292086674401741
0,283773225392108
0,289159544958629
0,280523442734941
0,282753364135813
0,277178379347706
0,280081805522664
0,273904081091366
0,280338231736957
0,271299310258257
0,283360653631599
0,271090407598532
0,271903177326046
0,269598743605243
0,273980980228055
0,262325859913596
0,267581471788275
0,261258603021373
0,269187172757639
0,264587110890207
0,265770097466164
0,259069200801007
0,265118689863263
0,260344999644017
0,259442684234404
0,252459248604131
0,262560611312717
0,252612994436879
0,255186869047497
0,250084049160838
0,256011180451802
0,247906397562859
0,256532693521178
0,251718697985974
0,25805705245188
0,247912735396227
0,243032314548251
0,242084892427872
0,24879079867802
0,23987441853957
0,247162620635685
0,237268956096556
0,23840618606141
0,239977198819169
0,246986080828353
0,236935243287404
0,242503482305166
0,234430650993598
0,240182589786603
0,228885184506375
0,238407088307003
0,235634425271945
0,235164162161092
0,231121759586521
0,235283318993389
0,227934910157928
0,233438849430101
0,228085958191843
0,231171523032618
0,227475167586436
0,22536653805519
0,22280229051567
0,22512486315994
0,218762692575063
0,225026536836813
0,216602895206401
0,219437151054551
0,218649606066318
0,22354086108287
0,215720917028293
0,22020440623746
0,216301614875836
0,219066658361947
0,216527268842301
0,218322947594245
0,211612202276148
0,217447009057427
0,214996215384001
0,221204658184238
0,213764588158
0,216069282846249
0,209013151639034
0,213902948401831
0,211257391995617
0,212921566301771
0,2117933657452
0,216035884041744
0,212873723821565
0,211751656435029
0,207535631247504
0,209613433829411
0,209403814263133
0,209602825890174
0,209380282316838
0,211634534229245
0,202701309225719
0,208860695389156
0,200513933810442
0,205146604455963
0,200858659351522
0,2067358395044
0,202653793792084
0,205411300445674
0,198591402365242
0,201515483321786
0,198464959758665
0,201810305613684
0,19838431214207
0,204257942228455
0,196244342769753
0,199299582167491
0,19663936462391
0,198638844909913
0,192513295344651
0,196563242329883
0,191610738380228
0,194272438490409
0,19201973538085
0,198053599376877
0,189054467704295
0,191088590387296
0,193179989020732
0,194614759763938
0,185598195002048
0,189087516986361
0,185539987897032
0,186836742059763
0,182217251588817
0,189298238573119
0,183121814974287
0,190074668971082
0,183418186033595
0,187132903202956
0,180728671832834
0,18521602904981
0,183788347118124
0,182625471859744
0,179221428716427
0,184815437460313
0,177419649205925
0,181382947873492
0,177225370604974
0,180533078401755
0,174815968632257
0,17453137373067
0,17336570143221
0,176307729736671
0,174006428976515
0,170464480457671
0,168059644341129
0,175158011862597
0,167411668182837
0,171098228940008
0,171226983764238
0,168842530955887
0,165360337997749
0,17000713985372
0,162364134521162
0,167494187217453
0,163949844774815
0,168267969568138
0,163202009950603
0,164463259021549
0,160596853032796
0,167237323180501
0,158276780662016
0,16261662703522
0,159165621368455
0,16239896751955
0,158470877165482
0,15613511257998
0,152554188726539
0,157192440486935
0,149711229216076
0,154373922738332
0,151109456697051
0,157907432664038
0,150812275122023
0,153526048820052
0,148714996801765
0,15147000704461
0,14567474028381
0,153319080642423
0,146759632817696
0,149790492224044
0,148198982707961
0,151421594117804
0,14609624209228
0,150777809332055
0,14254609001615
0,147497211632123
0,14490648650449
0,146049381172309
0,140148802469733
0,144479645613403
0,137649906500472
0,14288038172172
0,139277134758734
0,137854354035443
0,137937632765609
0,141653009926523
0,135582806099925
0,139023268532882
0,133438071597563
0,139779594570991
0,137023987527876
0,138684616859765
0,133391957272281
0,137440428932846
0,133205309269527
0,134927254975835
0,13296548353401
0,136373908324008
0,129678601817162
0,132182080536443
0,131114740482404
0,135566131285352
0,131233430874489
0,132568125437068
0,128951222066696
0,131278469401437
0,126112679098401
0,130491469600807
0,125971640986438
0,130072412978302
0,123996447516675
0,13025754764806
0,127332769412781
0,132855217390035
0,126737833082184
0,127140775396276
0,123731317363189
0,128009680713075
0,125998325934824
0,130030671423259
0,121440932258834
0,129203667668788
0,12481940461775
0,123519508672646
0,122560610680533
0,12752889614323
0,122993142831237
0,124879994336944
0,11988244172539
0,125846010842589
0,120696466773737
0,127396627966969
0,122051631096714
0,124577940162501
0,120192443954001
0,122857610437773
0,117469471591498
0,120690087258351
0,11771669785779
0,125536005038264
0,121108017069396
0,123476096646883
0,117582031861063
0,123678054908636
0,118082197766372
0,120365661442035
0,117559122585236
0,122444283871056
0,119369294698117
0,120127876219032
0,116907129795866
0,121717461252875
0,116769605174165
0,120337644432747
0,116248336862253
0,119125922008361
0,1173141966504
0,117651476123397
0,115838861020337
0,12167542538678
0,115630336067284
0,115781080267202
0,115234818038469
0,116084761603861
0,115830676323087
0,118588815867225
0,114732688829546
0,119663848050491
0,114498010852284
0,118957581941676
0,114509266202921
0,117215249726784
0,112721033826348
0,115920601622234
0,112915328707511
0,116095125625188
0,112462432978884
0,116438357153102
0,113329671420851
0,11469916439923
0,113342186092481
0,118136765032011
0,114233686366333
0,117309274605188
0,108657632056865
0,114289426596757
0,111119181102705
0,116611204705074
0,111680001558499
0,113160882287707
0,11312849068805
0,116132886780884
0,110941030676301
0,115062108456584
0,110990730185968
0,114031425721229
0,107323921700497
0,115069948893848
0,111346899689559
0,111116602544882
0,108925196348081
0,113570059922413
0,106953956449123
0,112021925116932
0,110803808063841
0,111902300201251
0,109695481381598
0,113862637476355
0,110955966481527
0,110922909607126
0,109054787052388
0,113173169078873
0,109405353519657
0,110753630327831
0,109286991906213
0,113760869781567
0,108705229276899
0,110833836188198
0,108500466588853
0,111807733314335
0,109753571727662
0,11068941433968
0,105446631155265
0,111351967779155
0,106126642383749
0,112359878297105
0,110283599478667
0,110184191630807
0,106014353262395
0,111879109206287
0,106731531654002
0,108701896465733
0,106902417505137
0,111168105385815
0,105784911691556
0,111641008253398
0,1074680627942
0,109610680828286
0,105358529134665
0,10836722018597
0,102416669604954
0,108436612285387
0,104503359586247
0,104249300577985
0,10415451124537
0,107279172172608
0,103639841900124
0,107197304923035
0,103345579645434
0,105349879642531
0,103417886841417
0,104375570518645
0,10156504651561
0,106699328729585
0,101347063025818
0,106508969384074
0,103351518719855
0,104002311806032
0,101741423232229
0,105667135321336
0,103370706119681
0,105983555536596
0,101295402148898
0,106811922602705
0,102052341797118
0,102895116035922
0,099767285579756
0,106018820841509
0,0998726743843037
0,10074974397229
0,0987429143771636
0,103274126662171
0,101522261886606
0,103163834089698
0,0985035376031691
0,102596589018857
0,0980431617686524
0,0997577754480063
0,0975642712846157
0,103498776850074
0,10049133341217
0,106437534700343
0,0994131342818073
0,103711450512353
0,101198407786549
0,10165276611509
0,0970372001629586
0,101730394666243
0,0985234572767228
0,102075961062203
0,0978134165327595
0,103139796111318
0,0982290845152554
0,101181120151737
0,097795656567413
0,100153616287956
0,0949242698081671
0,101460004644393
0,0982227194944034
0,103393435705047
0,0970749160321794
0,100448606409814
0,0986224798660212
0,101674166661613
0,0979536157054458
0,100061728307019
0,0977826468702775
0,100556774163515
0,0971653190599327
0,101167019635082
0,0976921960471275
0,100844062082636
0,09627131273333
0,102712033886392
0,0947910525274938
0,0997026605949485
0,0955224625026228
0,0995463271606349
0,0979523738412113
0,0997469379325956
0,096158593908361
0,0996690706316665
0,0952296115785863
0,100229106469108
0,0955929043278815
0,0997047508848813
0,0946440880628796
0,0983834943925509
0,0980316533352038
0,100155714594073
0,095520811450617
0,100844325478356
0,0954191783174001
0,0991315640814168
0,0970621939549623
0,100361325945576
0,0959949468901926
0,0999770468211024
0,0942977946961915
0,102129440462378
0,0978998505495325
0,0986924821935713
0,0950618834862051
0,101840117668079
0,0961941304756324
0,101326342976471
0,0950272525944477
0,0998714245679043
0,0966634020830361
0,100271646157322
0,09701780264646
0,102289710526689
0,0947271713954072
0,102020981339295
0,0972718783775428
0,104156409355559
0,0955451819942152
0,104295263858711
0,097376730424215
0,102896292730337
0,0999853887626719
0,107181746445558
0,093637225654208
0,100892657459912
0,0975391182193022
0,106915500705632
0,0945178952426631
0,106523797229847
0,0974317004367859
0,106420371274317
0,0972872135990511
0,106394160895755
0,0942426376941978
0,107024623639089
0,100557175341179
0,108111202990711
0,0936368972119344
0,108307127473418
0,0943248150383947
0,109774800808764
0,0962002146766163
0,109401354050487
0,0972987287502236
0,107088356867927
0,0921649414748856
0,11056954717227
0,0947404400185442
0,110718029622927
0,0995776632415258
0,107996885695322
0,0898378183888015
0,111344491593491
0,0979458936907472
0,111978716522444
0,0945134246021403
0,110393325633964
0,0935113548969792
0,116391618895615
0,0979801706223095
0,109695930037761
0,0947961834147601
0,110046369521731
0,0979429200945068
0,11361650247002
0,103691759925927
0,108852993344901
0,0989318720376585
0,100509779397815
0,107191358365019
0,106063819059274
0,112058938620896
0,0912562985119016
0,117178848847211
0,0967017779594
0,125567150631048
0,0823621395853679
0,128842213752689
0,0845257565183901
0,125950079541784
0,0834514467950493
0,127314017909993
0,0872955472046017
0,125193077676825
0,0990176080851618
0,117443771443253
0,102397495757691
0,110124077652698
0,109668733050449
0,105213887150179
0,110051789778964
0,103981611173204
0,107539466838088
0,108704754042662
0,108694562097195
0,110841902336881
0,106606721970658
0,113216790462969
0,108159089731864
0,112176181665083
0,108044258589111
0,112542200476346
0,110130830652609
0,111609833146931
0,110148483981285
0,111168662236863
0,109512251486756
0,111140658501631
0,109668593086201
0,11322776930663
0,112077056113952
0,111558556495066
0,108949241014499
0,111599648027389
0,110749538281733
0,110772313246118
0,113678654454406
0,112993251486843
0,113108457191922
0,115791856164823
0,114607336930424
0,115660780029788
0,113620911795536
0,115439210133807
0,113957584381013
0,117144765937454
0,114762081833392
0,115547307732273
0,116105042426559
0,118028921432004
0,116100250851268
0,115731204564085
0,115248919129929
0,118602769248781
0,115013030350709
0,117806937999378
0,118112473372796
0,119567874989309
0,117877849946793
0,11732076764614
0,117603137239869
0,118648058287425
0,117361207373225
0,119342274230649
0,11742060365683
0,122257080859397
0,119818737775811
0,117118806239651
0,122410423795299
0,121197244652135
0,118742248731927
0,11991630097137
0,122061563766597
0,122528295437249
0,123037502236713
0,122001883046185
0,123872338804461
0,120961916912358
0,123281242874474
0,12350580340128
0,125700510280358
0,124953179103348
0,122767470099221
0,125661547643891
0,126566683995832
0,124024472973243
0,125678749596227
0,126821855454489
0,122780554050619
0,123317407452494
0,125357935995992
0,127134664598609
0,127191978608117
0,124157443671321
0,126398412578073
0,127552451399531
0,128234023436066
0,130009379804563
0,128947585409156
0,127224851038653
0,130581470782168
0,130248354784144
0,129345625087654
0,129488486410329
0,129868498807061
0,131216119340326
0,132905260285155
0,131772359616877
0,133240814533545
0,130884135957568
0,13290092634383
0,133334395750302
0,132552744332107
0,131380730800682
0,132655255818513
0,132373408456486
0,134830594890581
0,134229146357892
0,13611770028604
0,134434144966743
0,133306912980153
0,133612334761274
0,136917016097566
0,135066952783407
0,13677533007113
0,136748006048809
0,13685766006794
0,137753891281069
0,138029122109395
0,137649501658524
0,140441558196485
0,138916142280881
0,137833072513982
0,136517083482428
0,140424375274232
0,138611711843968
0,139538288556719
0,138630985756993
0,138125671255903
0,139931809363976
0,13986521896344
0,138965692237418
0,141167127015532
0,140582579531401
0,141082614492025
0,140679535130001
0,143695823568625
0,142373568174845
0,141338340300828
0,141352167803968
0,139301580496814
0,141019831646358
0,143522290452828
0,142576645235319
0,143150745635367
0,143288544901789
0,144493204733413
0,143434004114404
0,144110572323048
0,145174955311244
0,146798541095813
0,145500597110675
0,145312252377018
0,14698526891353
0,148074121489104
0,144578332160407
0,146703050435004
0,145794998616336
0,147508839539902
0,14591780303941
0,148516197914065
0,14725610529562
0,147835825812165
0,147623303776643
0,147283676232908
0,147186806785702
0,148415215962652
0,146555571560982
0,148243073766105
0,14627536023209
0,150192671738533
0,150136244418876
0,149947983018464
0,150069810612462
0,149992660879937
0,149382521180167
0,148876086820265
0,146272002791091
0,149571512484953
0,147912500454845
0,147404261757323
0,148100514820156
0,150730505551771
0,1489820395094
0,148523401743993
0,149779788301981
0,15075165628654
0,150160624441446
0,149601041791168
0,149052825220714
0,149101146124044
0,145996021546041
0,148962913726819
0,148241834263503
0,147230759991514
0,147664132135523
0,149538105483651
0,14714049689775
0,147685201093854
0,147027759142504
0,148913637177033
0,147352257568282
0,14542495757259
0,146689366218771
0,148582251163788
0,146750433810544
0,149673768709027
0,149103714566427
0,149453118633329
0,145219205799918
0,145115939354862
0,146243675150327
0,148690001515711
0,149590573377865
0,150376221996993
0,147391541512555
0,146308541346026
0,14645859663014
0,1460562574582
0,143892526789947
0,148483205298614
0,148228418180863
0,145731954683051
0,144407881985456
0,14520370130657
0,145264457181307
0,144677975485672
0,143130378122656
0,147314920445314
0,14488636156326
0,143226155552789
0,144026587590438
0,14577833871972
0,146821564822764
0,14361595233847
0,140927648376703
0,145410927824977
0,142738691803373
0,143048560224912
0,143351843170621
0,14469323892439
0,143283837284385
0,146278196518673
0,145502408334548
0,145023279252895
0,141952563911981
0,143585869665301
0,141025657276211
0,141214185921668
0,141098890821853
0,141150458799775
0,140647880878983
0,144285912867759
0,141317658217939
0,140838299991919
0,140582724806551
0,141794229559592
0,139822924817936
0,14277312694722
0,139899982435119
0,14174538133695
0,138817386924306
0,139127615359354
0,138857327678153
0,140244898374756
0,137516092520973
0,137712139225009
0,137829111983629
0,135510423608051
0,138301469724503
0,137813571032566
0,136440820467463
0,138093937934837
0,136093215871553
0,137176707592546
0,136223304398702
0,136440682867633
0,136551661630385
0,13507636172723
0,133634547369479
0,134976650172838
0,13232568025599
0,134685932020616
0,133552841318491
0,134556812597655
0,133848461755462
0,133090246096996
0,132528481283322
0,1325854352737
0,132830934460186
0,132667839444236
0,131099888350895
0,13252883600023
0,131219883666144
0,129086818688367
0,128657333733881
0,129161616620267
0,128331226589576
0,129250923505161
0,127703857651394
0,128318981131593
0,127575297337612
0,129154496163502
0,127960391304857
0,129305004053305
0,12573959046322
0,122859287237652
0,123625892491876
0,122269400100285
0,123511983155548
0,126367068813453
0,127010243328513
0,126460542487538
0,123761311530777
0,124857738104868
0,121776911278522
0,123412704824448
0,121175824790652
0,119994815149944
0,120699552444694
0,122932788849369
0,121020392105576
0,120307124432014
0,117142022650578
0,119716591804417
0,119133846917889
0,117272635862504
0,116045539015357
0,119970975861811
0,116528407453893
0,117230660198498
0,115643009847879
0,117357822047973
0,11619504703481
0,117344486561279
0,113112349708179
0,118249564885656
0,112141761778351
0,121045079274764
0,115964900228164
0,11645021648953
0,116029611223891
0,116148348561963
0,11440037948013
0,114056389088512
0,112848892295807
0,114898676167891
0,113879791521262
0,113720457192984
0,114009881853529
0,115679463143734
0,110911563361867
0,113153598007895
0,111699711102487
0,111690468007995
0,113715385475622
0,111852725674501
0,108793384104351
0,110403390462472
0,107759693876852
0,10987043265961
0,109243380171434
0,109069886794183
0,107328839124161
0,10911520073231
0,11014528558262
0,11091596325992
0,108504815052304
0,106267261392743
0,107283567547599
0,106669947425574
0,107360160081956
0,10680595950968
0,104880471739701
0,108191121966088
0,109341867434005
0,106255779164848
0,104799456614982
0,106771343157369
0,103527099415209
0,105597377472825
0,104549581203133
0,105387639244771
0,104756200325045
0,101818220220458
0,103552420909085
0,103642834218076
0,104135586654114
0,1013030428848
0,103611786616163
0,100377068612314
0,109692622667541
0,10192591185127
0,101091357421034
0,10350573570954
0,100774715341712
0,104700436381314
0,100603844127851
0,102868781470933
0,101932046846402
0,101608277323197
0,100697016670246
0,10282198625041
0,0987504895412017
0,100070706500406
0,100696602833703
0,102842948114189
0,101732707327846
0,104197404328364
0,10099754222954
0,10050159383382
0,100532834707015
0,102603403671228
0,104397999140642
0,100517392342315
0,0994662811790905
0,0959216886785706
0,099724432553587
0,110607751996219
0,0961239728925774
0,10156868509606
0,0965924502266496
0,102576228658831
0,0965433249243908
0,102056886618333
0,0971607717182882
0,102555448800762
0,0967755780350728
0,102875201895758
0,0974770277638031
0,0995826679400391
0,0998691052430434
0,0991936980096733
0,0967279497922524
0,101776279786477
0,0981131890171857
0,100133502027365
0,0986801738053786
0,0999976714071038
0,0961583232964822
0,0988310050494665
0,0967041695091846
0,103149029332771
0,0962879634639511
0,100447598733973
0,0942920499458006
0,099461694389369
0,0961318914134605
0,106477818363293
0,0980911741717019
0,100568771349427
0,0987525223189487
0,0963923675232971
0,0994789938194521
0,09783408687891
0,0982460625391005
0,0981174081698621
0,098769630447018
0,0996443837371234
0,0968098291834855
0,097941637836056
0,0998154323114339
0,0978908951194491
0,0968067085866991
0,0980748985445841
0,0983034411666918
0,0977760552157155
0,0979855799580112
0,100097480918498
0,0952628245971459
0,106935563150716
0,0935716514239845
0,101110182790222
0,0969006320467331
0,0996724075138502
0,0973155111716964
0,102214421851735
0,0972446506889967
0,100704680901606
0,0962577393981031
0,0991752893171089
0,0980052263404668
0,103816293111894
0,0986013032788332
0,101612547794517
0,096860307299932
0,101803364971294
0,0985574901553615
0,100837497764051
0,099131177675197
0,101525277666006
0,0983231900409346
0,100566445984829
0,102821684153851
0,100570625583961
0,0985599829469105
0,0958957113721445
0,118495027474241
0,0965108401633256
0,106464698609876
0,0978112424798775
0,10352163887998
0,100393454155343
0,0991565980386152
0,102799849446941
0,103668777519971
0,100939733153038
0,102572382592957
0,10316998109205
0,104531064377564
0,100920439628863
0,0959968422767595
0,110816659369203
0,107131142569553
0,100169744951982
0,106803988330879
0,0985805697456002
0,113713721935547
0,108598033265422
0,100811529356609
0,107097603876639
0,10052549391146
0,105748333285527
0,104693910519441
0,108455759803176
0,105272297668444
0,110905371841044
0,103438272934425
0,107580406443924
0,103421651111777
0,106313777357294
0,109274669403989
0,108391744348219
0,112784232507881
0,110177993582456
0,106449600792886
0,112943923683473
0,10644144765041
0,110282183228224
0,108518561225184
0,110833098877089
0,109565604339432
0,116599376768964
0,109660635761717
0,114081301054002
0,114517932849949
0,110209941206877
0,112538700878709
0,117949256150707
0,106762654609345
0,116420541685435
0,0987294030053001
0,13019406589366
0,110445252552737
0,122230098080825
0,11710754609056
0,116837649951722
0,118113206921339
0,116739238345453
0,112686425623009
0,114391704479059
0,126143974274101
0,114000958317762
0,122881284246441
0,112876691947266
0,126297766626579
0,117501840897692
0,121846544653794
0,119900765945898
0,121905414543063
0,117931594345839
0,131181091940565
0,114720318949438
0,130562890696408
0,135029168030629
0,12445189287235
0,134843644980994
0,121201689906567
0,138380320290336
0,135271485489988
0,124657665993795
0,131657265669811
0,128911045704401
0,135245678796186
0,121545481749401
0,143105090641088
0,14201713196202
0,130353243473888
0,142543560872892
0,131637231318097
0,141367694339995
0,148743484023341
0,137165289005154
0,141015497754926
0,143064822566007
0,142868026545907
0,132852696024858
0,166795622467609
0,133349231697152
0,163833428318201
0,150134953038234
0,157480278192053
0,151039040782912
0,153296599676046
0,152147526180081
0,164819000708426
0,158549930010195
0,16050802231
0,154229933087428
0,179043001962056
0,161125129112138
0,165504606828083
0,172874328784395
0,161809545982163
0,172261553951268
0,199100880400721
0,188528796654161
0,180835582447319
0,180253152306224
0,19244481965881
0,191708668125831
0,187233844638356
0,194685137722811
0,19383141923269
0,197959323676872
0,197308549484582
0,200775106950139
0,207080082049003
0,203286594750875
0,214180233786147
0,203552828296762
0,218651954101966
0,222272912050443
0,246009045799958
0,226164038705008
0,238587013214108
0,251836858138206
0,233264943718712
0,245431237054435
0,241113843834615
0,251498319778791
0,25656549478363
0,257565166241148
0,261029052738758
0,264005266103308
0,281465379498113
0,273951431235357
0,300100604302935
0,284223949854205
0,285437708911254
0,274690099424115
0,342505285687608
0,344632916872241
0,307137300681782
0,333343149241544
0,299480641351212
0,390323458310829
0,348877698687107
0,349600641941233
0,362213203246213
0,364405050457903
0,367621610942472
0,384762813683189
0,388357969448331
0,405175814336322
0,4056789623572
0,407131165749812
0,400820480152893
0,470646604752721
0,449049989373861
0,466586310136342
0,448315989749365
0,473208801603207
0,481092597618403
0,485489428185055
0,485875827717382
0,509559499145691
0,483534207296018
0,571667598785092
0,538275548535702
0,539703505048241
0,547750026831898
0,567521916926452
0,560997087869755
0,559587491444258
0,609084433387212
0,593176418714355
0,614445934521975
0,593690584192073
0,622076861576766
0,617054566603799
0,648318173080864
0,673002327388378
0,653977201342784
0,660658340664438
0,661871756143997
0,667141395838212
0,678207058277583
0,690520477772722
0,696055796831562
0,728192002118766
0,730867423332298
0,817290622594142
0,780373626289348
0,72879494283644
0,745370430502517
0,736191363011248
0,766765680396127
0,768784391434186
0,749055769681994
0,784134825710969
0,749059906779973
0,76112340214327
0,765483588708312
0,768828339997378
0,781919176996555
0,782978858672667
0,769084862821654
0,777991741673406
0,773842541715746
0,746805791437061
0,864886066139415
0,773097030908998
0,772997188580601
0,76434038742611
0,752290716091395
0,763641385927429
0,757705548264902
0,732783701913107
0,766418432642731
0,74431418825063
0,737897376737416
0,720551734001757
0,717395623606698
0,748183824701342
0,711066809017598
0,713133683616602
0,70185732721134
0,674850990785135
0,677192681761502
0,670066652525872
0,7233793679641
0,669547717098476
0,648116982067235
0,643174006354786
0,631546462944633
0,625571359622739
0,607469240956905
0,605013145314656
0,604469028647859
0,59778044169688
0,591637206633302
0,585639312232344
0,575833228032173
0,570666542927922
0,564674935461617
0,56421463655242
0,553117140160541
0,5524789116495
0,540976554695321
0,544161795753711
0,532415124495493
0,535819987556759
0,531785043500045
0,523279514088959
0,526285304054462
0,524241254657615
0,50892861751229
0,504991783017045
0,49988395698816
0,495121691605651
0,492030655922769
0,495813817517071
0,49133477256835
0,491202205220301
0,483986573331637
0,487331324555316
0,475591294821536
0,469691451447856
0,46898845731753
0,473861023421409
0,466888064864826
0,461404883683865
0,44905216854409
0,476592378089565
0,493812676574749
0,455263821927939
0,464702844811933
0,455416420611657
0,456852894555112
0,444895733330802
0,453548748249294
0,472737225284255
0,446075356141123
0,44307409496996
0,432773982578825
0,435210367100257
0,445511745050749
0,432606984762234
0,42657988948546
0,419034420748218
0,400900409696224
0,472043660896194
0,393830528327885
0,462032573462778
0,420870417828694
0,404844391855644
0,388282414355449
0,439671320087417
0,400664054420852
0,397458654741893
0,396938581631393
0,39293007352676
0,405862454385993
0,383107009202861
0,396785779984307
0,38009622288469
0,380370807908222
0,397081176564494
0,369425584948376
0,360138312463064
0,397559606124314
0,372465356286571
0,366390345181055
0,392835101906621
0,367071197641582
0,353502089114298
0,346336776050907
0,348339629421589
0,333004876559494
0,361789674738011
0,357763902157415
0,340357504636618
0,344245563260808
0,331440080439914
0,338928566187588
0,339955211377905
0,336724428974826
0,324408539943482
0,347925018214839
0,331235656942465
0,319659582020839
0,343571320111258
0,330347084724829
0,348301019104522
0,319714742418062
0,322488830042246
0,310053087033374
0,345612178978188
0,321652969630818
0,319398871717862
0,314534337421578
0,305892198574054
0,313821268262178
0,314522032926772
0,30281858885576
0,313419382057163
0,294026122719104
0,320453473865259
0,319808596523475
0,322337981846759
0,309019614596983
0,299181076124278
0,30054455216244
0,306472197714584
0,298460388514728
0,304698454223212
0,295810713732515
0,316997401666727
0,288059670953483
0,318295518463021
0,310423304734303
0,301473029056561
0,301588462908346
0,300574129690785
0,301069143636168
0,317734858813863
0,315096492584359
0,31654844529516
0,298119561274755
0,320709211254791
0,307355960293471
0,311875172810609
0,31241284477384
0,316092830991776
0,31928039531284
0,328450394001352
0,328202839216497
0,330357048544363
0,33024174345066
0,341696046446566
0,335438572797006
0,364077483017368
0,347004257318298
0,352394634440104
0,377845072247727
0,375104179867518
0,385966690826068
0,368656239763072
0,378721599219028
0,381229754121217
0,385540570004728
0,386967660443129
0,378667627596774
0,415343284323424
0,397476311553586
0,39571996464244
0,398791474416152
0,395399954599754
0,39971871907104
0,400175836125879
0,419133670783451
0,407979860630808
0,455871853914585
0,421661481959939
0,421959189426065
0,410743054226027
0,422090085750626
0,426400278701647
0,419778630303902
0,42846225443039
0,416963196599661
0,436216037322015
0,437288245261794
0,421811410463545
0,437783032530643
0,433029344883308
0,431947379976768
0,43658685049524
0,436570828661754
0,439418143162059
0,441166814112413
0,441982903407613
0,425252696316541
0,469468173544998
0,4621271712882
0,44229964109201
0,458589306836879
0,446740175891144
0,460642146066158
0,452918414033623
0,459769909876918
0,473854219671155
0,462075440463769
0,474486659991856
0,468666107748609
0,471945885891525
0,476185303816396
0,485031468023842
0,481357408824882
0,476081068686022
0,485436416935307
0,462064474792055
0,517654395964603
0,486290964100805
0,492081948281711
0,483660181975342
0,484836007508933
0,487821333983317
0,480971230622876
0,486869888078364
0,487172189433541
0,489589601355847
0,491359929872769
0,487518187666525
0,485738255671398
0,490671170107558
0,48353355924784
0,499007904794057
0,491596683147094
0,486244797178941
0,49173681773499
0,483915832587427
0,484143361735562
0,486604406844454
0,497897839182779
0,481277478923955
0,487649785572025
0,483321130678533
0,493425420995789
0,494334899493941
0,483413885083504
0,48341405586145
0,486760098296361
0,482976993430788
0,489835244697178
0,481503139972947
0,49604499885346
0,493492893815668
0,496633680749267
0,494987466886312
0,494599555575866
0,491759586350247
0,498186877129434
0,500549326166038
0,507222676433279
0,507128691694014
0,512357640402803
0,514268649400095
0,513000223180551
0,518927294091931
0,519991724365357
0,525208712032163
0,517744230122314
0,515301927276267
0,516302729879772
0,507771845989027
0,508287199987935
0,503719625783007
0,505787997068076
0,502417818314614
0,497766541716402
0,490619480332063
0,500373878034227
0,491818838292078
0,47931606551176
0,484355141516962
0,472866540975551
0,478872901413109
0,46958528179467
0,468650184590893
0,468356959346519
0,467723859020725
0,462684090833426
0,463336526654693
0,463363437463318
0,459878236686651
0,463698606009862
0,460633060515649
0,454948199233068
0,454990860537837
0,457365868946635
0,457652158548242
0,454171633179945
0,453838942222385
0,454891543819872
0,453747472768163
0,455218215852322
0,458350035432738
0,453090099132343
0,459870116122976
0,449456456730743
0,459687351477272
0,451299342226861
0,45023409920612
0,449664358390236
0,44724076438429
0,444817324801562
0,448306306475632
0,454777018871727
0,452292136305056
0,447651355002195
0,448054014653834
0,446714282064078
0,448957365865552
0,4474438667988
0,446423678188254
0,44406129072149
0,44133395981059
0,443654855715138
0,446479206687323
0,445063815736837
0,439276183937297
0,444759245559304
0,44239285848162
0,442771417806725
0,443863928019384
0,440302419878793
0,439417968089855
0,435388147724582
0,438604095585871
0,436504833328832
0,43804861021251
0,438596666722834
0,435117845211789
0,436410013713267
0,435650047301803
0,431929218782023
0,432026319210635
0,427468189484846
0,42485490857476
0,421160396693749
0,422704301122605
0,420563463928235
0,421184275977251
0,414319883019696
0,41181674926947
0,410021106466618
0,410791483797198
0,411838155870147
0,407453113154584
0,405769419113459
0,407059730544796
0,404791398215236
0,406659630567786
0,405045760555231
0,402679465142654
0,39935137140478
0,400538093183518
0,405463366965699
0,402971965215665
0,402608113535587
0,400647745884795
0,402712335432305
0,403742734278914
0,406231390869091
0,405493194505616
0,404959505130185
0,405044517806678
0,405636898768316
0,407045878255794
0,406843146970408
0,411105969388241
0,413446624672275
0,412222419884195
0,41089572828557
0,417936083959581
0,417259594783195
0,415877692602189
0,415527780803615
0,417562503785972
0,417138410144099
0,416578551209232
0,416854463660237
0,417528660728119
0,41769077125131
0,420244132907798
0,421263730269842
0,417775764426541
0,412581684569431
0,416568184521916
0,414409567340038
0,413294734808764
0,414671212097929
0,410394335884075
0,411130760909879
0,40822427975566
0,40805884916091
0,407590057906682
0,405159159031991
0,405423087055998
0,404440204383146
0,403826931087402
0,40087634495148
0,398368359219184
0,397195688278499
0,394877118158542
0,392754974762804
0,393737120446395
0,395983985794892
0,391229589780285
0,393867856792131
0,39016708509587
0,392145344674668
0,391933257681991
0,390525358683811
0,391431418342278
0,387201104245686
0,386463713704104
0,390067123355821
0,387235181532257
0,385840100207066
0,386404456588626
0,382390535023991
0,382667608199088
0,381321254025953
0,379418146101348
0,378135679864855
0,376094414983324
0,374662798286668
0,37258906081857
0,370930765292925
0,368739365175444
0,36688981522779
0,363985986137113
0,360477057901607
0,357195215411592
0,358131832623149
0,357447956887294
0,356218443976574
0,352971895200318
0,35188217368737
0,35426608017726
0,353683155862595
0,351880437260561
0,350335336688144
0,351873898056101
0,349171575458397
0,348946333612234
0,347587123177944
0,344008921024538
0,342247088867798
0,343302942556392
0,339113327192952
0,33807694272816
0,33528690772624
0,333429327517814
0,329593743265745
0,325727529058933
0,322305167760152
0,323385154469714
0,322280599983239
0,324994063042907
0,323792010892648
0,324962265113194
0,324785229627936
0,326996950190243
0,330049924365021
0,335905212465101
0,338955339743148
0,343823827780503
0,351281286542606
0,356007419325743
0,365865269342812
0,377689939427434
0,386004480105661
0,398576017866184
0,411869684373414
0,423610747853566
0,437252953582746
0,447320525777386
0,460650870300103
0,475676476044977
0,483641615256353
0,500624296535871
0,51454481317743
0,526394180280318
0,540359142536675
0,55413991645938
0,562932295312924
0,571718719105054
0,581993252209615
0,59208759216892
0,597019730468941
0,605106262099815
0,607976929484472
0,611157496614503
0,617591328835197
0,61621931532878
0,621686466443025
0,619094495992573
0,620187792983985
0,618180360233131
0,616958846874279
0,614127113735328
0,610176289655197
0,611550924924004
0,606248063881658
0,602881697208455
0,601663777200316
0,60760469913378
0,60526865431676
0,610269300220871
0,608426310175157
0,615438311610115
0,614065242266411
0,616291453366066
0,62262473276954
0,628664019207917
0,632835287883491
0,637562083982295
0,641936680754965
0,648573627982213
0,653165124170768
0,660972859964457
0,669501779355807
0,681636021256884
0,689541694636385
0,7045109382157
0,712568523749618
0,723268429330338
0,732594593814937
0,749752229811317
0,758721138360311
0,760776380939837
0,764836055342459
0,774003453209511
0,770574054375713
0,772894867230731
0,77390307423486
0,76537551646262
0,761157228056935
0,760146910901981
0,749215761714841
0,746670945459621
0,740876632141407
0,74245396132632
0,735790244124233
0,739232938086006
0,737645938300779
0,75148138121928
0,752876267519084
0,760558807570203
0,776420420946986
0,780447482729933
0,795009675849868
0,80776238282123
0,828525466492786
0,833744759794728
0,836673440814704
0,857566788817535
0,856136440912542
0,879943025227996
0,893508935954217
0,901632366286534
0,911699093387902
0,921379710990712
0,926535862796522
0,945472630576903
0,95157779356288
0,968998936246314
0,99225837458278
1,01746328676643
1,01800179298837
1,04824030240921
1,06528708556862
1,09663296867154
1,09971355526392
1,11402026848524
1,13292603111865
1,15790860999105
1,15791409323977
1,17687807956185
1,20473389680646
1,21395072933884
1,19752698439412
1,22837635895605
1,21884377012845
1,20469253376311
1,18560226411771
1,20308319914762
1,19592311367706
1,1912786607313
1,17099915129367
1,16874904117035
1,15637979879836
1,13558097443396
1,1390687704228
1,13421681193031
1,13041922964822
1,15122619974844
1,13526240548694
1,12032618406113
1,15749688438462
1,1363019272194
1,13829801153897
1,14334753254613
1,16085661540487
1,17382484104418
1,17067064741166
1,20313226556363
1,21379525652634
1,25331256073712
1,23118030390505
1,22973963097544
1,23924179923602
1,24863581749683
1,23601272478036
1,27890024612314
1,25624091226548
1,28119208260959
1,28251202616175
1,30586594773038
1,30764107184718
1,32181123850916
1,28065525978147
1,30174605747
1,2878750989923
1,32280828302449
1,29835052205682
1,29818169715877
1,27132646752436
1,30691059843371
1,29156420245177
1,29199993331625
1,2928550810217
1,27481355151323
1,25234467236549
1,26240458969942
1,2681602564357
1,29336729505916
1,22230439669647
1,25061200551384
1,19635756622357
1,19481419276566
1,15644458839808
1,13120553059803
1,11894236370137
1,07741271264983
1,05134476934402
1,02561072906453
0,9758037738866
0,942571636043448
0,901651569657245
0,884029554450155
0,858461833533446
0,84053037563047
0,821224411325823
0,816674383472207
0,804165653225251
0,796679970150857
0,799600886411465
0,798856017693842
0,79261845520954
0,792792437036475
0,782621909414254
0,796201573202864
0,780004023850457
0,788224448755445
0,777368534547046
0,773901807679222
0,7559758754413
0,758685519286405
0,740061066509224
0,73575906999339
0,731314771025268
0,71832865153689
0,697601412663049
0,696280728394566
0,671006595954844
0,657610386851202
0,644928457451466
0,626699794448283
0,616739792332452
0,599708242776113
0,58281227475077
0,569937137418867
0,554682014789996
0,545956784206286
0,527239642942213
0,518990196325265
0,503591303150581
0,49811312016792
0,493538806761513
0,484391999505662
0,472699993766286
0,464348771334061
0,461298569301604
0,45962221201528
0,455471630510869
0,451894458550611
0,4442189546653
0,444884331594231
0,43725773766129
0,438491828066647
0,434475840419904
0,440907814743354
0,434989665643795
0,436300061372117
0,43502996586492
0,445151891503115
0,437735658033204
0,445494180429592
0,445872216526566
0,450688165068367
0,452656430100743
0,450338638095464
0,458671714837035
0,461494655481145
0,459702448381367
0,45718082541238
0,463404276712658
0,459004434337761
0,454233144165022
0,457174083194718
0,456561595254837
0,456776197812007
0,453170990731117
0,453396013019484
0,459255235614584
0,466198715530265
0,461204350893528
0,464822754465891
0,459424191355936
0,463352715277167
0,46549323861627
0,464786890080286
0,463303868475193
0,471089086590259
0,470146904443683
0,469081739017955
0,468441768139647
0,48385349675065
0,479717209524757
0,488263355315733
0,488002726254803
0,491073934754847
0,495800170595596
0,495441358169793
0,491740424448701
0,506113134199158
0,501493619974612
0,500826927782436
0,503844795345908
0,506301107383787
0,500840592554321
0,506535542952731
0,501182818619198
0,516412568146396
0,518383620790488
0,518194105900686
0,527686819741899
0,53620053862392
0,528661877344893
0,540560079955644
0,538551468599834
0,546007677218534
0,544318426774869
0,56668256205987
0,571411879777369
0,584218409745857
0,58397939253532
0,598374499876466
0,605476137864296
0,626732179007488
0,619201874268795
0,643465596496444
0,626290088223596
0,619724284770732
0,62385633679145
0,626373385220587
0,619554620751929
0,627518500075943
0,623872672718565
0,623893729603794
0,620678839308318
0,63073048308401
0,636819360455479
0,635183343067455
0,619838593836069
0,643342535717785
0,634366752839062
0,650655068497456
0,650560763578273
0,651874677489859
0,641306651490654
0,64544329257075
0,639481931562282
0,661156721267813
0,649184615417477
0,652183811285163
0,638697938380843
0,641214704877444
0,640612086588539
0,657334883217741
0,655057284285337
0,657916585363751
0,664733440604282
0,675145281313702
0,661619291489913
0,665927728649349
0,675523583342748
0,686942318668912
0,683414068394324
0,702879834113201
0,680361379416892
0,698980478489986
0,694859321833264
0,69191602282705
0,688670334943755
0,702444343041996
0,690991341927952
0,699959055534119
0,686120699904665
0,697883661469874
0,704333378513427
0,713908908322767
0,699168313881607
0,707013811855871
0,71447995387667
0,707647158939017
0,711399891675717
0,7252262381819
0,702124644841706
0,761590640639226
0,725941896991806
0,737028585810994
0,756682204468261
0,742853762093896
0,749682253343586
0,772323324310157
0,765351600878823
0,763490225118238
0,753203408556724
0,789558527126271
0,758243990251267
0,773593656389806
0,757875980898435
0,806140557058963
0,775627553474378
0,78352780656492
0,757154453657025
0,801520901315526
0,781350696493405
0,801493737173912
0,774313252000247
0,800512422837401
0,805226251779412
0,829900998685847
0,791329495477647
0,847036211106903
0,807365824935165
0,816969735080926
0,835388705051032
0,842201977544336
0,828539656207194
0,884006227184934
0,839865495866628
0,863358676518383
0,8856307149355
0,853457141155753
0,847486895934502
0,919404952154775
0,888041288134618
0,892468748675792
0,928592210324915
0,902074795227968
0,898460953926801
0,952733597002796
0,881790585525793
0,954367201763648
0,958981673637465
0,962684630454573
0,917636629479704
1,02717122724324
0,938076399629865
1,00673931424355
0,958463008449421
0,973991052974423
0,919129075442562
0,992107483292832
1,01156650328889
0,993223543159436
1,05000414386769
1,23326886598983
1,00294428030487
1,09755172329161
1,02517525029617
1,09537509810536
1,08346905829939
1,10688923288532
1,11829994899357
1,10356091318744
1,05385779956241
1,11050018623126
1,09178288844927
1,00667311478875
0,994596576762362
1,15357963892782
0,995369825437177
1,03657838366774
1,13071543531804
1,08124056194969
1,04699888680567
1,12703917294247
1,12926072383786
1,14512535326156
1,09310334492749
1,22981322154877
1,17980424877136
1,22042478966536
1,1539694105052
1,25920884059811
1,12219309122538
1,19920500021553
1,04129272294302
1,10788233885991
1,07601697816027
1,14833331209078
1,12442651461821
1,22110263038602
1,09537473207793
1,16431141100749
1,11131736669182
1,3242421357039
1,08434680477689
1,18688986436972
1,14681437975388
1,29165225510833
1,10097893100008
1,3210869310618
1,17961483460692
1,19597242700175
1,06112249667967
1,15762002898125
1,13875794781675
1,30854343087179
1,25015412687787
1,33507449345275
1,2972598604381
1,30307669100446
1,33045759385117
1,34819307800662
1,20188360147916
1,52566177232477
1,01598946381254
1,28029740802409
1,01880545320323
1,33851730297693
1,18001061648264
1,31163757511186
1,25683367879382
1,41526913324855
1,16207316289951
1,30117758022455
1,02615288384495
1,52684885093091
1,50146603098645
1,28276480696241
1,25785407318144
1,28809379060528
1,11622429284227
1,34419937941608
1,30026765738237
1,24930007972491
1,26180309110508
2,0946622912587
1,30854529146967
5
1,17802831977961
5
1,39311178121419
1,16641446912751
1,41744896984012
5
1,30574798856111
1,39653231960033
1,06796500666694
5
1,1329232453159
1,53692401944943
1,98787713440045
5
0,884003670900151
1,35714746455069
1,14612311698625
0,985895817301941
1,27173397385065
1,4685879398373
0,911870308473087
1,99586964019957
1,13530593586034
5
0,920450093775531
5
1,21061804568842
1,14485595859147
5
5
0,884647296571454
5
1,43026559909294
5
1,30322851139773
5
1,33666189015829
5
1,40344839767682
5
1,18771623395611
2,17252491736711
2,22461742763581
5
1,39438334141041
5
0,818106514448528
5
5
1,09326592131538
1,63527593270563
1,41386923738007
5
5
1,33976091631056
1,40441949432896
1,0854132158406
5
1,36058877160948
5
