3596
4000,36533379555
650,420452594757
1
2
2
0,0694444638280246
0,0660914291177903
0,0630898606908106
0,0598774782373569
0,0717909942807415
0,0621249982677786
0,0605909989464921
0,068611545809464
0,0683082600590694
0,0554361945443613
0,0722926406494696
0,0635801520577896
0,0617225969704474
0,0604609553131479
0,0665034708656519
0,0596498073734742
0,0586583734864359
0,0595854571692392
0,0646083422314406
0,0541639020523343
0,0652783474288817
0,0652109427615854
0,0605133791924022
0,0606962646110061
0,0651055491602051
0,0620318300761792
0,0681543493928091
0,0592352562590307
0,0631103246751795
0,0636306610349887
0,0602978585449593
0,0571351680488605
0,0636950638201163
0,0668220663634642
0,0664157935651034
0,0549676176092709
0,063451722773716
0,065260134760413
0,0602588662128157
0,05877786002305
0,0668501407137758
0,0525516470551991
0,0553851872918299
0,0484124732629549
0,0629905933058414
0,0668006692135533
0,0617648181910186
0,0549787921580704
0,0653959311442022
0,0584365407617853
0,0585133115040416
0,0530615258133053
0,0686501904735504
0,0680654647865577
0,0632871585447458
0,0689573998411207
0,0665588980870769
0,057143563480432
0,0662055996570298
0,0555575166821422
0,0744617754650542
0,06876659315259
0,0540929362766792
0,0581662556922707
0,0598076588939034
0,0568964088773986
0,0622115393755419
0,0563221152657964
0,0583329046820671
0,0573782880449303
0,0620892325227016
0,062235142719832
0,0675465157369772
0,0628635750910438
0,0642271099833408
0,0597383737147634
0,0622917162061685
0,0482767072786975
0,0530016483154994
0,0632137837710366
0,0681108826861148
0,060923262648415
0,0576688072775438
0,0486710293135625
0,0574564193634238
0,0650061053526304
0,0586331642357888
0,0556617683880478
0,0695300471832982
0,0661386402621836
0,0629306222468851
0,0519389400684884
0,0552622367836095
0,0526896269005422
0,0576985216872217
0,0510258003836951
0,0539685548949975
0,0588862494610425
0,0560902870342396
0,054659556100056
0,0563724275138826
0,0523445767695112
0,0813195409890719
0,0622050837727971
0,0821266765755304
0,0665034221173603
0,0461099394056869
0,0729486765323317
0,0699072543049413
0,0544960685737232
0,0604114068399269
0,0494568388301112
0,0539079402323571
0,0545274871973419
0,0441784019103564
0,0682607097827726
0,0863140316784836
0,0498015111116317
0,0505574071770979
0,0519031031750202
0,0387710772647636
0,0598784838619474
0,0835177804649598
0,0597689420726672
0,0611873517861623
0,0510582642168967
0,0382198536957679
0,0710053571773546
0,0806606154106293
0,051354580131116
0,0566444547577136
0,0592029111612876
0,0500204022567413
0,0428578237368643
0,0720455303681474
0,0632818442428778
0,0554718150599196
0,0386687756305705
0,0545599981055401
0,0907043092240645
0,0670142870894644
0,0567306966014171
0,0479588481569979
0,0458243638154311
0,0761758994482498
0,0556674586016057
0,0448526267181316
0,07083448789538
0,0675676637860481
0,0492459890078794
0,0565879198356361
0,04947071787448
0,0631302748518134
0,0582974248004209
0,0248815533310644
0,0653459410395923
0,0863795874365182
0,0612433150900762
0,0868651117864044
0,0648580748704605
0,0547895646728218
0,0561742058059894
0,0549025039464816
0,0499179590655456
0,0483108227024842
0,0439217793116284
0,0551628682562892
0,0699827594856955
0,0500977499487145
0,0467653118994235
0,0704490232676869
0,0571341610860885
0,0370327757690056
0,0779965661674718
0,0676914541897932
0,046566351699108
0,0773696058011194
0,0624619485466815
0,0448088910305787
0,0533279124600619
0,0647096395881331
0,0522463043834732
0,05435084398213
0,0521645629938081
0,0535439859331544
0,064322622416531
0,0578386489880813
0,0536586179557811
0,0441508352146444
0,0367387167734273
0,0527260912084215
0,0850288126963948
0,0793846658259792
0,0613499674864687
0,0456133410888324
0,0270165994255883
0,0664861911309434
0,0811772654518951
0,0534697179087599
0,0486996995953754
0,0506703408399179
0,0543263095431059
0,0461485075832294
0,0545774611135256
0,045697799194504
0,0323295182043481
0,0740555773712739
0,0838258549968735
0,0582227835654685
0,046003439903224
0,0504906511065541
0,041409876340793
0,0693459773013451
0,0785341359954102
0,0633116967567068
0,0568028167889727
0,0438002517962633
0,0600633667189146
0,0685021034221451
0,0542665701765809
0,054974924070913
0,0537869109708948
0,055906850079126
0,0529901841946967
0,049097518130189
0,0540367603648251
0,0544434475773069
0,0529901590950755
0,0534572493687216
0,0499429293902046
0,0583354760491854
0,0584576718955879
0,0549678053881042
0,0518504206567397
0,0462367971153703
0,0579358738025171
0,0663607069022252
0,0617774229343068
0,0534699278140295
0,0547765112036631
0,0545554252744315
0,0569564005728583
0,0516353135091212
0,0545662665452649
0,048763425205005
0,0446196163452172
0,0686519956581126
0,0715229391370997
0,0586300037397013
0,0511722998962918
0,060674257470577
0,0704557365345575
0,0537075942681986
0,0565097353305098
0,0611984228209446
0,0510975084450512
0,0574971414351694
0,0812429353474261
0,0667005798171323
0,0590651841400418
0,0736138948674583
0,0626753586042183
0,0610862142888179
0,0466779210176859
0,0426686569578018
0,109211477874894
0,0724199904153016
0,0503042103445883
0,101127616632486
0,083227903715082
0,0791100571142495
0,0572669443563656
0,0268333400899031
0,100993906313271
0,106264020882016
0,0692330956615001
0,0685737767993516
0,0673752090133894
0,0625647764255773
0,0605739025656466
0,0581997027399397
0,0726728633968199
0,0771339921366242
0,107117639956401
0,0973166534955409
0,0609159354732714
0,0819582659050364
0,0923585560962746
0,07052648925137
0,0729850548687878
0,0714930892067595
0,0703316658083444
0,0776148924150958
0,0820801160099973
0,0844194649087778
0,0699954623742706
0,0703711897017263
0,0879795781259817
0,0821930339666498
0,0669397795410492
0,0777426283706153
0,0849417720028113
0,0773809275884166
0,0737575729851111
0,0776829754977984
0,0862594442741693
0,0714865081448667
0,0657193825383274
0,111491491342461
0,0901233524146871
0,0845963027423911
0,102042550497118
0,0955712586815825
0,0838523446497964
0,086007713938766
0,0932907654057745
0,0973537984138716
0,0818908545391714
0,0804467424510707
0,109842309828147
0,101438038660943
0,0884345147552425
0,0951153679034936
0,101547974572674
0,096641095526974
0,101180394515682
0,104135092478207
0,106895556499613
0,106372019176139
0,102272001243958
0,129767116194282
0,128275955268308
0,108212878060103
0,133266063997809
0,148231824229338
0,13063525916149
0,123323233765876
0,12601801202405
0,124703756185091
0,130120427247022
0,135050805825845
0,135203501699835
0,138184008106221
0,161314239910669
0,147214087988301
0,140901937276146
0,139305473197608
0,176858002109804
0,192842673143862
0,175688997303072
0,16221954311614
0,155846304477654
0,187067704060295
0,191390522076212
0,192043101897299
0,198329172772972
0,198523318185241
0,196772850886352
0,196214308609514
0,195381472355021
0,203806174472656
0,213773765981514
0,208625600759887
0,216140575919294
0,225260030171757
0,234028682926934
0,227028661356344
0,227137694449608
0,266675698434027
0,263091496039385
0,252634903992351
0,251393093178709
0,245050927501966
0,274764433117714
0,287704286257962
0,30763842049695
0,293714819542105
0,295068256594236
0,304514483270699
0,310639336225457
0,295450618131187
0,305303168827345
0,315579988739625
0,319619451836924
0,315568514166331
0,317273682675824
0,319453428596778
0,337749512672298
0,343016238759273
0,348290740579121
0,340701871112791
0,358102602428108
0,364055844050775
0,367918681627925
0,354452223785171
0,361895711131844
0,380843993279628
0,426758785289588
0,418215230300615
0,390532396428047
0,380422345157101
0,406488683724529
0,397129936620029
0,395020345409708
0,406448664056519
0,409088188367055
0,43055213656551
0,456879387280619
0,450168048123227
0,476470177852139
0,447946806904477
0,438724821636005
0,451213772406236
0,45441772747366
0,457944328839667
0,48026826366294
0,462232639683079
0,458234665098708
0,493398822755283
0,497842553975222
0,490753296307816
0,494862372439478
0,480985552892866
0,489329233161145
0,49075201138713
0,497190474392331
0,515234900159069
0,541825253299671
0,520272598690575
0,535431017755891
0,536692017621275
0,538600139638806
0,531198143572904
0,56183855064146
0,545987613222717
0,556947781737754
0,563101987664152
0,561348356204171
0,557693328756364
0,563928961905687
0,586695154634142
0,601707413701328
0,593147627325802
0,618437433964696
0,586443792426276
0,593822500061619
0,594674344885412
0,606123694519159
0,602456002190277
0,619832849737898
0,626084018611352
0,6489405723723
0,620350738380493
0,652988096669822
0,619455459941307
0,653474192890458
0,647023959092812
0,643603380522791
0,649116080505047
0,674049827183979
0,658456122224619
0,691358866837663
0,711053382451273
0,71611650408044
0,704270841105657
0,716368267480295
0,679365856432704
0,698710212028548
0,701445112544376
0,717739676177017
0,705996523765776
0,752153087068919
0,747241185854253
0,738976775684371
0,713674854882488
0,747448717211939
0,756458000585957
0,783181581335044
0,766157996634618
0,779503259278958
0,764513827220885
0,796257072908892
0,791153899016965
0,821470637404354
0,778729192746335
0,795170899637368
0,792338038917472
0,864077387073901
0,85647488204158
0,85144201898266
0,802741540537491
0,846982995956114
0,82386109607265
0,85868694947122
0,825956044458347
0,860569781297621
0,851238811218066
0,894366995454052
0,861471909876833
0,87631024651196
0,839336528705395
0,893854319128609
0,900938732238485
0,930725608173826
0,929091733188951
0,969603417869659
0,966910325167637
0,957959110299893
0,897218202680133
0,899145884558999
0,8327589967132
0,974294199644847
0,967641063148209
0,964572037423676
0,953031671074514
1,01009189298567
0,959126248520761
0,98702405604071
0,952978170693673
0,986809924967812
0,972601528940127
0,986341198324745
0,991378251865709
0,978763869853059
0,963731807068625
1,09244620997493
0,990806551798779
1,01973720927209
0,977846335484554
1,07233768931101
0,958291065206285
1,06132431459273
1,06613437877559
1,01981089588047
0,990830570708248
1,10707971936493
1,0179865131613
1,01781514538366
0,99754095619472
1,1296782905279
1,0872881186877
1,19324383239762
1,05618230183446
1,04007346920328
1,04794038256838
1,15616320338512
1,15562376934669
1,18004132556566
1,06084841521026
1,18958323057405
1,09459047544736
1,19137615653136
1,13871129776505
1,18320055376038
1,12766592889008
1,2220588280616
1,09545509648362
1,09873406075763
1,117561049446
1,24698863713937
1,22168192696868
1,28181225408293
1,12137469608456
1,26155856306136
1,13916263826191
1,21314816377476
1,11384442579682
1,16115311028261
1,21574392920829
1,24934869448091
1,1465367381563
1,24806855614066
1,18620042268406
1,25794951745022
1,19564375363761
1,41540753124143
1,31851628483164
1,21652366799219
1,20942069223518
1,43633837240575
1,32219940551338
1,31344889497248
1,27555376483964
1,45876611179226
1,25308089423299
1,36192859102479
1,30803113344105
1,38382463529525
1,2827407190303
1,40173307637677
1,17764993486767
1,27932633953179
1,28140976253208
1,41205169112034
1,31948118169635
1,36620429638545
1,20707584236126
1,55069308596973
1,51337790624867
1,44161390322551
1,30064673378403
1,49567361214298
1,30499556738223
1,43892857314645
1,33243443396234
1,50829529429232
1,40857014326562
1,45803086629694
1,36791216177487
1,74164520363129
1,35097327686024
1,41700872035054
1,41507396243372
1,34926984856556
1,51283153172732
1,51624271655939
1,41261883796223
1,51978754706018
1,41436516420648
1,45817759812909
1,47519970277331
1,55460544288635
1,52625559761992
1,72746473217468
1,44844309809585
1,546262590396
1,42453471310464
1,69515336469989
1,42744390781163
1,55157173490457
1,53337090531404
1,65472194139121
1,51810726878915
1,69973781589912
1,52301264443202
1,60407435480606
1,54028640492883
1,54657229334494
1,72240283531474
1,84849869821303
1,45378440421396
1,53562639162708
1,37412636133332
1,77157110323355
1,45518767322127
1,73536394907428
1,60664718709746
1,68468285662795
1,65544514308516
1,57505965160035
1,33881792739461
1,70430721422294
1,54576736112228
1,88762847993878
1,82499619022681
1,83385069995517
1,5248162911995
1,66424394654298
1,72781865347101
2,81026450983427
1,52941678261305
1,56669391271869
1,56897455718348
1,93634876838154
1,61301248058214
1,80775479659734
1,53316534426981
1,51172347316602
1,59103468882727
1,52306138277223
1,53767039734477
1,67553141049539
1,64528286704933
1,74159926434586
1,52035691488375
1,72588800489681
1,52224163677527
1,89410376196345
1,7300166734106
1,56911465034441
1,53312775974672
1,93073739062267
1,57542133797941
1,93499633614599
1,72245771321271
1,85178760145776
1,73277578098771
1,70412680032518
1,68978734962868
1,87678330996112
1,70638191502022
1,76078131806368
1,61693885918426
1,81915484383332
1,4660760951637
1,82137881584549
1,54215751256068
1,48483518009325
1,39130329650625
1,75136033833155
1,72495598267105
1,76796574145741
1,53483022722061
1,8242058654256
1,51289429045907
1,819142189107
1,62300876002686
1,83129421949569
1,79004284725793
1,66116490888727
1,54677172235127
1,90650382935156
1,63164940882004
1,90673538149627
1,7209465853503
1,93481548738391
1,89226655900552
1,60041125213453
1,65599524821868
1,66350051676127
1,39554638845235
1,73603493592183
1,57920069183814
1,7850411754338
1,79451681381138
1,85629249786052
1,67635401422476
1,52752678448731
1,6931584262227
1,78913864976999
1,66106047180356
2,12018837931171
1,57551091919204
1,81451207636898
1,82525564277275
1,76002122835979
1,56640380151289
1,7865098877208
1,70316579891516
1,64753759043192
1,59904359475785
1,80094854447829
1,70060920766026
1,72361303835428
1,58105739696084
1,64883821875834
1,65718578938469
1,97313360276685
1,84704585120998
1,99489132784616
1,64588808140137
1,72589305621675
1,67539405492315
1,69044709234322
1,67782679646912
1,9763083089937
1,64062069479126
1,76958768557254
1,62071315850378
1,69739921076392
1,6283430361575
1,59181750391127
1,59471950988674
1,70569570963021
1,47481694338931
2,01289124021711
1,74335387199429
1,87157904767239
1,73402856283132
1,88152902315303
1,80506601565129
1,74873009131395
1,58602609438682
2,6144464222175
1,70563523861088
1,78284177159464
1,76402674643933
1,77999484045127
1,68569408432121
2,05837942575527
1,62494056588207
2,03211114859117
1,86476407945614
1,78210516229543
1,68769176037199
1,83270756861426
1,59208214921879
1,83372225728093
1,85715292505033
1,79793287438814
1,47629734862185
1,87709371240079
1,76639321981943
1,56910109510091
1,68134148596196
1,75715244983999
1,6377994400553
1,65243807235293
1,49345748583816
1,69492655713626
1,63599791131413
1,78643704720465
1,63162311689714
1,67479284453594
1,69337789183036
1,74200161911219
1,58600243226732
1,69616253828015
1,56805687593046
1,87832238493089
1,89598660173606
1,85851059944648
1,59328844095573
1,66388579932611
1,92221833278446
1,71369168477268
1,57077165769202
1,77066653591874
1,5545823839957
1,75122041646084
1,59205245323821
1,71264547364557
1,57386024674348
1,7725538526354
1,59827223860177
1,8210430347264
1,52437779776179
1,68015456060884
1,68378567622374
1,78835061616609
1,51918251031347
1,75754670681436
1,54290296993438
2,0594677042099
1,68427670189666
1,66890761593709
1,5314509182815
1,57553338602079
1,48886684434417
1,6754553342057
1,55633582345352
1,64538843275711
1,56172687273888
1,71048026533212
1,471774652305
1,83628564719528
1,6551109114405
1,7526992747856
1,59970414470771
1,70988400996268
1,51443385025756
1,63786328023015
1,6389078543629
1,66151601129719
1,50085486209372
1,72294422067971
1,4719352050472
1,512790698996
1,48778849974822
1,696165104723
1,54683975923176
1,72884280981738
1,48762557530516
1,62013091578133
1,68276859063721
1,56619509725305
1,46625876802333
1,59285922224193
1,52945489891265
1,66378246939076
1,51582151764135
1,47715965267201
1,46277121903236
1,49617502031033
1,500123553169
1,61203201018205
1,43904314182067
1,45980107836277
1,37677889680232
1,55264472521011
1,47461135695494
1,51878818690615
1,38738143043866
1,55644288853401
1,45304698937695
1,48131314296635
1,39056405672985
1,48084773395502
1,38656844551887
1,38434225709696
1,34204537540728
1,49539839400631
1,37491846763089
1,46532016572079
1,37662979270963
1,36868272460492
1,26231113270019
1,39833429300733
1,29083057854609
1,33051433074553
1,32934712096646
1,38693141164328
1,29062031510386
1,34226328811241
1,30700334570813
1,42688254104664
1,30057748930895
1,26140469275988
1,2770374937937
1,27071108518127
1,29820385483875
1,34807503189499
1,24206454742656
1,31338625792978
1,24160729299567
1,28676140919824
1,20332114890461
1,26912999483266
1,1983060074075
1,23016132734498
1,16217736495214
1,21960255007123
1,15934529681931
1,22565910300062
1,17186198984787
1,2225847766242
1,17546343273153
1,20364450655193
1,0918071484923
1,14603276288311
1,17854753378154
1,19097939939574
1,18618876476678
1,17221299116165
1,11069797586881
1,15126778283087
1,13608912201011
1,11954028798602
1,09218514236117
1,09439144162447
1,05747999880284
1,10916254332712
1,07608312303188
1,05793192443587
1,03524637853054
1,10018256277682
1,07977403249738
1,0723267728979
1,00519842786766
1,05367561323346
1,06259471988076
1,06211084682284
1,01565168957004
1,0343867458806
1,02856602324692
1,04545822303723
0,979274967956099
1,01238056021637
0,949044425233426
1,0018323958691
0,974965905134349
0,994962645994055
0,940643422823444
0,971588491022436
0,920111095906833
0,965445500135193
0,944674199588619
0,949400735719486
0,934164319445064
0,923091313155669
0,886844352070305
0,930040616705946
0,882377149281826
0,895896499061249
0,893974118478526
0,926615423458755
0,871699856381114
0,928391160238797
0,851484525459758
0,874912715147808
0,860545227984126
0,869773420142761
0,845226410831196
0,880981245744647
0,834963488867562
0,838301143699207
0,811621916066185
0,833574649779542
0,815182338026259
0,830417345527948
0,823470564369117
0,822572349478055
0,800179278950161
0,791474353319431
0,784006773674654
0,814601205539527
0,7820779882367
0,795564803900087
0,742332620926254
0,756949818552802
0,754498010397373
0,766532707924086
0,747078559693915
0,752088067828556
0,735215464346412
0,76229058680052
0,722269098319237
0,735034371235048
0,717647104659532
0,726213422858754
0,694555492438112
0,72016639734425
0,710921212579969
0,716350921809442
0,691449879302567
0,703906462139616
0,682833496005908
0,711409416988828
0,679437456828323
0,69668131130353
0,669719583753008
0,675030297871854
0,643259096595899
0,667019558470277
0,651603971890238
0,66000507976925
0,636453499977919
0,653093165813267
0,639954143089413
0,64038192934876
0,620262475114147
0,635814582700082
0,615465820087077
0,624950919146363
0,621043341104624
0,619333908261384
0,605205188089987
0,607768410842008
0,602310120155701
0,601724776771269
0,590672439794463
0,599890250555734
0,585342778922556
0,594102812609181
0,57079244638635
0,578220873432969
0,557537312563274
0,575085667200336
0,551729116835253
0,565965958382413
0,55208119667258
0,559091291960576
0,545427967103913
0,562203290239662
0,539117136349985
0,548716367177501
0,528864764726523
0,53178548581173
0,516522817114534
0,528685187249388
0,526921679907421
0,524272755767776
0,517428085132213
0,527496935188315
0,512042342795226
0,515344463408401
0,506620276917102
0,502204024140357
0,499855575666269
0,494063483732316
0,480772127038314
0,495947038348252
0,483673559768408
0,490349548464895
0,472653005189946
0,480499962033359
0,474282821760405
0,479294048802061
0,47393662151616
0,475447522869471
0,460612945247373
0,478634763852265
0,465257456771624
0,470025483850559
0,458632774275109
0,470014958748012
0,452131041415987
0,459002257141473
0,443173211705701
0,46003702269768
0,44607004095608
0,448703679131201
0,440880893462794
0,446696475114545
0,443467360381701
0,456739050644895
0,429531769409559
0,441183918747066
0,435027387455089
0,44343894973529
0,432345793021957
0,447472142592428
0,427700325782163
0,440872380680986
0,426020078636593
0,428547324020246
0,418172903690342
0,431196972091591
0,419942815455926
0,43769416729438
0,417024574932506
0,42092070251244
0,415178091666402
0,424150430092049
0,413603091525759
0,424412227429465
0,413719509759369
0,419639112685394
0,413823623258246
0,424057025325805
0,403784657998836
0,410250259412777
0,409642109783873
0,4203778679758
0,409356009139566
0,419758523147233
0,405707773970744
0,410941373369252
0,401970122489407
0,406839963480258
0,408987454854959
0,41876745405988
0,394996827515094
0,416272081658069
0,403777592039826
0,416906095508986
0,402050827804145
0,414736248302972
0,400147672093104
0,40736654761545
0,393487086787512
0,409484774624251
0,401526390749268
0,406385939205745
0,391881593766846
0,399042864743343
0,389279038664325
0,396702014154034
0,384947535513242
0,396042251487256
0,391724854922894
0,397470352476134
0,383469496034357
0,378537438480931
0,382814882357963
0,392226039678363
0,369636521146217
0,386941773000654
0,376824563470395
0,378899127422031
0,371155025373968
0,376474825222511
0,366747766124477
0,382167803081284
0,36770295399578
0,373897871299693
0,367754776711534
0,384958591441013
0,36337007897141
0,367775417566545
0,359347016723901
0,369966663517613
0,361300284965229
0,357993345596628
0,353582626882997
0,362252044622148
0,35344064803366
0,362024720689046
0,350870534778838
0,356282240908251
0,350114808017325
0,359888028565801
0,351837822339611
0,356223255748978
0,346484007678293
0,359263757424821
0,347086455154587
0,355329695711569
0,344029619611011
0,35796657722101
0,350218963133482
0,359942700925789
0,343639984157551
0,349219738176842
0,338304385724447
0,345735025515048
0,335081508002061
0,35257447603291
0,334868797627132
0,341565314068575
0,339621464079288
0,343910989704356
0,321554013261171
0,340153675820341
0,325780915629203
0,327700005204472
0,328746655557225
0,335174720244894
0,323038741826384
0,329291606404903
0,316273793462309
0,326219293820796
0,307765620044929
0,325996535888891
0,314971163756126
0,317516820397893
0,304596865867153
0,31750360609455
0,301774988317573
0,310818075886255
0,298210476364614
0,299670501872548
0,294267329401283
0,302721830166081
0,291659559576512
0,297349971651807
0,288311200591779
0,298092309300326
0,279919614390549
0,287538148252212
0,280687138269615
0,283734522054411
0,277328681582552
0,279804626419839
0,267342541745656
0,279878793157332
0,268437698468205
0,274456193600206
0,262275998507396
0,266484630736995
0,257055746522521
0,26470291226918
0,256440653048961
0,2579813832717
0,253452170976859
0,259292872954683
0,25028450013185
0,256719446610528
0,255340583871626
0,25283081576179
0,24176317860173
0,251517369533214
0,239462226185408
0,249940905789665
0,239784227912503
0,246201950849737
0,236692194251981
0,243840686134221
0,236991919428985
0,243300571777513
0,231869767451288
0,235993298637662
0,227365543900498
0,235190169161088
0,226186998171954
0,229102060109205
0,220869009746885
0,227498180835942
0,218895365806862
0,227623573584143
0,21976976437857
0,219310634219511
0,219040699542473
0,222680295219461
0,217582289584184
0,223354489388128
0,210645168395426
0,221571637964592
0,20967160632227
0,220072435922221
0,208679025211115
0,211154038628981
0,210060976425665
0,212685060720623
0,206371621859171
0,206477197239365
0,205113459262442
0,212620958915026
0,199076209023519
0,205756959412708
0,199802786958698
0,20145286836594
0,198729664679131
0,200497372075654
0,197216648106635
0,201544746794491
0,193188743427319
0,198347619326292
0,196079245648363
0,199611741984345
0,188667561084467
0,194447217478954
0,188976263481026
0,194046195841167
0,184741477737144
0,193475941261091
0,189068034118954
0,196342438116101
0,186086081753414
0,185207843757693
0,181988407473276
0,188340956431835
0,177814217683231
0,190677018136931
0,179896211960993
0,183768674197521
0,181418873460025
0,184659134546292
0,18019255084744
0,189425745218845
0,17336954565686
0,180024946535483
0,171103169694795
0,177832381152467
0,172693834275144
0,180841013949895
0,174226242263993
0,177993626961718
0,170201570781185
0,177228622764546
0,173981382436535
0,177005123185909
0,166534584237042
0,171172906083717
0,169268721818242
0,171421590518685
0,165773152506925
0,170340306052315
0,163079816510715
0,172594316203058
0,161794501384653
0,168979955825924
0,166359923721687
0,169117517937343
0,161906686660138
0,16663997382474
0,164935979781069
0,16726756228831
0,160005990040173
0,161337732087688
0,159054487915579
0,16369150469696
0,15840800467212
0,165782340740616
0,152903562786032
0,16024144806632
0,156753503538523
0,159216461024625
0,155017223082238
0,159805797163937
0,155739140285451
0,16228608729394
0,155291666844189
0,159291793467051
0,156178796582936
0,156192675516841
0,157661833874795
0,159494687455324
0,148670421082282
0,156171762328083
0,148417349299965
0,158205851251617
0,152519724305597
0,153961937072346
0,150606304502078
0,155000686641533
0,149785190839052
0,154286586834666
0,145964097736178
0,15080327336921
0,146360623398636
0,153380655832372
0,142215528123955
0,152924866113159
0,14543968149409
0,151688045593329
0,143308759367253
0,149775414315595
0,143017691956033
0,146028272895637
0,142239063821037
0,146045184981769
0,142318844039612
0,144101807698893
0,138567155557081
0,14774167841727
0,137195269297478
0,144639989227935
0,134896416566666
0,144284169791185
0,13682327311441
0,142210695764046
0,137083280448639
0,147531294657854
0,136570917154948
0,142022233594831
0,129386188055149
0,138347535342192
0,134336319546815
0,138270713881685
0,131454311332483
0,138119495202866
0,131765893927042
0,139808662270621
0,130811101451098
0,136339802657752
0,128813268689113
0,134403957158751
0,128121417817364
0,132680081406773
0,126020776099846
0,127191310784416
0,126566462356828
0,132263925972798
0,128375558852043
0,131055569215573
0,125147086862874
0,130167219591933
0,122205477797403
0,131318367353929
0,121689787202921
0,128795158830256
0,124770044233313
0,128824286533912
0,119398046071726
0,129042279039657
0,122083734834674
0,127747056481588
0,117152123991309
0,124635130693583
0,119877251715116
0,125481295161454
0,121176894129223
0,123022523609105
0,116900569464737
0,121773800827659
0,115893411665988
0,123300265052972
0,116260661940275
0,119659662329602
0,115658910182812
0,118058796043209
0,112462037776608
0,119002896332938
0,113760552636131
0,117263219905426
0,108610944698481
0,117878976746153
0,113708794765639
0,117535151361297
0,108947385029031
0,115380129758687
0,109368605245013
0,115024078156414
0,107151627553298
0,115853892401956
0,108938201452946
0,113827116134239
0,104327232532537
0,114504733276962
0,107950579677622
0,110788564938554
0,106685165558021
0,109896422576776
0,106067649726223
0,111349714837102
0,102389002057479
0,107597499937118
0,105765632454323
0,109489416536672
0,107000936908093
0,106669480368574
0,10130828020206
0,10782552965036
0,101219790314354
0,108868529877153
0,103540546346999
0,108280851811606
0,102111523982994
0,108457922984067
0,102847684534901
0,106751158023004
0,102382314691204
0,10327980170526
0,0997851813904361
0,104515160461709
0,102998505023478
0,10377450127912
0,100726254866231
0,105829014696766
0,0995447042633149
0,107901918122982
0,100212990447007
0,103327400148517
0,101342746778673
0,106602423280204
0,0986415145850837
0,10604759753581
0,100017164521677
0,104522094379346
0,0984594839160848
0,102557883494954
0,100322682573447
0,105153660635169
0,0978530937840109
0,103761970087664
0,0994673232846131
0,103958701989317
0,0989394515073399
0,102042054515286
0,0978983700286003
0,104280447603716
0,0976438755770108
0,0991594455299915
0,0933819933596999
0,099213277742226
0,0951217984797841
0,101959856523021
0,0970428952579278
0,105196474547544
0,0962907570310136
0,102003686534651
0,0989721580597002
0,0990201447117764
0,0960932767989387
0,101928992321391
0,0952481897103556
0,100075615561326
0,0966895099386235
0,100694445999716
0,0915028813374505
0,100072863618377
0,0944280440704692
0,101078061019715
0,0958985946591926
0,0998702038886095
0,0963300689795851
0,104913935397135
0,0951436985835624
0,0999032090387083
0,0944897266575868
0,103555548377335
0,0969466709176826
0,0988982269238548
0,0913982076391159
0,103765235021973
0,0981566431971971
0,0998575210785179
0,0949720062651847
0,101424353260106
0,0929629099531179
0,0991371818995739
0,0924011547645518
0,0960080457929853
0,0954651718175413
0,0981752113099811
0,0948059166874747
0,099643396193027
0,0920223186416991
0,099974587779707
0,0936864324066779
0,0980364790133245
0,0929633438112327
0,100692973920491
0,0956800478702842
0,0997926402940806
0,0934445139797555
0,0983106266165104
0,0977299326493508
0,0989944040751671
0,0938508160452456
0,100490278744796
0,0924916331008794
0,0993744322580187
0,0931532009612856
0,0963058120114528
0,0946306561688935
0,0970300173361682
0,0892450657725788
0,0968087858673579
0,0918079683906204
0,0984807810786578
0,0947848925155529
0,0995995483815877
0,0916040409539556
0,0971201790160761
0,0906681119895952
0,0986179637804802
0,0931916862772998
0,0971503955573455
0,0950280776946344
0,0986937715019061
0,0937292540780845
0,101082349340249
0,0929388602713082
0,0952524514642513
0,0934292289300097
0,0975403785203468
0,0938167257450982
0,0990102412059347
0,0908101004022589
0,098797227710635
0,0938203138185173
0,0988125806537275
0,0957671997801017
0,0968149760583752
0,0923754047326327
0,103974960211718
0,0922495139606777
0,0984196869467166
0,0914047660058317
0,0990590868661004
0,093298318101633
0,0995922203388384
0,0951064674122542
0,0954491042774478
0,0936110110885955
0,0968721463219561
0,0935034438603358
0,0947924715267965
0,0926694958274381
0,0964863030109826
0,0905926187402725
0,0975176141678146
0,0920221679778744
0,0974779890099484
0,0935809236978293
0,100245959400701
0,0946732236365314
0,0955424339850343
0,0897045011682419
0,0959297832530321
0,0908567187613413
0,0981597096930082
0,0909372920901181
0,0965324786865716
0,0927354861085795
0,0974529768101749
0,0916544228557545
0,0972339769947158
0,0910184878578597
0,0983907245866472
0,0908271697700718
0,0948230124592228
0,0899739231445917
0,096337048612441
0,0913578905722016
0,0946756528162881
0,0899624729999874
0,095355588894486
0,0918313344643315
0,0970675969862899
0,0906838265976593
0,0912188279820767
0,0908407932476088
0,0981675119384914
0,0923508044177393
0,0976702700105294
0,0939200764982652
0,0986433191897155
0,0943029396555
0,0985538174355363
0,092682140712338
0,0981851696887537
0,0900137422985249
0,0963226043135591
0,0910963784354804
0,100114171846105
0,092878822437077
0,096424664310183
0,0914950794290371
0,0962336698121826
0,0896958206672911
0,0962308798279749
0,091996183899934
0,100424571916357
0,0908650508067936
0,097513700021445
0,0923465874244723
0,0977283264866945
0,0920291665070128
0,0970481146624225
0,0920062055616253
0,0964349281618153
0,0910598008476649
0,0991866413819877
0,0890794924399559
0,0964368416610412
0,0937681522590708
0,0994043053148935
0,0907125988796434
0,0977586733587507
0,0908720548907825
0,0990522503218731
0,0912568885983518
0,0989713117209647
0,0906103627993841
0,0999997063836669
0,0921138913328466
0,0979693170458695
0,0935892392361788
0,10108324332769
0,0901448506470121
0,100211467529098
0,0922267123582764
0,0994975049659485
0,0921966493314111
0,100531695792976
0,0917657155192373
0,0994025312772155
0,0929320433801215
0,100531514800623
0,0961986250457882
0,101517817156757
0,0911069200674654
0,100417404125228
0,0907902092213778
0,100007969745396
0,0942407084986535
0,0995227551084955
0,0933764991707209
0,100554411401271
0,0937415532146203
0,102035012590352
0,0939464261270791
0,103968097218579
0,0953438415792391
0,101878550739551
0,0954065058605961
0,107710340117977
0,0954210857166943
0,10860308846914
0,0987815991984228
0,109094960122179
0,0975461457797666
0,105819615807883
0,0953456104662528
0,111436427181718
0,101431451354037
0,115114731557334
0,0946808703174647
0,102101209915184
0,0893904522659057
0,111994721973834
0,0978713823017552
0,112602130941431
0,0964453829277891
0,113890303403327
0,0952576907068253
0,114383449912739
0,0959114677128052
0,112678841924238
0,100097168705777
0,11902954637599
0,0907035050382628
0,119716814131191
0,0932399773697835
0,120974150666822
0,0932292605654744
0,112618907340957
0,0994249002648931
0,117913804695312
0,0892246316508551
0,117112498500422
0,0885463135822159
0,116683157654564
0,090537853359732
0,121826648932839
0,0873739671872488
0,122596471954066
0,0868456426096699
0,122971079258339
0,0858973199587612
0,126032610295491
0,0847936044550551
0,131943742766033
0,0852544598118081
0,130906479833468
0,0850704450597753
0,125679879069582
0,0808157072294522
0,134059279934654
0,0889995232381708
0,139996953330916
0,0836413276336587
0,129929724008821
0,0858183185886859
0,139477593562485
0,0974602241134105
0,121650614198483
0,0955940277154173
0,122462777832941
0,112422636115902
0,100559885080559
0,124153335663979
0,102738816963561
0,129706555790956
0,0869571453181851
0,136999991160581
0,087127162441134
0,137147566014849
0,0923963498737592
0,134534871374834
0,0970781252975111
0,127835599550041
0,108376078447835
0,115194031666862
0,113408085294411
0,11136678949048
0,115046978579017
0,111894725407616
0,114311350495359
0,113299324610753
0,113230126945998
0,116228463611822
0,109447709597167
0,118750553894358
0,111543907232885
0,117242836326546
0,1124752837112
0,117482005728856
0,112125869000586
0,1169344311083
0,112173069580028
0,116254016301401
0,116058706384641
0,117181194619061
0,114055592055393
0,11406707428357
0,115802445553894
0,1154638828644
0,115226038763392
0,118025800497401
0,11773391549353
0,118159852145895
0,117468571140415
0,119409489776808
0,11669813725074
0,121556756853973
0,120524468659778
0,119021871449801
0,117336622648486
0,121927964648717
0,119187673976601
0,119367604836515
0,118702549011838
0,121348800169327
0,118049936940158
0,122383561742252
0,122492793588286
0,12201809941896
0,119792729202704
0,122391920534904
0,12362974576383
0,122651056742427
0,121296440354985
0,12505287931205
0,121992675055045
0,122944673285548
0,122766022199368
0,125427996356889
0,125972048481639
0,125636991531454
0,124642516098377
0,122908624985292
0,128109765136352
0,124763041455771
0,123801148483774
0,128032344250116
0,125722171414248
0,128991613718808
0,129356838907679
0,125187953181022
0,129039770939843
0,128007022225894
0,127961437710829
0,126921169217231
0,128733653372872
0,129517213621917
0,131060518342538
0,129162446033241
0,13070380535103
0,129358272695995
0,131930859455389
0,129064913727026
0,131808368042165
0,131191148112916
0,130718164431537
0,130484673460339
0,131521398100928
0,131705530756282
0,133793993922887
0,132465278110975
0,133645746817367
0,133996108751899
0,134898110366365
0,131811104583666
0,134756693605716
0,136560027647973
0,138595902370486
0,137799856827097
0,137872543188998
0,13422101908495
0,138545519490056
0,136448345023934
0,13671480214818
0,13473303541251
0,138909248547735
0,138669675043225
0,139627963030573
0,136428146197571
0,140451446621713
0,139578491654658
0,140177401902015
0,138589181795116
0,141583041116082
0,139366676625201
0,141041016878587
0,137964054224739
0,144029404087623
0,140568204523515
0,142325891888611
0,141438562952906
0,142089669421663
0,143738048616212
0,14394213332704
0,141436049976039
0,145786206073635
0,143277397275427
0,145601713738012
0,143560845592301
0,148164036355987
0,142586085992937
0,146256600730744
0,146694676484298
0,144168320189608
0,144264688696631
0,148779394733751
0,145619954496329
0,145220991048062
0,14492488704579
0,148730701629661
0,144509728999535
0,149609973514245
0,144529607689314
0,148482262139596
0,14931905734327
0,145874010923458
0,14768893479904
0,150307122857381
0,147611342591455
0,148973184943771
0,148775707244294
0,15167815421854
0,149486492111073
0,15243849279719
0,151183324412623
0,154942834517632
0,153014594092756
0,151710538229505
0,150210469109748
0,155404362741984
0,150358625066978
0,15443350318662
0,154147890066702
0,15397931387718
0,15226235524124
0,15525691043391
0,151806808645791
0,155010134435909
0,153767316450015
0,155909670119416
0,153097112183715
0,15461441242946
0,154224230977907
0,153862537314624
0,152243282943352
0,158159703536105
0,154866098140599
0,155358512981271
0,156311429295828
0,154756289158651
0,154639529441914
0,156904762838391
0,151643297934605
0,155672138658259
0,154033262958747
0,155001829772284
0,153733567902559
0,156621422270599
0,155927354222827
0,158093602976987
0,155007224431027
0,156686151854966
0,155453857639295
0,154174268904106
0,154109348753365
0,156598533082354
0,153497859482138
0,155731760657367
0,15314381396982
0,157182252529421
0,156483017218268
0,156976319589207
0,156370541631833
0,155746389337081
0,153715339472974
0,156759113079283
0,154779873427803
0,157529438247622
0,153488289279828
0,156108771969093
0,15476516909779
0,158146802770659
0,153291670612864
0,156993820398467
0,15230301009754
0,154150641925288
0,152799142342453
0,156903336181379
0,156046259980896
0,156991938257221
0,154343078698539
0,15665689132277
0,154184125792732
0,155812689604402
0,152057428815345
0,155359792041834
0,155361843831759
0,153844464641823
0,154401336603727
0,156154188675375
0,151653384268582
0,156539757648788
0,151055932783421
0,155665930765637
0,153639465136097
0,153845876920134
0,151980014866865
0,153382672368873
0,153531980849116
0,151808309081434
0,150318161208143
0,154239852900782
0,147538733391226
0,150124335683523
0,151949613188814
0,156662042744093
0,147728525405926
0,152134899238571
0,152440328190497
0,152706822589176
0,148474062311151
0,153070912061528
0,149482084940551
0,148906485526311
0,149001577343979
0,151416915715206
0,147732169305855
0,152269628654046
0,146006457575454
0,149941716225172
0,14580260148158
0,152047056729878
0,148556747055769
0,151665423119842
0,146167316477564
0,149954550924775
0,145739253728406
0,148395566546511
0,146071853479203
0,149417031328503
0,142350750961971
0,144985963613253
0,141911315157074
0,143642563115374
0,143648105255934
0,145893168978078
0,142643657575906
0,145037195770025
0,143370472905516
0,143777217156495
0,142504133023559
0,147199820428295
0,143246332957933
0,14464592843067
0,140321287967091
0,142970266315834
0,141159432163504
0,144298277729489
0,14066180437192
0,140811267169996
0,141263267839721
0,140814530468437
0,139736449107647
0,14055728722931
0,137427598303166
0,141132042277373
0,138524445941163
0,137544573857871
0,1382404452969
0,138072752376926
0,134701314596548
0,136466018017406
0,136018897670766
0,136140852156066
0,134246064988756
0,136867616299182
0,134354562671745
0,134679202984071
0,135818357963443
0,1374894491363
0,132886220339734
0,131354214189007
0,133621251988961
0,130928013724377
0,130206049862918
0,130833241350454
0,13381538253739
0,134311095569428
0,131476031002752
0,130120436251515
0,128797618049618
0,130035341131301
0,128432335422649
0,128989580777436
0,127221654895735
0,130782335809417
0,126456418601009
0,128631739199889
0,124440637928477
0,127307572720543
0,125875479537573
0,126578857351893
0,12421402373396
0,127415260386568
0,123472042769807
0,127028331660219
0,123259107183318
0,125088862814348
0,122524452260465
0,124088376160586
0,120280985379538
0,124151277468689
0,117477358304904
0,131228477072987
0,121816729884414
0,124504782220006
0,12038760752804
0,126227805124101
0,117124869239759
0,121941599450127
0,117487837276053
0,123429685076127
0,115599166071601
0,12064507858706
0,119447843660839
0,121765356868824
0,117659366200585
0,122077179019101
0,115354731502422
0,118812553929547
0,11774595350415
0,119771395652396
0,114218558406487
0,116732219165144
0,115122760623899
0,119023069173107
0,111576137851423
0,11704467901972
0,110774200849971
0,121120508844341
0,115885181828644
0,115884419868327
0,112765904883369
0,11349087958888
0,111512873292808
0,113269471742643
0,112776025241332
0,111872814070387
0,110820347678553
0,113189851824837
0,114086586202344
0,114093952021871
0,11133079128006
0,113535170525164
0,1078051942895
0,114888037479755
0,108700543727323
0,110928605186352
0,106971661879563
0,108488290371816
0,107969726557995
0,108860527891996
0,107421812654992
0,109324209045635
0,107742667095713
0,103675259302609
0,123430024913139
0,104455947326635
0,10913474858931
0,106567123556174
0,106223068342042
0,109544102226734
0,108368416259262
0,10895934766282
0,106910508906046
0,108573413821656
0,10834691071947
0,1075809623698
0,106453274437584
0,108543684648368
0,103670713876926
0,106505907892935
0,105756686462298
0,105988021503607
0,106811748240711
0,106215390883805
0,106270760743464
0,110537869538569
0,111287391416409
0,104285496634868
0,110038342872802
0,0965759860242762
0,110946233545597
0,114651947567279
0,0996942695387874
0,108502777441464
0,100451670580935
0,108017574315877
0,0997780095083837
0,10897875099047
0,100118896227043
0,11331014378808
0,0984350077112507
0,110620807050161
0,0985505662735756
0,105065855921447
0,101045330839696
0,103198854725521
0,0996056175167018
0,105856240879262
0,101379587671437
0,104301250874684
0,102149283694844
0,104033946218024
0,100082100259982
0,10389050633252
0,0987432442633685
0,111621995987875
0,0994771682137533
0,105794603746182
0,0994745397409329
0,104823196224559
0,0968528465316662
0,123251147385012
0,0982504177965726
0,108544955159109
0,0995832046342156
0,104500609499823
0,101218952385602
0,104332157001495
0,100545042632763
0,103194855594407
0,100311939256758
0,105328666763177
0,102037746800892
0,103298467594014
0,102461385357986
0,102686463462971
0,100218498602835
0,103516051581404
0,103706338488524
0,101073188971547
0,104271699149071
0,102258495382059
0,101299438823094
0,124987602330083
0,0985918945866696
0,112644085726168
0,102176563645291
0,106427668879853
0,097703840158881
0,108816358968778
0,09735699879911
0,109731019066875
0,0988811487413915
0,107096422694094
0,0973747642711502
0,107655507817955
0,099023249654311
0,108028393686129
0,0970873312693925
0,109868671728169
0,0992968721328068
0,109268656850812
0,0992093481469177
0,112144152682415
0,0945167175439256
0,110256807329745
0,103638021260747
0,111025672846176
0,0971232045594983
0,111403249603468
0,132081381524947
0,0967644308734464
0,116413393442523
0,099017423974235
0,109024578877326
0,103702255533242
0,104323513672055
0,105395714213916
0,10569152452322
0,104525684062462
0,108368361362438
0,106616752984402
0,110088463798074
0,103762638849124
0,0953079440889267
0,123040004332572
0,110636373821408
0,10636880515017
0,111348144610315
0,0959949034522959
0,127470353649676
0,10860804601164
0,107228003007422
0,112245967259766
0,106075649690871
0,110192902445249
0,105714004686612
0,112542197033579
0,110275182317838
0,115968005047435
0,106453905998377
0,116854501112606
0,105613709116216
0,113195304001216
0,111223044312431
0,116222653078281
0,121242000504967
0,111938196607335
0,112634770715795
0,118543692603207
0,11016382840283
0,117389891331807
0,111320507622633
0,115833407238196
0,11101928003416
0,125800590396878
0,110074365721535
0,125289623827828
0,125605271051835
0,115340101056037
0,11836240045986
0,125164802296848
0,116879800111032
0,125836679264384
0,0974850530488139
0,159944114394915
0,106654433482806
0,142931818436669
0,113953146044466
0,13113368125413
0,115060452008663
0,128771461939831
0,10897630823859
0,130476300883156
0,125659048567165
0,122290728125421
0,126571306611021
0,123177100050962
0,138843269020334
0,123487042335087
0,130650525920833
0,124490056705491
0,127741697758352
0,127363643661133
0,142117096524873
0,110766531892106
0,149419357033446
0,147938643198833
0,135615973576213
0,149466059971234
0,11860530422191
0,16600244187409
0,137186231373793
0,137853290677923
0,139773927075326
0,135741257325338
0,1444856451616
0,125133118449315
0,157688747848335
0,153575679252732
0,133603370256933
0,156903912608821
0,132836512605438
0,157804885934483
0,157326219600513
0,148889366370773
0,146920556541358
0,156597735025915
0,142496154545294
0,15771118082306
0,184048566715266
0,13908104111443
0,192556550092678
0,157532155013173
0,177554112869848
0,158928472448546
0,169408858872412
0,162094118073448
0,183042776844414
0,168524044032171
0,170564665101632
0,163851148717193
0,207303741047419
0,165825197588048
0,182528511612768
0,181502062687168
0,173476842456406
0,190139827357919
0,227625100910361
0,20154811977027
0,198216028323964
0,187878655857247
0,217333370858703
0,201926406460118
0,196489973482996
0,205249076256389
0,204134316034803
0,211816202793435
0,212002106596505
0,221818950445347
0,22489413384071
0,217338123390995
0,232373037314667
0,21329389298774
0,24455804631779
0,245530378804786
0,278035795976642
0,235875598917069
0,272479867388677
0,267673637478781
0,253077607419285
0,263027668716731
0,259985095608549
0,280471898427425
0,275457143344446
0,279322232656067
0,277016645166985
0,293192507189102
0,316567780509082
0,282992916858006
0,335556422003869
0,297838136910277
0,324965581982805
0,274907424545271
0,45209968593194
0,369686335007985
0,331484950135624
0,363802960179611
0,309782956781592
0,453187051564255
0,375412047280046
0,379155217400996
0,386406873674276
0,393983738304421
0,397368822290801
0,418543644433008
0,418928425709319
0,443400363826654
0,439970740979416
0,434923720276843
0,433792905477924
0,543567010036323
0,489518707180395
0,507271613385799
0,471401547055081
0,506702225962192
0,521342556502061
0,520475479674408
0,516784714101987
0,548081692097354
0,489177679898344
0,622437668640996
0,557710261944391
0,577020805641241
0,565246033477756
0,622539634909052
0,583252425504584
0,607326938056858
0,66618327260411
0,615866392546502
0,645853790092221
0,624964767518982
0,664475193008031
0,634739747122392
0,695085993486103
0,698121192289382
0,684552217482356
0,707488088602484
0,69548644795622
0,713805440849788
0,715576438597938
0,745810171299259
0,731153866006058
0,760958093704743
0,763951611860682
0,875967655798084
0,823361594871971
0,748638093379123
0,788749634896236
0,745914253374149
0,831704136760907
0,817773438241629
0,796243217728684
0,861226030717625
0,798279006838384
0,825532272639478
0,813466884856982
0,831739630118306
0,832270521321321
0,851093690624652
0,817626644791091
0,831408794196934
0,838699679533409
0,771452977599701
0,954035520334224
0,822841694126178
0,811084180224517
0,801974236546301
0,819725539291205
0,787934552427741
0,814793716630183
0,792359253994122
0,85340235647737
0,791933380928725
0,787850500146099
0,780448887499594
0,785965593932869
0,802956927290345
0,759150878841545
0,760855651717918
0,730364727071198
0,721895646102005
0,724414491350759
0,688587933369768
0,820876515440274
0,710155631242024
0,683825384688161
0,682713587868382
0,671162949713194
0,667288989572958
0,647467228614075
0,630325243029585
0,640259291621323
0,628347505178882
0,631162589685771
0,614649371278736
0,602388991542578
0,594038100166647
0,583431702012973
0,586743744468474
0,574287208629362
0,5682182569729
0,550599370361673
0,56074057752841
0,544423792614622
0,539113596871959
0,531396976493506
0,535230338298269
0,531486587003762
0,519110401636992
0,516145578693083
0,515192697365137
0,506932284112399
0,506770412475824
0,496701670118301
0,493513197399513
0,488245206903028
0,493137789869735
0,475318764204902
0,490533899528363
0,479626680211106
0,47185051784993
0,471760464117218
0,476482621512778
0,458721497331291
0,476371578706762
0,444389695830572
0,467192441251376
0,498073598308479
0,438613255935204
0,460186319603294
0,433235293085103
0,451164475825826
0,432811582604078
0,471222345143204
0,481110570597961
0,43235023623592
0,436261968411548
0,437255088562879
0,430109839504978
0,445866412890629
0,421694400011223
0,438743477821893
0,420954604145933
0,399530483397131
0,522723458849316
0,381805211432938
0,512051379698981
0,422755628914877
0,417827898621085
0,381902517582014
0,472228640449822
0,405170567674607
0,408121532202911
0,398634979399373
0,416094038417935
0,424741214058829
0,388386726386003
0,403252601808038
0,389419218588197
0,38944704317304
0,416437479400326
0,390937111463935
0,376855657724852
0,433532292869506
0,3844129178546
0,39285000554096
0,429782678705186
0,402098814745224
0,371375903277431
0,36293447478759
0,374965053563825
0,351131422806343
0,417426227392549
0,372938460985322
0,363594728376097
0,368127650985676
0,339433644904556
0,359342643907902
0,351267374014516
0,371691267755901
0,332864738883164
0,382294409921319
0,338947842988032
0,333770746708836
0,368578927278227
0,349255016443404
0,388639191036416
0,33965654016889
0,339948513502969
0,325487816076452
0,383585283320686
0,331391027214184
0,346034655044923
0,331171605896396
0,315762637987042
0,339389364728693
0,328597090263308
0,317111201269836
0,342665741843583
0,308061272319886
0,356383798748763
0,342648162467322
0,356625965438819
0,330614352236894
0,308625855399652
0,311842917496233
0,314418536351712
0,311204254881938
0,307591917483793
0,299979569076828
0,337227675280818
0,274322749596982
0,351191797350939
0,31710717387786
0,30606667610976
0,305756304482201
0,305025376303914
0,303848421133372
0,332225765998843
0,327358120077329
0,327219794735707
0,29059986791909
0,33426438691204
0,30106733635678
0,31548669341687
0,304623963709527
0,315853593069244
0,305180256376102
0,324456890457947
0,313762422277506
0,316887168716441
0,316373314836669
0,329970963922075
0,307030781743879
0,361702594321866
0,314976882750844
0,344109062010265
0,348667244719114
0,354934195834695
0,35907780649804
0,331451527447106
0,353868470064074
0,349505700618838
0,348101481206168
0,356348168391604
0,339704253417394
0,38752480827977
0,350189119763604
0,358627718943548
0,357329430112847
0,367206634867745
0,363234779288341
0,366300537435248
0,390001098115245
0,366057778714989
0,43739995033135
0,365014704090895
0,382074760544664
0,363602877163168
0,374123858442786
0,379256671112062
0,369257228755954
0,38104982614475
0,360356788387813
0,389269277927533
0,381954801950686
0,368898320167336
0,383372619823656
0,376995409408519
0,375474229404074
0,376771369009732
0,37730565086072
0,37907127354735
0,378086600660973
0,389564591577466
0,357234812576947
0,422703635607616
0,406966012762319
0,381761683423206
0,398070913299819
0,379720070916168
0,399539402096949
0,385446235888775
0,395644590623264
0,401433245220955
0,391327337456192
0,402729061002335
0,390312031762915
0,403117832880578
0,398020622260185
0,416421569628751
0,403470204743577
0,397547741779158
0,410329360595031
0,369764558166923
0,464691977525842
0,39694978008099
0,422771604251528
0,405398698609056
0,411987407796447
0,401551505025301
0,407094908055341
0,410012050655572
0,414018627013628
0,407077480963555
0,409760233378153
0,41095277081212
0,404351569423141
0,410587810748877
0,400242291440722
0,420065267353434
0,412764459524376
0,403557207094442
0,407691128284958
0,408303890265259
0,404091864072386
0,407738611048434
0,428605326097845
0,399000974883935
0,410412258858384
0,392866513438479
0,418243065152292
0,415228296531184
0,397819428012924
0,403594663480862
0,409030216945477
0,398426859235626
0,411588106390671
0,388725730854716
0,427794566848806
0,409719911083987
0,410101381040206
0,405508631568112
0,413459887882515
0,411732543078724
0,416461534369874
0,412805720922458
0,419369486910077
0,414623217969789
0,419210710507654
0,421906619999156
0,42000210745913
0,427143632131502
0,425866123128538
0,429136944458796
0,420263729450886
0,415309260737771
0,419620403970992
0,414004352232815
0,424814719372466
0,413470254093126
0,41771148152511
0,408195718096626
0,411802153365982
0,396605904514996
0,420935494140466
0,409821409133183
0,393992740063608
0,404494470368604
0,389667229195953
0,402346195393568
0,390676907996344
0,393681337609859
0,38847506875917
0,396922289805072
0,394420660940839
0,389634799961726
0,384332676895161
0,382907635128468
0,383305101741148
0,38654288538913
0,385737480817413
0,384385390340289
0,385568405334138
0,382473747199221
0,383767441927793
0,384258917706895
0,380476672101652
0,380124082952283
0,386058634657666
0,395016870667872
0,382555205638065
0,390371045781746
0,3795519989752
0,390294523856647
0,377816944361976
0,386071407255031
0,378234707582033
0,381403236142116
0,377907648347675
0,380032922558191
0,375881771021254
0,380958672381785
0,376542481114186
0,374289325332773
0,375571390424644
0,379825889815253
0,377708139096705
0,375096489972009
0,375352473383858
0,372414993923322
0,375544385878193
0,378890487824241
0,380890277081613
0,374269778456311
0,378349065221788
0,375528173307064
0,37705948267711
0,37666492560906
0,3795945019456
0,377378444283647
0,371475744163828
0,373307077850654
0,368686651777282
0,371738741750532
0,376504702907662
0,37081886079563
0,366567325107995
0,368678996503416
0,367132337834235
0,366999249410047
0,363847463681073
0,361956284228887
0,35915263151482
0,360061445672498
0,35987365177858
0,358420427116271
0,355737353056335
0,354364700697151
0,353015603882077
0,353849606018552
0,353541342021485
0,351513887875196
0,353042225573246
0,352914882660411
0,349194521838798
0,350898806466748
0,355204940000247
0,351668478478273
0,350134986111979
0,348306225197556
0,350814492139291
0,348816987546202
0,351061698399886
0,349031175228763
0,345939877429378
0,348631065519712
0,349675046255411
0,350788288180281
0,350619496573292
0,35137337873922
0,352970241117112
0,350488008544743
0,35016498697221
0,353784716194632
0,358825352924012
0,35710298797776
0,355154067923033
0,354974607326434
0,35685747113225
0,35909812231257
0,358335715439837
0,356603579048512
0,356517676747514
0,357945963479662
0,359315932843504
0,361061427363974
0,36033942180612
0,361434524512431
0,35868513463614
0,356546636041003
0,359163173997739
0,35957759684345
0,35618548565287
0,355776708130693
0,353878386054718
0,35350116628878
0,354491002358238
0,350313278513201
0,353215685323331
0,35258749961675
0,352092585926527
0,350918992294221
0,349375706382433
0,351136172557679
0,346161041771854
0,346740300234332
0,346448247653536
0,346312447665283
0,344436954468134
0,341670373530146
0,344898858758999
0,34355942148411
0,343766935351866
0,343201491453815
0,342281690617834
0,342477906880932
0,340556853661242
0,339410539938493
0,337302012185673
0,339334186377931
0,343087739928107
0,33841329638512
0,337000011253002
0,339039204477451
0,338074176504853
0,338253396355285
0,335199374969842
0,334354542051873
0,331397190878377
0,331711288595995
0,33088983748094
0,328054416811391
0,329088611273337
0,326536788092183
0,323022266159431
0,322898170718582
0,322276608543956
0,319813472185661
0,318117708550608
0,317543243005769
0,317383068796246
0,318533415430793
0,317435604318946
0,316868434021179
0,316197881727292
0,318436641678391
0,316573973270797
0,314815331676772
0,31720434894873
0,313172136333019
0,309334191229834
0,311016055072031
0,308865585338069
0,31034124229825
0,308147816220431
0,303868048251466
0,303850323468954
0,30198206136626
0,299780212815162
0,298162635188334
0,297516498334273
0,298115372522496
0,295165942340772
0,297179836357347
0,29656367017067
0,298409512356943
0,29902311660738
0,301615339695281
0,304870316787949
0,305663466514302
0,3111669311081
0,312384890299293
0,315572125161105
0,321792387788015
0,328961030853849
0,33479483992262
0,337399686797435
0,345344304617141
0,352212284325643
0,361914119477622
0,372801513903376
0,377677073786772
0,385907861365995
0,397616584146965
0,403549076987027
0,412248174304222
0,421103366519024
0,42999023223498
0,439976362731235
0,45059904029749
0,457147385953614
0,464152214365935
0,468685625652534
0,476611618150024
0,480930255547188
0,485130739252222
0,489654347244964
0,487973456016335
0,490012202441553
0,488437841237286
0,490849626141625
0,488613219556965
0,487258852449059
0,485868304875385
0,484187729507775
0,481320345808383
0,482870822559835
0,479052830484629
0,478073358638982
0,479632181732889
0,478576658260144
0,475811812984948
0,476168960305929
0,4787153805236
0,480389770330141
0,481714862802495
0,478008428095952
0,482469699144082
0,488631231069139
0,488628032156242
0,493880221241623
0,499640852052084
0,499131069256975
0,504394577472726
0,509641291224611
0,514851347423876
0,522904914077933
0,528549240345438
0,534320981315185
0,54498763107119
0,552860277615813
0,562823942864831
0,57233178356655
0,575522978510755
0,582574604149214
0,585465326676632
0,588176495231655
0,59061287625441
0,58493692212712
0,586394215039514
0,589135847236329
0,587217563686721
0,581402853336152
0,574904530122134
0,570847529654441
0,569788124021146
0,565652170206289
0,566241847295987
0,563017059827888
0,564701780267124
0,565563221418256
0,569506112885928
0,584132331915982
0,587415809752013
0,589486720109937
0,59891332537004
0,610491007656049
0,620546718441375
0,622879672877578
0,634887749594152
0,642436866385509
0,644835534988178
0,659958952810593
0,663017083376915
0,668678025130394
0,677087002520644
0,681185233567589
0,68823668673002
0,697679657103144
0,707357459832377
0,717209957840566
0,729723469908918
0,745214450640493
0,754813249461051
0,763986984325061
0,782918140278483
0,79461220465677
0,813351775184322
0,821778346617261
0,830971884171742
0,850457868223969
0,859330189534718
0,852064406845217
0,858818460859803
0,857666417153369
0,872938576831418
0,881656046030517
0,887204794909122
0,872162998686401
0,87669018003601
0,872214727770166
0,860623355905781
0,846944070898056
0,849225916517498
0,826464532104266
0,829181283185181
0,819434370542145
0,806676801693132
0,808372432115741
0,805127256626583
0,807999859037085
0,808883350432224
0,802176655313343
0,805654811843743
0,803161912546996
0,816111378526672
0,818130141356059
0,827836969169587
0,83699827509642
0,839373047835381
0,85358530904647
0,857577266501968
0,850982897447044
0,862554505191245
0,86415659728837
0,881015423396635
0,890549614412558
0,882859953027486
0,885330438728646
0,886266320720612
0,890055148455246
0,893180428996056
0,895188329550197
0,891336436876783
0,890394811152377
0,899580835376602
0,888782018417654
0,890703497924596
0,889106705540277
0,894528664174327
0,886309777288523
0,871920563387112
0,870782531975619
0,885855993845846
0,887457818355601
0,87020428211807
0,854390844839141
0,854574601529472
0,848060038733612
0,841974390585441
0,841173398802795
0,830400451754982
0,827695566833656
0,821753441631405
0,793185999321339
0,78415063930617
0,755910243602189
0,745775175509673
0,725508120661939
0,704978694694995
0,689371069108606
0,6586417797731
0,640751933170966
0,623050133788452
0,605882228436929
0,590975781700417
0,577557663482268
0,568406406839996
0,563030902977484
0,557520941294764
0,552831854023269
0,551009163736811
0,550611369364948
0,554705366096684
0,550498255723688
0,556601728787539
0,558470201873201
0,555467847226611
0,551369545489617
0,558414501572423
0,555509061505846
0,543306909334346
0,54562478740308
0,539427621210743
0,532551248464848
0,52460809870744
0,518626590555199
0,514221044612899
0,506454872493363
0,49958780104426
0,493539493428338
0,489130982680873
0,481876150786385
0,470390269361255
0,464892347394038
0,461027793448255
0,451119645049338
0,441603247976058
0,435853915605601
0,428316355160565
0,429946928909147
0,4248065566248
0,408893494426608
0,412053733519345
0,408026404312666
0,405201393066068
0,405423869493013
0,397901578910992
0,397875912397408
0,397224989802045
0,395391038824812
0,39379700460063
0,389290003666618
0,392495698655072
0,390355789451521
0,390531622256374
0,388898152425703
0,389774355463924
0,38823557593462
0,400244511940262
0,397300233710888
0,395375532891275
0,396588871678843
0,39987108821122
0,400427927251567
0,398226397055859
0,405650701732091
0,410548503670808
0,409809755421913
0,409179433970552
0,409108654379237
0,408791090283026
0,413733512374186
0,419510774031528
0,414463167244441
0,418566010760264
0,419496649890432
0,414453344665415
0,413629632911341
0,421240415492355
0,41861528248877
0,424508137363912
0,425942329190953
0,426150205187193
0,420288111154515
0,4293747501574
0,433219771874294
0,429466799882523
0,434843092621694
0,439689081675005
0,440547420837053
0,437707802695274
0,448401929985363
0,450312294422197
0,446942342571383
0,457229469632993
0,453882494012133
0,453457004727791
0,456823516496166
0,456865551598167
0,465204775052051
0,468692364384689
0,468793458515108
0,47137015717685
0,471613632195464
0,473773951997146
0,469017746574282
0,473468537264738
0,480985966862308
0,485881145200121
0,482594412944273
0,489272904043601
0,491929107726124
0,503493800505826
0,49571016063214
0,500705932039967
0,504899848537206
0,513772891686189
0,507987049162774
0,520310338907391
0,531854157444762
0,528217433481984
0,539130304512092
0,534098618651983
0,545157532306615
0,560203387293092
0,569746539340441
0,568257805354512
0,57910676035728
0,577791807552753
0,57908774459752
0,573717220015787
0,574911394344406
0,582698446553345
0,574777707233346
0,575830330948972
0,58062688730796
0,587528182564094
0,594701006833093
0,599665644825171
0,598019378432213
0,598061861697453
0,60030956104661
0,600901412797445
0,599150614498016
0,613091042739774
0,613061457520174
0,618814068909009
0,607955874643461
0,628928365980195
0,628631027803022
0,631832487212925
0,62852651735415
0,624484694166615
0,638165598527356
0,633709307591066
0,618007522280651
0,64360061371317
0,645900166348727
0,667138097737264
0,633264245249792
0,648541354763423
0,662315267182419
0,665779692122994
0,657614385154445
0,67462453870354
0,679187014470036
0,693634749267193
0,69394992348947
0,690198574213376
0,684244953459463
0,707930816977743
0,683670546381629
0,695791926932961
0,682938537790427
0,695252824103124
0,701003256040115
0,726313571662225
0,71129466426685
0,715023657662319
0,724512587376598
0,72246286000788
0,715962152085428
0,740719509672651
0,735562560212121
0,747450262086543
0,737647422925031
0,730550591044633
0,725128492326148
0,768741446110398
0,75258982278713
0,757984704500006
0,765501039233715
0,764298323044923
0,760861525751815
0,772472529469561
0,766431127984665
0,82015078040313
0,818651023130518
0,805047486874543
0,781441482259466
0,785249524415011
0,796987448907961
0,823598983408509
0,797560587805712
0,817034762909587
0,814652122356775
0,824323750051503
0,803399581290775
0,862454473231231
0,806841323743636
0,854327248217712
0,857086779341536
0,84474713568793
0,864961274493705
0,870471157227147
0,866363570824736
0,913174967998846
0,868636444184319
0,87713587751025
0,891721647911698
0,901145614317863
0,875346968295429
0,924634681101908
0,881764440000417
0,93184897422734
0,899144744941619
0,947838703441327
0,896302977124928
0,906340456197197
0,911259232604252
0,984862932712162
0,926431187973265
0,975191609553
0,9729124466748
1,02512329062835
1,03174413063707
1,05061970330824
0,966182401778474
1,06026784994452
0,942795659077572
0,996065427794564
1,02787120568071
1,00691607770398
1,07233553264598
1,05432431601236
1,02218502655336
1,06984767363637
1,05966053974897
1,00266528788599
0,984560552125563
1,09373786954362
1,03770478748033
1,08833929955748
1,09507431605463
1,12278641248325
1,07795079548797
1,0773381380943
1,00389279479221
1,13616302467093
1,21636091075542
1,12026037643563
1,06554582152682
1,22825631299289
1,12958459016316
1,19045756519022
1,12744316976228
1,13442002924255
1,20287778985997
1,20620132883172
1,12962984464596
1,23610610287749
1,09096018653948
1,10411191332318
1,1577216771022
1,1565759643373
1,12748898332852
1,18580535929829
1,09637298792384
1,09585890313926
1,11878052218388
1,21837117630584
1,06269445724497
1,3133055389266
1,21831208018646
1,30032687716126
1,0990396544278
1,32831262380159
1,12077322788422
1,37448874590691
1,12920068631867
1,4906162944538
1,21982098303029
1,2212098687464
1,14711293106242
1,3769736177794
1,30910261878913
1,16239261614104
1,07632198412446
1,36749429751807
1,17480153397129
1,1896953329934
1,20024344723868
1,62149246615085
1,02103144921742
1,42853141822947
1,3332906923585
1,16416649053201
1,29742195121014
1,28172515231439
1,09406243246027
1,40219986519851
1,20422859173328
1,57310222631279
1,13414069449456
1,39790972978465
1,10677643202945
1,76836912790081
1,37348756953559
1,6149382716334
1,13231760120426
1,41774007660657
1,25453766431148
2,58594467066216
1,37387686930331
5
1,22632320136082
1,30479851574877
1,29228194604746
2,03328661013327
1,09918197440514
1,18585903043998
1,36917007768835
1,24188407523147
1,14734963934537
1,42641147006037
1,18362833862287
1,21281091652213
1,19306131991452
5
1,70557183970493
2,11452854993127
1,08219747153673
1,88111403379788
0,993795839024895
1,29641987278015
1,04621634896266
1,34164806157844
1,18910125528013
2,44901461878551
2,54639185896745
5
1,76308543629274
1,50621926719309
1,24759257366499
5
2,04904208157835
1,27085745181356
0,939871365468913
1,82449061088935
1,34552391615814
5
1,64308792603093
5
1,55236321826369
5
1,82980450444742
1,67884150143765
0,838692218790117
5
1,05522548294549
0,844583160323446
1,02451777619629
5
1,19189877126781
5
1,36142164110945
5
1,24065942695558
5
2,54259283543304
1,27729469046935
1,55931318231625
2,37129737076513
1,45064306671742
5
0,737253933800402
5
1,52482203818683
1,06074346547819
