3596
4000,36533379555
650,420452594757
1
2
2
0,0799576690694122
0,0695196400512618
0,0736491251391294
0,0614682294517897
0,0789173678482969
0,0666209989085881
0,0747373798940387
0,0644246935968399
0,0723608483591619
0,0569123480241049
0,0850570557747509
0,0681364206704042
0,0780608220670236
0,0720886008023219
0,0774925614600728
0,0712675606402102
0,0705507739023971
0,0691929364772852
0,0734931245585221
0,0629683718763151
0,0784325517351526
0,0705124440434463
0,0655410018565602
0,0624353973855535
0,0761062406191287
0,0614871570313762
0,0744366012276208
0,0679463923095711
0,0780085177559275
0,0701046133762464
0,0678718537703762
0,0654766310936881
0,0781023711358815
0,0717078573901421
0,0756365655994841
0,0570278464306373
0,0728490912437855
0,0693744040112048
0,0737382648247012
0,0702985465386799
0,0816163565746105
0,0584017945353418
0,0756780305763134
0,0632251464656734
0,0742579324738027
0,0692709537959061
0,0767686718758485
0,0604039718258732
0,0728180831518198
0,068476619098245
0,0828965238899018
0,056207406178695
0,0732961844816375
0,0813285789695013
0,0784602897926494
0,0763888159398399
0,07664809652404
0,0603883367393926
0,0762997419750913
0,0592076455982097
0,0942783082515887
0,0834418280160693
0,0657499088345166
0,0659304906180855
0,0693068463230346
0,0689029345707438
0,0683106573787578
0,0658743083443015
0,0667055027221321
0,0655880949688487
0,0704858109275855
0,0707816453053532
0,082031104127236
0,0727743933880782
0,0747126750124569
0,0726522851332347
0,06941105206996
0,0590553157292521
0,064057193540078
0,0699766533582148
0,0729288372629637
0,0718577688382278
0,0759012635213566
0,0581695263427824
0,0739712536920573
0,0760816737712238
0,0661791998899414
0,0611576314813995
0,0803417718396992
0,0662752538536079
0,0733665253953282
0,0635174679121291
0,067406127823336
0,0649739841872073
0,0690157286056144
0,0621601955735093
0,0679734358055258
0,0712250754041689
0,0666010610415389
0,0670995501820491
0,0698134134077993
0,0553986846415292
0,109295560781842
0,0533415564361718
0,104290442232389
0,0721501610990555
0,0624137359269896
0,0862089244138896
0,0800490457967731
0,0615191321444337
0,062928760559722
0,0636634389496652
0,0617689184810719
0,0681998551408476
0,052943985382829
0,0754897862063059
0,0944242738210006
0,0688372284511654
0,0723240584166227
0,0608778080570671
0,0482082019738896
0,0790635911276437
0,101101377068472
0,0565523419123837
0,0828601039606005
0,0643124697096797
0,0454313539476314
0,0797766522509
0,0955746296907241
0,0641909944062579
0,0741010418610618
0,0614831546514364
0,0698836879207295
0,0483764852905093
0,102462763178258
0,0728412369583799
0,0722778556803352
0,0428254108330397
0,0746263513939417
0,111621451396838
0,0840549057988129
0,0666814560763206
0,0570373442066689
0,0514346344579818
0,0987287982610382
0,0625062634048043
0,0575809669230976
0,0751792070201568
0,0813585622401463
0,0597991224724702
0,0661296658498519
0,0518638798821103
0,0810712966019716
0,0695689382713488
0,0268903996609529
0,090790796523818
0,10588161045208
0,0674734223482886
0,140832363860982
0,0670028771213684
0,0749079990034428
0,0599309231069707
0,0663613648754149
0,0553305634963891
0,0707103427323009
0,0513655171374986
0,067185403348117
0,0862854349118935
0,0631168734144102
0,0506700149678259
0,0964988577268639
0,0682348927349812
0,0422084005678304
0,103728342361261
0,0812912352406045
0,0431421416168962
0,0870578180624635
0,0727593855672097
0,0566797861135709
0,0616756565170513
0,0887696120651784
0,0548134167581578
0,0676149467421615
0,057418408283058
0,0677285341861959
0,0751061239903249
0,0770428490031126
0,0617829347515904
0,0691109712987005
0,0427141255405667
0,074584289518883
0,097096534624934
0,101298537740791
0,0653390754968751
0,0724475820060675
0,0257646971394483
0,0879735044354196
0,0845690447529647
0,0735931595393079
0,0613814167732335
0,0653864790150982
0,0627214122502494
0,0629400782316621
0,060905134729195
0,064863060502002
0,0333655169445546
0,101900279628179
0,079818547006693
0,0720895043824875
0,0533688167669799
0,0645865637875146
0,0394619608419031
0,103553513023244
0,0906266384374584
0,0757589987846577
0,067803055460727
0,0560135644844459
0,06942767064165
0,0819185906015483
0,0652620079636721
0,0736449152538674
0,0622875557354168
0,0638472029300936
0,0599580046761
0,0644020158675088
0,0583152586344662
0,0662807504142272
0,0582613069870907
0,0642443839565079
0,0598567312462316
0,0762164902872877
0,0652039798010178
0,0642407358471266
0,0589402438408918
0,0594003827695538
0,0612608996435566
0,0814356071590236
0,0663686125662338
0,0730803229801957
0,0556789000571741
0,0630405074814138
0,0592808272591355
0,0651822787589635
0,0580084265156923
0,0614378515627065
0,0467705864170959
0,100755277235239
0,0707467801618002
0,0733659863707204
0,0473240516710705
0,0804795868326437
0,0744028335657643
0,0655227709365622
0,0561409547383342
0,0694555556633791
0,0603845787694943
0,0678577842537114
0,0872206503587007
0,084112257805866
0,0610090064297952
0,080353310077911
0,070987864796416
0,0672370076504309
0,0509052004147365
0,0421138008221203
0,132317420743998
0,0776643770854032
0,0430864115451984
0,12798001508262
0,0819814402993255
0,0884301124284932
0,0629899324979573
0,0280926062255533
0,149081607950828
0,124930915649371
0,0725225899995671
0,0721716583254826
0,0857900243125403
0,0689526617902689
0,0693936166253735
0,0684864565763839
0,0716075019428588
0,0932697825493413
0,0992384227032361
0,130950371868719
0,0585360384505828
0,101102645803696
0,100278299596464
0,0810313318887665
0,077614761128289
0,0830269122307365
0,0704111569941895
0,0918557338921724
0,0857763099083458
0,090980361444157
0,0814361870182015
0,0766051538853235
0,10163756787987
0,0919467568794403
0,0770150950017333
0,0794369583933953
0,0931766219017891
0,0811627945371681
0,080877928612197
0,07955323701713
0,0862273125537634
0,0785138369340507
0,0662548510589697
0,131032463833933
0,0997920054367302
0,0907888110292534
0,118643073175652
0,102116574098144
0,0910696985257394
0,0927079073406555
0,0878400468771579
0,0933269170997047
0,0906419944673745
0,0846715260932397
0,11686199943054
0,10894091752191
0,0913236132051892
0,0991416657203127
0,0975142843561456
0,102541100818743
0,107859962145002
0,114541666188985
0,108803925875045
0,117745266621588
0,100445974146773
0,125743502896957
0,141885438223294
0,104263953027376
0,14232826059053
0,16125418695502
0,128010534762274
0,131499105443496
0,129067523153422
0,139003105754855
0,128242636978843
0,143122175366247
0,130297425041092
0,142510210383652
0,163089034302848
0,156550182683582
0,142976759276436
0,157670737731166
0,180447398521776
0,220703913503749
0,180176800655531
0,168515329248198
0,145345307116477
0,203017259806497
0,19495020111079
0,193170406485306
0,211737046569133
0,189302623927977
0,19897131493037
0,194494786176067
0,199236179161023
0,210973757402367
0,217231378073225
0,215456834936785
0,214947643313927
0,23110454238463
0,231463462587007
0,228909520627166
0,227117929673943
0,285241712743942
0,26458506996037
0,248931088541614
0,250609410202669
0,245829950423652
0,273177945152263
0,297094341243316
0,308767742846295
0,311618616801889
0,296264631370906
0,332319942538665
0,293161722457597
0,300899940194553
0,295216368151842
0,319223787415101
0,308621601718462
0,326603638023927
0,323378138504297
0,318459795846722
0,326235575072792
0,352316482261502
0,342359266576906
0,349786852115533
0,346310055450634
0,377203642444966
0,361186377887378
0,362760798569715
0,347289047536756
0,393587418587203
0,420456418104583
0,431566024543456
0,393083828407511
0,390102758950724
0,394130700178039
0,399445388483361
0,394975312274105
0,407630472465196
0,412482556928439
0,429373519000516
0,445977377587767
0,446474521141877
0,452011336986831
0,463653113717275
0,431541525472285
0,451494785046787
0,459300922162519
0,458744212537518
0,477154237517258
0,490123651958592
0,444666771860681
0,494946902783188
0,507410255859691
0,500675781119373
0,501565694668017
0,492701623259422
0,489990113741359
0,506855636868144
0,506607185709149
0,514525096347042
0,512534219872243
0,529945065602456
0,538536890294685
0,548601149778432
0,530505617548585
0,54081675064269
0,558512799764285
0,558932080499763
0,535566689087806
0,557600263602987
0,562074067388473
0,580484964583918
0,552830012041956
0,593915164209056
0,582950255570987
0,604010757691933
0,601926442134089
0,589538574101406
0,591646638018507
0,601448895048622
0,606653725384308
0,620059996206598
0,621882452131932
0,64421561362651
0,617609805542531
0,643945024541559
0,642021426788574
0,641955217427786
0,634739494496653
0,661962381304524
0,646000566768621
0,682697403406191
0,687359276486197
0,699898479023351
0,68426657525241
0,730758378700622
0,712784269483499
0,691278669604573
0,729372213248443
0,737201788239742
0,704136376494534
0,724715089370302
0,704890827629816
0,723768963677945
0,755569004242157
0,76952551740489
0,746701961381824
0,724339016070862
0,751894229363498
0,825318162887244
0,77880812992118
0,793570388855111
0,7519851794263
0,784186581166101
0,7578535337619
0,790687221766947
0,802294356587096
0,790165050301135
0,785195132779029
0,796174376228288
0,794965544295436
0,837624405277761
0,820674317618198
0,826642902564937
0,831941266153321
0,87546137601649
0,842867668282558
0,865698601962366
0,813082901115469
0,83977439080521
0,847101527236545
0,877205176579107
0,856164089268193
0,902952505686523
0,897629372240533
0,908166728647643
0,921519585262546
0,974023539360848
0,936317885379906
0,950606840826596
0,899779550212214
0,914622379051399
0,91946212981983
0,913192630651576
0,916311845277987
0,989226167358941
0,928194154450301
0,910967070318247
0,929325420679852
0,96711473064241
0,979846809497965
1,02697121736544
0,933194703638717
0,939597436063615
0,959712001500427
1,01915663037277
0,961091549647336
1,02085420638809
1,03847562144439
1,05626281045772
1,05229560295861
1,06677606486329
1,09076892726682
1,09582131848821
0,958040221961205
0,996692102961282
0,979322288285256
1,13065558299786
1,03967336754195
1,08887257410849
1,09714375909644
1,07561982025403
1,08644126312959
1,18706077355948
1,06119084540783
1,13348811880453
1,10883519609929
1,11908622133442
1,15869618288895
1,15102349226536
1,12754815472125
1,12501541339133
1,10620514742088
1,18439580011485
1,16966115503147
1,13937354711599
1,09637339955871
1,16905750267694
1,16473944220775
1,18872108510602
1,10294725732083
1,15533032242563
1,2184909026449
1,21702659929711
1,14483617611037
1,25578445578038
1,23402731627504
1,18628467173986
1,15193163495733
1,17874914678236
1,12419148842951
1,1647356721493
1,16957826782706
1,28207033600555
1,23539049280652
1,23220705065171
1,35231874378898
1,44767096944692
1,28291223286724
1,33846535139565
1,32311115492226
1,20522683004549
1,26666021515528
1,35493608156927
1,24323068274279
1,30193469678435
1,27080901929004
1,33050905577675
1,31509355409323
1,41718964438838
1,37322555467648
1,3597764114283
1,34550351382343
1,37578760863533
1,24156077763064
1,32381018199858
1,38022408773003
1,37993228147401
1,27246700592051
1,3365805538876
1,38858931367313
1,40122741683552
1,40475155811945
1,37934485284044
1,40334890433614
1,41687577300002
1,2756627929627
1,33592099071049
1,49582749524041
1,51560418271454
1,33009210826392
1,57790956407975
1,49201877744854
1,42028972120282
1,35779859577865
1,55580852792922
1,49518142523528
1,57848766620247
1,4725834244077
1,38412046169844
1,40429596438063
1,53356176964584
1,5235732181015
1,59510339956987
1,51482722490251
1,51853276803606
1,68337390347605
1,69478045266753
1,6162925759447
1,77324687371818
1,46106732870319
1,4275065285295
1,45092553516436
1,53635316739445
1,62215319999618
1,50868188287408
1,39275063048214
1,4826639060038
1,56993322358845
1,59536541239435
1,48943327367719
1,43375809508377
1,60772708924675
1,47515215491413
1,46452549949795
1,65931031339716
1,42470308018111
1,57781999142323
1,53579436777848
1,54905299711406
1,56571386436799
1,54078151883531
1,56439515452578
1,82165648612627
1,69413341678718
1,577108563377
1,65334739690566
1,84963498019236
1,74272032826236
1,71708457113032
1,59079379304621
1,58968294185345
1,59515429325896
1,63641404919937
1,780958467422
1,80406629860861
1,73771346801962
1,70277500744766
1,6234108643067
1,43062318131607
1,43867829695099
1,8118556538367
1,56905298734664
1,61253541383343
1,78211204953237
1,66524275217289
1,67836486488453
1,53999823947504
1,54723918574546
2,14526085625539
1,7767356187794
1,63081779334627
1,91162284269114
1,8012003226733
1,86547570599205
2,03312681139573
1,67130995225122
1,6827343090111
1,67511278190175
1,7046950756038
1,61635345012747
1,53165623718511
1,72068590634083
1,64255398208026
1,57554278699345
1,92071369384268
1,5895871155692
1,56007392491595
1,83213259224098
1,90901735447924
1,69381135639753
1,61076573837673
1,76118061420676
1,71651000683851
1,68928809942161
1,56720221525609
1,7498322930011
1,97021542505799
1,72173433765245
1,64721631105726
1,6995579613945
1,90416981322812
1,84241921279457
1,64439507310658
1,71737005962553
1,7721721486685
1,9406291141947
1,96389674567012
1,5813736940259
1,5593239713692
1,56788942955649
1,70462397613518
1,66750996473803
1,6720826859003
1,86756903987966
2,00422508193368
1,95259022505739
1,83174259124243
1,73871805348728
1,7423344577247
1,77217479375315
1,70093260838239
1,61600927042224
1,71725361313772
1,64733188904294
1,53479286558033
1,66827662189102
1,80380021392392
1,79650795106102
1,70417239552387
1,80545101856703
1,93318518031706
1,78845871754741
1,6501934859167
1,84939029909544
1,69570036724362
1,56442689436944
1,50082000417612
1,5975160987552
1,72376760603914
1,57241646595818
1,65938939661973
1,77990177038096
1,57745945054295
1,66952549388341
1,63447135404946
1,55961688908366
1,90236114342122
1,82116116745813
1,71478727862661
1,78313216404906
1,58552169032978
1,62412539767234
1,69183471433468
1,65856513834088
1,66223904627676
1,74571229224471
1,69131915863741
1,8891996886624
1,77723053601818
1,58227507574562
1,70601852539665
1,88965661359794
1,73563108958923
1,62030704707074
1,75080391058931
1,77625835079039
1,76127888312315
1,73089113988277
1,6853631562761
1,70658173245985
1,61877236402784
1,60961796503464
1,58118667258924
1,71720507738685
1,60023861378812
1,63564499943504
1,94118726026206
1,70330793986796
1,68413582978266
1,75289910745161
1,73390052877662
1,62235047211279
1,65698477761479
1,87979895657865
1,69661756326693
1,78788549620608
1,82499645248066
1,6336390496408
1,63153687821964
1,81069711581271
1,73089968883994
1,85756853608336
1,67849449267654
1,6475212928677
1,67987672675968
1,50677984974379
1,5126680989601
1,9470222721994
1,63393876747282
1,73789576094608
1,7540991708436
1,6199632720746
1,72720014084611
1,86882033539374
1,86756972312753
1,84645873864998
1,59251965417716
1,63095645195412
1,76031344171437
1,6286396233907
1,53759605637439
1,64959191744143
1,75237132983994
1,61228471507348
1,64008872691305
1,72978743026666
1,62631382671894
1,6899188616782
1,60276613398628
1,55493179208573
1,51558206277365
1,69943440874645
1,75563262644721
1,62353129929351
1,61401007983835
1,8454902829906
1,67765964671961
1,70802367808555
1,76132909714176
1,7700042282509
1,75602780580091
1,87189246485458
1,62735405234602
1,83498168325863
1,86917616662576
1,64558710797313
1,76210892339006
1,73344084769929
1,5823053694327
1,60380745620843
1,5461727855937
1,4638455725082
1,56621746272676
1,53173539070273
1,4895121830067
1,63795275859105
1,49088050647868
1,56575759715777
1,50582838375117
1,55395692885808
1,55465075187783
1,64977487010153
1,45414474265845
1,48474248386435
1,56630226519546
1,49193799219162
1,55919195634782
1,58741460258108
1,54521695317789
1,50037812638033
1,42850070276276
1,5053678154073
1,50840652637971
1,51951531703846
1,39090426166524
1,46089725376082
1,51770777732594
1,55985721943348
1,54858418321974
1,55821674251551
1,42152558699517
1,40217859881278
1,42232250121628
1,4302620331641
1,40026683286055
1,36312172719523
1,37070920249228
1,54029731293155
1,38722499540255
1,39378388996857
1,50031545226601
1,42861719292704
1,35006074669543
1,38017846574802
1,35915834775013
1,40185410630529
1,38493693707325
1,40520554432188
1,36961383556419
1,39562690848117
1,4265662768464
1,42294681575533
1,29520847327883
1,35655795871276
1,33513674314488
1,32699343177464
1,30090943737773
1,32451643796121
1,2774093426845
1,26630555380856
1,27500087808003
1,27374987085856
1,30943835024407
1,31601746564577
1,23445731325968
1,24422214785458
1,22437100230252
1,27135104764115
1,24233346740729
1,2214601573374
1,19892705587431
1,21615312916086
1,17952777140866
1,17269091081333
1,14576204442153
1,21749594712209
1,16864746575263
1,16218093600224
1,15618849792158
1,21962492367404
1,10803278734866
1,13303211787462
1,19688409073308
1,17410850326616
1,09478724851746
1,16228103116005
1,13234648450193
1,14550379616718
1,10252953865953
1,10224918919396
1,1040751665755
1,08481864423089
1,05751463661227
1,11241208081282
1,08269386390595
1,08043322109185
1,06602369323081
1,03606552226115
1,03151762206397
1,07251066130711
1,06857437233373
1,04377849336213
1,02945653191626
1,0503344357872
1,02163246230775
1,02798543067382
1,01230920982607
1,01107970880305
0,971977076199967
0,977818583118338
0,976303622402692
0,982182983425095
0,977737207273088
0,976454888694401
0,963578075901467
0,946641952553841
0,947988904687758
0,953798457049783
0,928044851379591
0,929355004915344
0,914409394407061
0,957838798191364
0,920136832688426
0,934123003966176
0,897508366650298
0,889421672798211
0,868449502309364
0,904949397207863
0,880209036460016
0,881430221846918
0,874593065905334
0,890880705095973
0,887828394378718
0,84769398335411
0,848073983139109
0,861513429329522
0,826906172508802
0,829864036473737
0,826733313162549
0,84202956598022
0,811948197039808
0,807343306521025
0,797275314958894
0,818948635445409
0,805797634342113
0,79821618820452
0,791125914001774
0,791197469590114
0,780227285035374
0,781622930103538
0,774646261216997
0,773915282997735
0,77158852591069
0,771583021161878
0,743401997264709
0,766611879065535
0,744456970675347
0,733755346275046
0,728027530622111
0,747577069062762
0,728609235930013
0,730338413158806
0,714823298998395
0,720604377859822
0,710732170480991
0,713898190619344
0,704528504889592
0,714843230995014
0,686661553973964
0,697411389283618
0,684897612238322
0,676558561514071
0,67888050568492
0,678502187888903
0,660889835253965
0,682511793010953
0,655202061919298
0,665364882295804
0,641316315972102
0,641133295683925
0,633018087284238
0,65059131379349
0,642186456154809
0,632093445939225
0,624562260366508
0,626895695342303
0,612796754315458
0,621199612176384
0,608613726960353
0,622072638751197
0,607707119394225
0,602128685053708
0,584507583706055
0,601255922165079
0,604785574122898
0,59435506717132
0,569955414634933
0,564486807473684
0,563887998650977
0,581295633086957
0,557788180076135
0,566417015343215
0,557029344406054
0,560125604478216
0,558927743397386
0,554292765678094
0,548046938018131
0,538989930011569
0,528643086960113
0,542374287858448
0,53916564090194
0,532372481481945
0,526657786662557
0,540922469813452
0,522911431955033
0,523306313601559
0,517758605269508
0,517842242391551
0,504523832163773
0,516694421015736
0,50158046754951
0,495852775777229
0,497710040475783
0,500739077613005
0,490584094484473
0,492790274836753
0,48293145844598
0,481854445368039
0,479552618386997
0,485172854185824
0,48195436273428
0,484850744087929
0,464042786956609
0,465253993500161
0,471686122467527
0,484269215091202
0,461328841223819
0,461405914162804
0,464332355486555
0,476808439641788
0,458376052321648
0,46178677227005
0,460544268431243
0,46367913010583
0,450650403601208
0,451446615932883
0,450313736320633
0,456213855028435
0,445569158399151
0,456128602461388
0,44920085133043
0,446270015212678
0,438299808286177
0,447780266937098
0,441215372958209
0,446428851062801
0,437262696104729
0,446309056625075
0,432081345977072
0,438849048112791
0,434620690025674
0,436121795970847
0,432459924857075
0,43607002127885
0,425320977076345
0,434884092951111
0,427271348161488
0,425678587097276
0,417564265032676
0,430162800973732
0,41994812013081
0,433893919260581
0,417395900989959
0,427675267022373
0,419168379835574
0,416137741560048
0,418312738613345
0,424768280405797
0,421271416491665
0,425027747335814
0,424270464160194
0,419800594018811
0,415272466122607
0,4283718365235
0,416219294311853
0,431243686820894
0,426451222719444
0,429303838630775
0,420926810243549
0,426503940869861
0,415336391536258
0,420225869675507
0,423399169580007
0,423549556190297
0,411468831238808
0,422150521430647
0,422731813445551
0,427630895171803
0,41296969244562
0,421778822708311
0,410973084277564
0,412983074090183
0,402220390217803
0,406166287710573
0,39506107990264
0,407235610604607
0,399662204653137
0,409709835177586
0,399604557685943
0,404974844302349
0,395832719854501
0,392426822372948
0,387941478468014
0,391924916663062
0,379648840157161
0,393082893277578
0,39272732124193
0,392067743431728
0,38692335061273
0,394603999076636
0,38368162781999
0,389649373068088
0,377890762146988
0,383918289133905
0,38177322261988
0,377751332748397
0,373047593303238
0,381963603810309
0,377717627228191
0,380731460787938
0,376880430586634
0,379048669437006
0,370862600269801
0,377622403902195
0,375709574937223
0,377169707639281
0,366994638173225
0,376995446006861
0,376060626668439
0,382987323085502
0,369138912403851
0,369031619268279
0,370467921160453
0,379468499482716
0,364658531403446
0,368278611456293
0,357902284407103
0,366944770719045
0,359525306685425
0,362594792803504
0,360449829908025
0,35923813181189
0,36211982281303
0,361978964381528
0,350289264905478
0,35772638601699
0,346596983368216
0,352665125565484
0,344824344494911
0,354102373207587
0,343601834574424
0,348975575591788
0,344063627634912
0,344036437404681
0,339447413473563
0,342933480321262
0,333256048260943
0,339224545599253
0,32769448072286
0,328515433544252
0,327889610195306
0,329693281440493
0,321006858609806
0,326140848845199
0,321918421899699
0,319782530383903
0,30879769996528
0,317654022141058
0,306258691168358
0,304336424116021
0,300847231733657
0,308890357582751
0,299900845627341
0,300654568908273
0,293881428794775
0,299014449827345
0,285344587941355
0,294231099568615
0,28932716182637
0,287166874691491
0,286750317529292
0,286836350304527
0,285612700042009
0,288450464643828
0,281346920371238
0,283407605833584
0,27513778351137
0,274535211752157
0,268055573438805
0,27605307760068
0,269755883725806
0,273709077619112
0,262901169839557
0,260794168398192
0,25861444784417
0,268465570168544
0,259916319344387
0,261171077427563
0,260409894713992
0,26348581187314
0,251027882943163
0,256732627648615
0,24626090402291
0,252018501251381
0,246716643484773
0,247599734144305
0,247430422939582
0,244911257867818
0,241961671740708
0,246136252733696
0,239581041802644
0,243858522008655
0,23850316957322
0,241252505510991
0,236044320919838
0,244655654171757
0,234712099236714
0,242242824016456
0,229697828297759
0,236192681642836
0,226618018857812
0,232569206106402
0,22609261398205
0,231657069549182
0,223890568301006
0,230088733703334
0,224244152600996
0,225452161594803
0,220067577883352
0,223119920419318
0,216737669418978
0,223099759084886
0,21851286530985
0,22331744343555
0,215146389133441
0,214964457120383
0,210507915576974
0,21725515715017
0,211526975301685
0,214158671442729
0,207973209306952
0,212307669052964
0,203980955986219
0,205619280701727
0,20678734070084
0,209380892584939
0,205134385120558
0,211179975041403
0,205712055910962
0,20623095894064
0,206864579880202
0,208694722731927
0,20259054798112
0,201686880917706
0,19351246200997
0,204324035592949
0,197070392904463
0,201460570118288
0,193692402438281
0,201861175338687
0,193754294123083
0,197439874875163
0,19194547898529
0,194791672519433
0,188258329543108
0,192999077210037
0,18805807591219
0,190269139877341
0,188112400867904
0,191378670763251
0,187104944624785
0,190867446710466
0,186931825771105
0,189619914711366
0,181575720663992
0,187704686995888
0,18233331713933
0,180475403265339
0,179494413872006
0,18733540837774
0,178117796541929
0,182449662050647
0,177959864391262
0,178815700603555
0,177918046438446
0,183895044219048
0,176739912434081
0,178748755277352
0,177557217766545
0,179354949999773
0,172390145032297
0,176438150184347
0,173883289030585
0,177817870657141
0,172833538080701
0,177108335709863
0,170329895181121
0,174865704135495
0,172934547544087
0,173205282974838
0,167530535726375
0,176049703068594
0,170100917497521
0,175679157312062
0,16732299903054
0,172077800372771
0,1646374152512
0,175715569959221
0,17051032482531
0,171610947773544
0,164680721989818
0,169209884826407
0,164300771170589
0,166042885114988
0,160667779718453
0,165324434098661
0,163719084351072
0,167344378924846
0,16200495446514
0,161982888511131
0,159635909793731
0,163455376184971
0,159157717928162
0,166542093168387
0,160444002176329
0,16698708234852
0,160280687202172
0,162308268632248
0,156985544977264
0,159573721427002
0,156223727135902
0,161925546687817
0,15388629512007
0,158437710702949
0,152551192910625
0,157085341578992
0,153503344186797
0,157323392209217
0,149933420256015
0,154317781899064
0,150949920741852
0,154141417229482
0,154508624969692
0,156218046347231
0,148647775541071
0,156238361030451
0,147678356823195
0,152165657361135
0,146804798757687
0,151438841001302
0,145491240575568
0,147235711182292
0,143266148339514
0,147713193095588
0,143417380547666
0,149238611150996
0,142516308513532
0,144699604655272
0,143479111088363
0,146994359778504
0,140208633695017
0,149119614250929
0,142977537469478
0,139308236003617
0,141360309140146
0,143218476263586
0,138485318648199
0,140021424544927
0,137400564277738
0,140113062926514
0,133404338407789
0,139312937960732
0,136563836502365
0,135439963756142
0,134559552157907
0,138402435913774
0,132909863795451
0,138360936358188
0,136019003394996
0,138665011167312
0,128246582642495
0,134375981415797
0,132396660134397
0,135327013819884
0,13076204176738
0,130365486541162
0,127450248979408
0,131127538420631
0,125973233507734
0,132382386217632
0,125116086779864
0,128345005504852
0,12616418849198
0,128804475612866
0,123811310501926
0,126535902408384
0,121231730853243
0,12975681769922
0,119895757663831
0,124437448428763
0,120475623836923
0,123271733355099
0,120723129713417
0,124991129298792
0,120148270646768
0,123728975414768
0,118903292907477
0,123689517859032
0,116856336276775
0,118836836142392
0,113289406314454
0,120643063265804
0,1162365206773
0,119908591913567
0,114787212041352
0,120202460022843
0,113790005368089
0,120908392722109
0,11438302595737
0,119793759314675
0,115667052650127
0,11898952418351
0,114045215875451
0,116501811039579
0,111952208765057
0,116690194850179
0,110163116084984
0,116307969276382
0,10998648556003
0,113773504857973
0,110778276495681
0,116350888496482
0,112411308096736
0,115111672220807
0,106706372267777
0,114232380916205
0,110830205225342
0,112284354367158
0,10853668692448
0,113950690891106
0,10749611042331
0,113746207845617
0,106010141225196
0,116562573572807
0,106667411357081
0,112086701054563
0,107580814283652
0,112701832815223
0,108616211822309
0,113288766335611
0,106501905639895
0,11127411500008
0,105223690017658
0,109161970267676
0,107013336154709
0,109986738234923
0,10541788726779
0,113024596844101
0,106616050709624
0,110259722061752
0,101783119965387
0,110267929258008
0,105153064726214
0,108784805080191
0,105386382941634
0,106222202870207
0,100191197845061
0,110726852924575
0,103051452880105
0,109621655072021
0,103987602116355
0,110204547541965
0,100266885095401
0,107221523052543
0,106177426981448
0,10623160174422
0,103783957943926
0,106984543946007
0,104314294641399
0,106702773431494
0,101811514756282
0,10883921519236
0,10332016190984
0,107472513635164
0,102917460518045
0,108019605242337
0,103193697281333
0,106560521681942
0,102857933868433
0,109124256037446
0,100680370149572
0,102660990317772
0,101216599220247
0,105973839845142
0,101527516129753
0,105782028424675
0,101211159906667
0,106492916417451
0,100697931926375
0,105951108701402
0,101358996010058
0,105000989878833
0,0996292563659172
0,105332080939273
0,100938985499567
0,105418605750201
0,10027439359777
0,103572534101272
0,102137453919832
0,104827122819834
0,099526052373539
0,105147324626673
0,0994618892110295
0,10482799317955
0,0987728321448875
0,105716398771852
0,100828139155606
0,104304219737119
0,100505937620037
0,103407169188636
0,102617233916977
0,106290640867438
0,0985705835480513
0,106327109724341
0,101626189367312
0,104685515969405
0,0985170923224676
0,104898434357972
0,0959682736656832
0,101684467178855
0,094498758655328
0,104390652734262
0,0994268332912807
0,102830099003999
0,0984839211298741
0,101627341508315
0,0955564424434341
0,103449381635998
0,0972785366603711
0,102031491991614
0,0989589384612648
0,101812343554107
0,10068812167031
0,100234752284358
0,0971684333650016
0,104162964458379
0,0987672114212981
0,103419825940457
0,0989828612099113
0,103236995341588
0,0985151556268488
0,100872592444593
0,0986276951168981
0,102302527150633
0,0972965869502081
0,105320092745851
0,0986112381673608
0,100798998755662
0,0980553515742749
0,104134563823212
0,0979860431901048
0,101308054942924
0,0962127677469494
0,102714859305113
0,0960600044811047
0,103507119634269
0,100091275129872
0,10083754076445
0,0982183839307371
0,10149530185489
0,0954609577780116
0,103494915100513
0,0975445409515022
0,0986569642351819
0,0966125198647492
0,100364881152382
0,0978354114429733
0,10259922821095
0,0959259114943219
0,101050880174524
0,0974905998537842
0,100171636342249
0,0959955309940337
0,100518593587748
0,0959616862535266
0,100177471677009
0,0966025294093067
0,0971329373026574
0,0951153959891603
0,102384739477428
0,0954620367649775
0,098590375413816
0,0939392021671263
0,103459750622172
0,0954138131564687
0,0989708821610722
0,0938554215915321
0,102704322303541
0,0961193524966208
0,0988108890226356
0,0956303200048512
0,0983299008469457
0,096371037666503
0,101460866416691
0,0941348454152051
0,0992194855459185
0,0948629430264858
0,101031248814339
0,0960471088412363
0,100351249837983
0,09698795427492
0,101279546029824
0,0959419825776265
0,101112515478278
0,0970206132289133
0,0986674223129397
0,0944987110771993
0,102345898773418
0,0952487118032492
0,102481912281803
0,0949479839938229
0,101323395219221
0,0952906463900327
0,10032372623274
0,0945444256081681
0,10200922471781
0,0963692709181528
0,0999234430641158
0,0944183446106041
0,0995095509638679
0,096047464292594
0,100337881394729
0,0967891080969176
0,100794563663527
0,0964347682410911
0,10089012540255
0,0963345070087103
0,102427643909098
0,0943279579377128
0,0985465184818156
0,0958781666740879
0,101935736242168
0,095287594901708
0,100728826267286
0,0956807849731688
0,101845586655511
0,0974020862684617
0,10027906748821
0,0964942584966297
0,100129488468387
0,0952954465708347
0,100392551143757
0,0966711598571472
0,102462385479357
0,0934368564649859
0,100777397596299
0,0943234567664557
0,102447368180381
0,0958172372847204
0,103063347924144
0,0976162967757402
0,10236634901934
0,0951986049587468
0,102653087061765
0,0977176830486003
0,101848375428513
0,0948092923003243
0,102255549245814
0,0964706740962633
0,103616979272974
0,09786349803658
0,102865184667122
0,097889972156164
0,104958230645351
0,09793377387923
0,104152661606764
0,0956726286295765
0,104619244895295
0,0988264507774653
0,103913017040098
0,0991923626704005
0,111100841991674
0,0986260406984197
0,109156779531025
0,101844395182031
0,112187714764835
0,0998559512775287
0,111998231319906
0,103187337467539
0,115024806841335
0,107889654064174
0,122069937111919
0,100512312802775
0,107053200191991
0,0977031332547096
0,117812531154517
0,107212845902316
0,11581917102881
0,0975322414093563
0,120033943319201
0,103003675086647
0,111916574207508
0,104022318450638
0,112732678156333
0,108067626090811
0,117004837722057
0,096602281896924
0,123857082578006
0,0976679871692048
0,124256735881309
0,0989898258806621
0,114547518350868
0,105287692202787
0,116663481363557
0,0935050025046459
0,116682777260639
0,0971201478357908
0,116826001968667
0,0965992530568837
0,125950119620338
0,0933316715036362
0,125389926699939
0,0947025101388086
0,125831255397686
0,0890962560713009
0,12534088956544
0,0923199680837815
0,134363907654345
0,0959079391236639
0,136322754282707
0,0885846350948771
0,132912135428841
0,0841419894559988
0,137143129432262
0,0927332382290857
0,152880009349557
0,0863319945747489
0,135001545847876
0,0845517001844867
0,148654081612143
0,0966002527862941
0,136621770782221
0,0942468949522194
0,142000763763056
0,110095205093878
0,116004107123319
0,111765250345422
0,117921190578563
0,124836863135197
0,0999582590300926
0,131728269055258
0,0945516178570262
0,135183888319973
0,0998743293589548
0,135401723594467
0,102520030553152
0,130587532836517
0,108195026395939
0,118448825631931
0,114959878291641
0,114472436194311
0,120179916263422
0,111015078998876
0,117501020817246
0,114593667344636
0,117299748293131
0,120314358104732
0,113865378978672
0,119040283150753
0,115092451488873
0,116815433599876
0,113047200430038
0,115976715798382
0,11812247996772
0,116407632498105
0,11773826149013
0,118193323234046
0,117039826452056
0,117750686187341
0,117971786121243
0,118464058713361
0,115823656134983
0,116185072351656
0,11892849538754
0,116848368958274
0,118029399736884
0,118613932413771
0,121084289022844
0,121424471109042
0,118752173766752
0,120958819860132
0,117906142789939
0,120943014358925
0,11904037724394
0,120683005935153
0,123557580870477
0,122336569569059
0,121997933879242
0,123002605647571
0,121355368499877
0,120406505066898
0,125718112040081
0,123653365568807
0,124178964086936
0,12263252429272
0,125075296094693
0,124472664482538
0,125720146093888
0,122520388385242
0,124505372519052
0,124933515063921
0,125893310647171
0,125535057393869
0,125266985474213
0,12645703875654
0,12699204327113
0,124726036911539
0,1286602130079
0,12786773716082
0,127484112598191
0,127067755561541
0,128940058254833
0,1281061372768
0,130386078954382
0,131171890847717
0,131499272718436
0,127337391953951
0,126486250951481
0,129152057211943
0,129615741060549
0,127658269879269
0,130370479905953
0,132052917123064
0,133230141595843
0,13069591365556
0,135268904111676
0,132378236688534
0,131809431867442
0,128300032764864
0,131987302492838
0,133549264446135
0,135301979269789
0,130615298559081
0,135584493623773
0,134536079690983
0,135707269968625
0,136472910177917
0,134898764492447
0,135286506142523
0,135661695603304
0,134129263816389
0,136543668006158
0,138135790434348
0,138484439071916
0,135707953415574
0,139290544412908
0,137617808495771
0,140659694656262
0,135601466797489
0,140210106862113
0,138088886307494
0,139742408528176
0,136513576624312
0,13988817825899
0,139810220439668
0,141987027835593
0,141553645991547
0,142805449577762
0,141502769658355
0,141855697633485
0,141630711489895
0,143958040786412
0,139744245954221
0,143382139764115
0,143751618326049
0,144362749946753
0,144577294991139
0,146474633495181
0,144453042682717
0,146157436777909
0,143618087067791
0,146202723101579
0,142847032040707
0,149705216119896
0,14588596586777
0,146508907968594
0,145301005771896
0,146700427618866
0,144745877354914
0,150107082036506
0,146016239796274
0,147563276067856
0,143655624499801
0,147739855421412
0,146341562629998
0,150396302910926
0,147701486027515
0,148785418619898
0,148378348904843
0,148885289111461
0,148374343661521
0,150381532891364
0,147941590793529
0,151650571897062
0,15012542985019
0,152242043107121
0,147623753172367
0,151241494750089
0,149372451530906
0,149933326605523
0,150185435257346
0,153704732292105
0,14926455668857
0,15501874112167
0,152248418399154
0,15530539622587
0,152603404783562
0,152962551302291
0,154955682776155
0,157084744578522
0,152711878689981
0,156769722053544
0,153227385798177
0,157434637546156
0,154871483305126
0,154432281235565
0,155523422732436
0,159781294035231
0,1530972458793
0,15663469645706
0,155593682933032
0,157014638760437
0,154629971433487
0,155466961581615
0,153664148022668
0,158360081667168
0,151349670749584
0,158155541872791
0,152864703231871
0,154723752841995
0,1533815834096
0,160125567088146
0,156894850614106
0,156192302492691
0,155960598743517
0,157760816656855
0,155244052660484
0,157439245075073
0,154459698578965
0,156858413785523
0,154356362236164
0,158415575424462
0,154627567140433
0,157673596778156
0,155564052456261
0,157345703980518
0,156513611854903
0,156178707804307
0,154504389175262
0,157808976306042
0,155150470797545
0,15686728975242
0,153883917419978
0,157473996828128
0,153737098032546
0,156558113261308
0,155454450932331
0,154568696565419
0,154625394119819
0,154637474152946
0,154130763664212
0,159340055532655
0,155449021202442
0,156854876068674
0,155277795074778
0,156477519293015
0,154834836206084
0,155258331225683
0,152968274888819
0,156902651874698
0,152743991952802
0,155597097407479
0,152499896654537
0,159064828624597
0,1507492935627
0,155179609151728
0,151184453833608
0,156459058334374
0,150999901084099
0,154706899801856
0,151797427351313
0,154484747660103
0,153385064861596
0,153745094189692
0,150721703336926
0,154055668548248
0,15000381081074
0,153380378330833
0,14943864107782
0,153741220095264
0,149902672862029
0,155593258645013
0,151026016327167
0,152549073777247
0,148904561259749
0,153844955634531
0,148588527187006
0,149692927847152
0,148472837457792
0,151725424499845
0,148297591957627
0,151691386824459
0,145693248168214
0,148925224240365
0,147503226089596
0,150047672241675
0,145214981131641
0,149546946389378
0,14864867984533
0,150830245990945
0,145254791099548
0,147791514389583
0,146178325070465
0,149455305586804
0,143141329191877
0,147379302973176
0,14180450729745
0,147005504086713
0,145092094165256
0,14875665737821
0,143075642730344
0,14605584724899
0,142985437963866
0,145977895530943
0,143652471242039
0,146708127098322
0,142264271246018
0,144282484951326
0,139068160819624
0,143679271837608
0,139283225889596
0,144793888467889
0,138704666968199
0,140912477382978
0,141782655870311
0,141303252013496
0,139569438242804
0,142262660899051
0,138826178207084
0,141281078220713
0,137568927640104
0,139060805579135
0,137930503080882
0,139093960883978
0,138589298012112
0,140739334641457
0,135511669792916
0,136637342040154
0,133469012041971
0,138723114577308
0,133743461679417
0,138081037938868
0,135207015436565
0,134682016824431
0,131884800599271
0,131189720528012
0,133940365283169
0,133051468099097
0,133339419854969
0,131216508253195
0,13662427877525
0,135793346764858
0,130381691036085
0,131173122703351
0,12989398842565
0,133844226478482
0,12852014722386
0,131723208737857
0,126308287022804
0,1298145904352
0,126444073207954
0,129264086037477
0,126002933102866
0,127192893617985
0,126496078230669
0,125866961251774
0,125571803466935
0,128433494232697
0,124468172507583
0,128396147489949
0,124276706426401
0,12458544520885
0,123515445595966
0,123646442218388
0,122602808642292
0,123161909554899
0,116726847485304
0,132274716227866
0,11776687433234
0,12368468554411
0,12177844379107
0,126978408195436
0,117776342772094
0,121266432604555
0,119341121804
0,12484536042433
0,118158213302141
0,122223657293609
0,118869656491585
0,12289345168806
0,119476646348695
0,121490192277689
0,117523078124095
0,119933858798251
0,118802155121592
0,119604995715334
0,113453573198832
0,119018648564533
0,114599545169812
0,118015455209799
0,115317315047519
0,118305591788385
0,111898031670611
0,122654012158327
0,117342516154131
0,117962337421992
0,113349394124864
0,114566506223805
0,112050552453908
0,11333126350901
0,112248527437338
0,114115762865659
0,111573834728697
0,115159157052732
0,113007421680418
0,113828106137878
0,110226682382985
0,114495135072124
0,108950707148677
0,113283370960138
0,109358734011856
0,112025436397101
0,109468610857002
0,109675123289476
0,106237868782463
0,110655922615947
0,105973434887515
0,113839926315831
0,109043331155455
0,105387732197407
0,125523337905603
0,108144666556582
0,110161558606605
0,110257556941231
0,10810037855656
0,110139415112912
0,110109419970208
0,108826379208854
0,108641621640197
0,107497281300731
0,108470047447964
0,108502430859194
0,107299607277933
0,107315505615113
0,106641311730123
0,109415321298931
0,104741091699559
0,106766718985014
0,107020067880977
0,108480693840613
0,1070096205273
0,114949456581059
0,112133527787595
0,104351356658853
0,112295162753782
0,0933587968241138
0,117171057997157
0,114988158885551
0,0991814880905364
0,109200561024415
0,101198375072803
0,107682570526236
0,102683464413825
0,108930065047967
0,100624441064379
0,114746809606302
0,100238970991692
0,111468242302252
0,100278533128978
0,106751701231441
0,101853528932271
0,107086622721071
0,100240021398079
0,106661009122734
0,102096097879262
0,10394302468349
0,102408690204183
0,101507760319913
0,101168705441453
0,104932391012147
0,101005124163773
0,111525900188631
0,10011658450191
0,107616172243876
0,0997448388821568
0,103060218733546
0,0964532800495339
0,12478846964311
0,0978055733447242
0,111514647691973
0,0987806689882247
0,105238692288084
0,100773683961028
0,105968091932736
0,100959495897119
0,103595471358442
0,0989157989276685
0,105861337883248
0,10325920719364
0,101530463478366
0,101744121158778
0,103682642503557
0,100548056247133
0,103213676311119
0,101234531824155
0,102228075937481
0,106388047939352
0,10010249515781
0,100950028793172
0,125061257133176
0,100376794166953
0,115172830107895
0,103031978948987
0,109705629381602
0,0987036922695683
0,107884547649057
0,0967429964490557
0,109357590728574
0,096545021601013
0,107213052531831
0,0991271403258803
0,109793377064837
0,0990079107427874
0,110175029800908
0,0975545384606811
0,111050738792084
0,0973660413442206
0,112698719592551
0,0964258460143198
0,114629495154971
0,095428077058026
0,115286274643483
0,0999588840614602
0,114991447891735
0,0916418849679974
0,119419720496478
0,133491121303078
0,100047515204593
0,117194817039262
0,0990456317277133
0,109607995338548
0,104175947733425
0,102326919204636
0,109427839523906
0,105097151730384
0,104271932375881
0,106923835878141
0,10653644740367
0,112268550058059
0,104294827758464
0,0957169427757505
0,132613827518682
0,111232928244079
0,108146430718442
0,111548066700246
0,0967678963910202
0,128073196013774
0,110541469719912
0,1116869226913
0,11092778212107
0,106363839268543
0,111218462561182
0,106668996407816
0,112258395415603
0,10947577018699
0,118007283153721
0,105988579259509
0,115626682422982
0,10418180444137
0,116296411139102
0,111256367908772
0,115892013457021
0,123179516025694
0,111247909320307
0,114185131251507
0,118877825450591
0,109380597748716
0,117126163135489
0,11172663999208
0,112013890325705
0,113824258837364
0,129781251882439
0,109791058450297
0,125645316285734
0,125169553785416
0,113934091222427
0,119014494311333
0,121294733070325
0,117991025925408
0,121576837184019
0,0993237925005985
0,164042791158202
0,104982111421015
0,151051543487857
0,112728506276288
0,135172261645834
0,113851657738845
0,130810003292541
0,106261387827944
0,135196495193669
0,121564635037635
0,127110333210641
0,123560197551285
0,126587136219434
0,137572879845193
0,124897706493477
0,130536429569075
0,125713456968984
0,126121122024707
0,132372074094528
0,139325996203115
0,111408246532426
0,153308107618339
0,155374961211763
0,140316772256434
0,147378328989332
0,11283114717597
0,175620949101911
0,137918447134087
0,140436349453559
0,135568328662006
0,13777389741448
0,142798418941665
0,123037645396648
0,163856808649526
0,154109508518133
0,133154002329145
0,154849767448581
0,127180866471636
0,162659226701177
0,156820814066476
0,149203900593256
0,142975678370588
0,160299440069901
0,136811225246376
0,171582069164854
0,182655569910121
0,141056134608721
0,189524693564936
0,155244300566021
0,179472449383161
0,15829726783801
0,169021280260131
0,160741454403829
0,186932319817284
0,171281169499231
0,166344662356924
0,164459696856638
0,214798532146166
0,15954035326668
0,18669011907411
0,177392982644993
0,170075557776024
0,193073879028569
0,238403596747183
0,20672899311863
0,196680845030098
0,180951168062976
0,218189008842019
0,19902365766677
0,198130959477057
0,205664301626549
0,202688817676342
0,211839181126339
0,20757313792053
0,221938092460513
0,220970836454219
0,213116220351091
0,230563533223755
0,210104863113826
0,243113858966375
0,249908190499212
0,28703366963956
0,228508672367984
0,282754129036132
0,273813367220141
0,255663408476672
0,260100342861514
0,252902120161311
0,274183645048983
0,272469845391618
0,278454625040198
0,27268493996132
0,293948261785858
0,313042641991439
0,274277317212803
0,340013948040555
0,293133494272509
0,322373887518945
0,256038071308245
0,495016961146122
0,35774476970624
0,336021809819223
0,360195348465851
0,304957027900427
0,457496503645477
0,369295177195693
0,373447418147592
0,386978499325249
0,389166900448127
0,384506318642193
0,412090887350138
0,412552409078457
0,434008778286149
0,431237945964026
0,426447813451544
0,421629351335589
0,552625538163262
0,489964557144294
0,503737425798019
0,469181717683592
0,499345166619966
0,508805103974722
0,510476432470084
0,514065288021741
0,53306787937773
0,482185730626415
0,634355110126485
0,542105163226666
0,569066518389014
0,545751815749297
0,62434070953177
0,557813946929175
0,607567560363684
0,650363043989304
0,612428056194207
0,634295292447222
0,610189956360957
0,652493037420424
0,624053764835207
0,692503288983689
0,689568932996206
0,674584159543967
0,693888532091355
0,693912206034465
0,710812282857795
0,701472714213008
0,730345001710546
0,700869756787154
0,771707875632634
0,761680214740041
0,88952523486826
0,838261646129357
0,745496537624701
0,781088107944509
0,735608671909024
0,819921201872802
0,765797427790108
0,788778819680973
0,845125889356483
0,790036149083477
0,815817691878867
0,79782482805519
0,811465922885559
0,802219557867501
0,831106220875275
0,787946471744007
0,83362793022042
0,813860341499916
0,754229785316934
1,02009645009932
0,804892868892653
0,803012971858292
0,805898890565124
0,814007214501073
0,800625179110722
0,796508567191286
0,763140430662632
0,8367041053211
0,781178599384323
0,782211964384212
0,751550828856901
0,776585429674774
0,813414579462713
0,735496403342746
0,745638538429877
0,719850199924439
0,71603103970718
0,716026622436443
0,667960228092987
0,814928890713404
0,694762403079151
0,673017782173666
0,673257523164483
0,663834444669036
0,656648429946678
0,627653782871018
0,630655435635122
0,64655572197388
0,610193502195029
0,614829752687573
0,60141377072196
0,584174580641459
0,581052053991872
0,582320042148041
0,570731267018173
0,564308466354447
0,56185527410781
0,5423618477762
0,557137407844346
0,530227583804837
0,531146030605684
0,521699771471458
0,528103586961793
0,52330905260017
0,510392040132408
0,505448044190434
0,506301375283269
0,4998030578663
0,503504770081993
0,484247356911048
0,488749401178
0,481661168549945
0,488408389352736
0,478587781667451
0,477930427151228
0,472571606958191
0,479597616279834
0,461683230956362
0,468814284441123
0,45057320064815
0,473774953822649
0,427007467853534
0,484390734415242
0,503399636672556
0,443652743786244
0,462364966540113
0,432790093699029
0,45750311097094
0,418063903990399
0,465384343133986
0,472472864712417
0,431095155907084
0,443075810085124
0,428353554959814
0,428960677101456
0,452118499964438
0,426775317909126
0,44279525795069
0,411106933482087
0,423608793156694
0,540075786976677
0,395664740795141
0,550847864394079
0,432065855186144
0,429029425537855
0,387716167443141
0,484992242872142
0,399596383234861
0,415540728007136
0,400914583272032
0,4260792370997
0,421990523408004
0,391038192431011
0,406705259469643
0,3880670728683
0,400533358858085
0,432210037576935
0,39297691747046
0,368061649497814
0,439503870457541
0,38774350179414
0,400356054369687
0,448238070249908
0,411203174568164
0,375807735894172
0,373485105048484
0,37870695566861
0,347137834496815
0,428961621195861
0,373667663792122
0,365662643652147
0,371883663502779
0,346449711421616
0,365160817235463
0,354031658271963
0,378585955339076
0,325836556176443
0,397933787919827
0,339090904921066
0,34380655397278
0,371290323281066
0,348460443309057
0,39607830726629
0,34899831131973
0,337586286854774
0,325834782380342
0,390360828541102
0,330547751658996
0,353946319462736
0,335497943618112
0,313155915534098
0,350534685139919
0,330288584346931
0,319782832929135
0,345223625602737
0,311812983985682
0,372762561747018
0,356235724909483
0,375467618215019
0,334468550657384
0,308304222767966
0,315229441532265
0,315144521555915
0,321806484607058
0,306121552653816
0,303398906580513
0,341641872832415
0,269739060707778
0,36078077562225
0,315387888542934
0,304967568686186
0,304445090588083
0,306476220589284
0,304281879617931
0,333575641615432
0,334819815128868
0,332611724889633
0,291154491579076
0,341105595098135
0,300090493890351
0,31982738191196
0,303046517973098
0,320946273484511
0,31126711397097
0,329024283165746
0,315343050362829
0,321258337755894
0,315406235464296
0,331941132999463
0,308120591783589
0,375252103729466
0,310755230818666
0,353621889160709
0,352802826481519
0,369246820160172
0,367893888887976
0,339400631231121
0,361033696916942
0,351509205127357
0,351993844638218
0,36386999571169
0,338049828633071
0,41015128005941
0,356697766298277
0,368259749515601
0,364573428110064
0,377576875353287
0,365237429604386
0,386672310421161
0,398656386742833
0,386429141340503
0,455788275199254
0,372038662332972
0,393385314958188
0,368961559215783
0,387663302056768
0,390866814484033
0,374945418732807
0,385837985374789
0,366611015484174
0,403996857713257
0,387502049733571
0,381472072049793
0,389883835483511
0,383429978434082
0,387194678538825
0,386079334650393
0,390904132538293
0,393856645992898
0,387747308945294
0,40487168011075
0,364807512920313
0,451300686103011
0,422056410405104
0,389321216645279
0,408640128558519
0,392311652355634
0,409975476613172
0,392551024092757
0,411937561211089
0,418085164705294
0,399137479958603
0,413738162857003
0,403694254089369
0,415131023210137
0,40591935209809
0,436849993998204
0,409955860874243
0,410462400339437
0,419596289748733
0,38310321886229
0,495618006640307
0,414009509522251
0,444753665465247
0,411359650020243
0,421063639305863
0,413267861024716
0,422724916349877
0,42215218467739
0,425665248345991
0,418102890629271
0,424914626437362
0,426442896813538
0,416302288503826
0,421772143480372
0,412065063019333
0,439681480886111
0,427871701797233
0,415246268602544
0,419341923527816
0,419041437102569
0,416454906292098
0,429345287748926
0,439320173411265
0,409666200985281
0,428463819688877
0,405029176098083
0,429079330197831
0,436474200153512
0,416206474299195
0,418515284052848
0,421410306186231
0,41015867596238
0,423981111193704
0,402605912780318
0,448841688069821
0,420590072962696
0,425347457151659
0,418016496464952
0,424111509740567
0,425424550876522
0,429184429800736
0,423460970962296
0,439463297581167
0,432392725753325
0,438279689640679
0,440047318477058
0,437760649545091
0,44393550234723
0,443169369748938
0,447182094968396
0,436629542541001
0,434314048517779
0,438430133687728
0,424527092172114
0,440599018226207
0,435369933654613
0,434717767428764
0,423812282945599
0,432845929335319
0,409579114629037
0,44296141627743
0,426060164011731
0,412190829514351
0,423169739542228
0,402372158851435
0,415574733634357
0,407138696723627
0,409096767668257
0,401708392612212
0,408948157095354
0,401793076981293
0,402328429741427
0,397638608682471
0,398583185740034
0,398981570333764
0,403394503232334
0,401701208199569
0,3999916784099
0,399532556143798
0,398049271981728
0,400255164116451
0,396668527658182
0,398651047570834
0,396524371830967
0,401460038747363
0,412460471131959
0,399942441216866
0,402752474659774
0,388267898153582
0,406291545243463
0,389219382422795
0,397464515322661
0,389977755873983
0,395831808884693
0,388173996965667
0,394795498441
0,394962711396772
0,398654766639788
0,391031106041928
0,392570280257606
0,389614997841662
0,391916084666872
0,389204368265039
0,39234566130687
0,391383212164424
0,388780325805853
0,392074062040647
0,396517184780135
0,394302487922621
0,383796253377171
0,392088620620151
0,389144913493862
0,393310968390212
0,395693400709557
0,392032278617818
0,386545116744403
0,386002299097864
0,38950140192895
0,38313509153589
0,387345862135812
0,386059257409597
0,385344897286801
0,384361489699586
0,378926986873332
0,378633514327156
0,380782755909296
0,37677675900581
0,375176769295795
0,370635964210512
0,374928308525696
0,373563320276427
0,371263443265848
0,366335878905029
0,366747121053316
0,365968522031006
0,362952114298464
0,362175205453617
0,361748243216171
0,363731853970294
0,361470544855161
0,359761200300206
0,364163308153587
0,363972733618194
0,358759902342001
0,361348930184238
0,358675901421069
0,356634188784142
0,357947962425997
0,357353487599212
0,356353418072047
0,358493181555646
0,359316441185486
0,35933624441873
0,362760001294895
0,360650602912052
0,360922806749616
0,361328427521798
0,361087692040225
0,365644903754371
0,368067080562343
0,368014867717172
0,365138007121417
0,366089742067119
0,368002701591237
0,368385777493818
0,368016919099044
0,37004524013001
0,370908752663523
0,370916491840035
0,369591306068589
0,366678043658681
0,369073776705346
0,369372898844467
0,369774270017025
0,368833995530591
0,368509495416462
0,367922953560584
0,369784849148911
0,370455598453643
0,366921820124942
0,366118621022814
0,364732499043218
0,366687033754971
0,365209229499714
0,36546091647516
0,363805565632153
0,363336865639786
0,364528273143318
0,362167227820502
0,3606129480622
0,355344265824566
0,355827871156768
0,35577097081362
0,355131357270296
0,35245380792104
0,352824100862489
0,353350637751468
0,350923859551095
0,353535013278183
0,351191552823317
0,351541331582878
0,352927062909289
0,352992867842974
0,352805561808999
0,348884686187222
0,348180297372597
0,350365587604646
0,347290899375052
0,347406129449848
0,349871852236466
0,345681617540729
0,346520705652742
0,344424660651572
0,342531949382733
0,343079554115407
0,342613990623782
0,339966073855352
0,338389769497688
0,334679637004566
0,332699758513493
0,33271201047356
0,331333002307839
0,33078274344961
0,328504072373672
0,328045699650542
0,328416219405601
0,32505200591955
0,322288564828853
0,324327551141346
0,326241528719208
0,323671280586864
0,324455641676861
0,322295703491331
0,322859623858264
0,322352400264804
0,321394546190251
0,320901445690063
0,318852036226966
0,314821380987942
0,314056022286284
0,314061124722083
0,312788040526249
0,309972464808212
0,309187986548517
0,305198921881633
0,302377423678859
0,302397813963054
0,30077247770557
0,30158385206405
0,304631392650491
0,301387070216826
0,303850131736747
0,305120603838521
0,306425654612866
0,310309675397174
0,312492013515928
0,315921718102929
0,31816403436412
0,32138259184155
0,327775104322233
0,335054962877972
0,340460157120157
0,347362789480139
0,357060894085878
0,364951870723037
0,373243906515725
0,38406499647048
0,391150447625478
0,398725147723033
0,409751213665889
0,417147826122347
0,42872536499786
0,440110766681421
0,449615342507672
0,456171993800694
0,466383435137154
0,47594829580622
0,48087649540452
0,486462836490091
0,492285517438489
0,499419549151929
0,506429624253006
0,510159881269565
0,508445061863851
0,509428469688537
0,511498791329619
0,511216213982737
0,513733786515594
0,513122102339822
0,507908408696899
0,508413852386108
0,506449460263694
0,504850248611908
0,50094005189898
0,504451296182904
0,500753724917035
0,500521460471065
0,500845400945827
0,499491090918159
0,497557625393671
0,502708833837431
0,504211872046955
0,503734487258715
0,507800272731556
0,509185629694015
0,5098240996978
0,51283522504406
0,516058825415239
0,522740816907271
0,52945337984661
0,533684802160402
0,543128353305081
0,544568335094737
0,557727696163856
0,566676825356007
0,569054669400323
0,578746539924135
0,588528197036665
0,597759194824938
0,605930090716502
0,612008389913184
0,61165557786375
0,616564607996397
0,623501076513695
0,624669457244177
0,619300043833714
0,616761738388167
0,614861277120268
0,610192878100915
0,608896382142705
0,602338860462157
0,593557869135409
0,595462238938755
0,599119683064201
0,592013498650401
0,592151150915257
0,595455294712971
0,603280116496584
0,607678384176364
0,608871641537572
0,624315925315282
0,630697822935972
0,63677053096094
0,64967687411345
0,658811567415781
0,668474415280017
0,675967183133583
0,680775844786645
0,68974300821311
0,697117900747042
0,705576596297899
0,708239069210916
0,716788949434786
0,731340358058876
0,738934085883187
0,742327527604242
0,755520399759391
0,766448128856577
0,77919969281198
0,796240711538705
0,808514115801322
0,824766520965393
0,838317197292329
0,850088434212441
0,86236515952186
0,87553679737079
0,887354525619082
0,903198543858926
0,901263155079216
0,902051041401966
0,922216422306492
0,929860794203236
0,921223488001174
0,92398889939362
0,92499430898712
0,918039712165651
0,92186967849073
0,913339130256687
0,899089987496299
0,884121206729858
0,88199792917991
0,880481404691036
0,87428589563579
0,870037553179825
0,857904463290222
0,858933517200991
0,860594965309671
0,857206882043065
0,867617157094293
0,867298100329589
0,865683015484578
0,869659398095924
0,861466391513161
0,866026065561417
0,887816083955792
0,904113512640192
0,896768777429296
0,902078510213954
0,922176725630146
0,93505799866281
0,929164441229021
0,939706854824832
0,936298254749506
0,952254759614529
0,945408430336296
0,936167313809536
0,955127613084857
0,948901033722581
0,960509353882741
0,961656287969143
0,953314052988805
0,954694079849015
0,955342747939294
0,956515040777775
0,96261834652996
0,951141058019826
0,951342564749803
0,951725633253926
0,950691627737829
0,948221942282721
0,927363291634533
0,936044384053549
0,926149687829911
0,917104673178282
0,91208657222063
0,920489628274574
0,910326140710275
0,907336015539513
0,902609456928817
0,886237181667199
0,864656017878215
0,846842516672827
0,841403651349698
0,816833475654971
0,792947118467229
0,772383778527077
0,745915196009031
0,724708874529323
0,699723033909627
0,677917976010458
0,654137017119129
0,633696600353357
0,629235849404078
0,610268811892664
0,601551241405176
0,599415010076483
0,593805857623802
0,600762569818557
0,596333034183897
0,593257269588837
0,592776696835493
0,597670258516902
0,595303253551146
0,596802088029456
0,598117186607119
0,590613858492434
0,588740451557814
0,584576577555518
0,576793740681556
0,56958155410997
0,569225569609128
0,56808980509414
0,557388125240444
0,548942257467701
0,545405652055744
0,538530477167202
0,524762535763229
0,515674114745574
0,511388979452994
0,497864731246891
0,491462726836077
0,487347993643881
0,476384017047225
0,468009771745273
0,457983757213659
0,448344925437825
0,449192667632822
0,437825940564765
0,432243036125075
0,427964253047927
0,423778201943414
0,421568662918628
0,412639485491837
0,41085384959556
0,412980286016718
0,4078701790315
0,408891262159085
0,405924062039833
0,398765707728282
0,395512216284441
0,400684960906123
0,402834658309359
0,396445415389701
0,401402995471625
0,398927790537282
0,403230192899207
0,400706306312871
0,406387775405552
0,406477030107347
0,408431034670205
0,407690213198692
0,408040556535526
0,411672401116681
0,412015453744309
0,418518907843096
0,420929383170608
0,422406523169537
0,419975314566999
0,422390618051853
0,426235774594335
0,422545611944184
0,420434744705057
0,421725675970592
0,42428140123872
0,420085985679205
0,425512188247653
0,426747786231592
0,42878297110327
0,427778138266562
0,430905982285232
0,431996878755648
0,437088761684099
0,440191494085386
0,434289192987395
0,43845499295548
0,443496438381103
0,444260612395354
0,446855285388421
0,447321745179254
0,448377756533326
0,454678134081899
0,45919271281652
0,463001272118817
0,460533090523583
0,462193781588748
0,468231273821512
0,465705241116727
0,465979456303801
0,467364687753162
0,481335697021958
0,478959090449046
0,478953998259356
0,478408269605471
0,484219112353194
0,485243317926703
0,489465931777358
0,485955372072968
0,491515891376487
0,499723582269368
0,504738998551424
0,499453577751806
0,500812780836973
0,508302026020274
0,516319364299083
0,522632305892437
0,531855621597394
0,534319959874582
0,52921843386655
0,549216422680126
0,556475963985907
0,554686212466622
0,56685596637932
0,585842979379774
0,576859144867988
0,575425857492084
0,580271622918525
0,589495510655364
0,576146649155681
0,575885749630331
0,592637983875366
0,588552949208928
0,578685699705565
0,585720317091637
0,584271677558688
0,589370566442705
0,596410064579224
0,59735475002652
0,596102797471863
0,592738335129633
0,596018869664078
0,613791650247941
0,621936487227403
0,61384994962137
0,613810403097446
0,612094196104311
0,620113076065745
0,618934523443821
0,619554006038796
0,613540065223488
0,623294194567448
0,630973134611368
0,63429905851071
0,641660634871131
0,648285478079683
0,646184810319683
0,648305767319044
0,641710215484481
0,654393344736404
0,655094544410401
0,660912471584997
0,644994059701526
0,661954384833512
0,66629203059264
0,682815626994762
0,668350656076828
0,668425179795151
0,667747800330413
0,68648107952528
0,686317922390156
0,686091263117462
0,696883876747504
0,710640087059567
0,682175502009159
0,704485879282264
0,708503750841695
0,713607263273181
0,716487761618276
0,717083315627506
0,720555531258613
0,712221122831339
0,715842720577884
0,7318432140021
0,734348391956095
0,751106827115747
0,755836104066131
0,770310867615857
0,759789609599683
0,749445977971481
0,743451136624159
0,759824777477832
0,766728722298328
0,780169736789777
0,755774228050353
0,756711756149427
0,752176460617856
0,756278379499412
0,770450104195344
0,806534738447749
0,805002753323858
0,805714145215789
0,794741926889792
0,810680319025744
0,801651546024515
0,818279919257847
0,821806475021801
0,811075315669218
0,816521606289413
0,832346281617076
0,836295642070202
0,84521920793288
0,829321516028188
0,862661053523239
0,839499594879223
0,867127506130237
0,840944640779573
0,85294677248671
0,83462803225772
0,857620205444954
0,883098741029572
0,880016639770487
0,900077202019137
0,929019291980772
0,889604161085862
0,917530873454585
0,887198593290062
0,933309261360682
0,916012062848644
0,961505244327291
0,921036509095145
0,968064002318043
0,940234059144254
0,896516655209898
0,920027163296297
1,02569647702251
0,994040961964156
1,01813376934856
1,01124281654616
1,03405751181
0,994699095911946
1,00654931959018
0,966635619822212
1,07835310237652
1,05695520284964
1,07084457132245
1,00817823567223
1,11223164437306
1,03774798117996
1,09786663276335
1,00752171640377
0,991137669773771
1,04763559873652
1,12283819449236
1,04635398040481
1,03293585907847
1,01646717846048
1,08923153256901
1,0862510078741
1,18984461119732
1,12582263134331
1,18346558279999
1,01759171384428
1,09398175542027
1,11899034916917
1,15787060776777
1,03978733988953
1,08407167170257
1,04817772637241
1,12759559921189
1,06054381811068
1,21109070172115
1,1147877958074
1,14925310038347
1,12109041623488
1,12246837393388
1,15275554301538
1,26887869004547
1,25690545125067
1,28580790419848
1,06857426277217
1,23718572652183
1,28134033247711
1,19888739914129
1,12108008847216
1,21264496917904
1,16244765846179
1,24494470423251
1,04242596943123
1,19324895035817
1,14823817917028
1,23877499143731
1,21773002278333
1,26447521863207
1,12140448015833
1,39257428905259
1,25065538300753
1,35021712629332
1,14067512355458
1,08053064930134
1,2251801942442
1,65093916507706
1,18590362308437
1,27015361362674
1,21457031695369
1,34534807454194
1,30011244901851
1,46575987598778
1,15378767171874
1,16302748770386
1,12843210640555
1,4142006604116
1,20164521288347
1,44612590660235
1,08225895309831
1,26210121763129
1,1391177674837
1,36013121223369
1,40089364973975
1,21994267358278
1,13814548782449
1,30866237714979
1,59887931620782
1,68202868196821
1,44071576313265
1,63341696490745
1,2587239926595
1,44234052852837
1,0107057082535
1,32904268054065
1,2454150730871
1,64162939816738
1,31031659593973
5
1,20007205874664
1,12622139957591
1,47202961314471
1,79923906846877
1,32712755530651
1,47062441371591
1,2862887882475
1,57246829743168
5
1,40247963549863
0,971972442406073
1,35331803256842
1,50436247897162
5
1,22673234904838
1,60708884313118
1,22951852577374
5
1,54778502299091
1,31737389833772
1,14049129487168
5
5
5
1,43753572788794
5
1,43491599876276
1,70129601229699
1,05099099801493
5
5
1,57601758722493
1,21955035313396
0,942575248592339
0,4808266084101
1,1523150478287
1,41305402957918
5
1,08920390340618
5
2,24751439117333
2,14357427219676
5
1,8417271331399
1,10164851118349
5
0,767023446673182
5
0,985999264408809
5
0,762879185972868
5
0,74036064280531
5
