3596
4000,36533379555
650,420452594757
1
2
2
0,0222844862886975
0,0270152832810156
0,0177835269040908
0,0214808682576968
0,0207272090559133
0,021261525138118
0,0140456907229301
0,0217003150332153
0,0156000347306125
0,0159776278341787
0,0199749880464614
0,0265713364815593
0,0168354315840353
0,0253566435587335
0,0209264069027789
0,0240100127714107
0,0126252363794958
0,0261162870396269
0,0196695101285628
0,018580535197777
0,0148076140267797
0,0254222994292697
0,0182560893680486
0,0213206999442955
0,0169219969141217
0,0181426610585931
0,0178984283548602
0,0255365295379096
0,020275892374276
0,0278893725858225
0,0165524484671916
0,0218676118106439
0,0194286187671491
0,0322373783833646
0,0213719953892492
0,0139172101003729
0,0150551426274984
0,0248636508245656
0,0161551578503071
0,0170274135497809
0,0168213493209571
0,0149392717622566
0,0184945459069476
0,0151023862994099
0,0143917543768224
0,0269317516636541
0,0187776869050871
0,0201405085994401
0,0185565654488376
0,0225174435588874
0,0190368038940724
0,0186874452340107
0,0209012247099404
0,0227562897369884
0,0192144859102647
0,0266571604858354
0,0183764761478913
0,0182730066258598
0,0206954067492827
0,0218175483701756
0,0254732336292557
0,0216954781359075
0,00792916170603905
0,0183156923808007
0,0176256146823516
0,0203904576395871
0,0213684534148261
0,0251838039347271
0,0114644995163988
0,0241478921080383
0,014028807207975
0,0232251498723866
0,0171381346766711
0,0264622427516161
0,0202937326188714
0,0235882124441026
0,010861840985647
0,0159072900120071
0,0125415894981196
0,0241018424152334
0,0145283343684581
0,0220985164141917
0,0214130549708557
0,0257174384225993
0,0175286841907356
0,0217532833166105
0,0148959595012713
0,0248844393435335
0,0113959033178866
0,0184058944565166
0,0187070079303792
0,0207704693669062
0,0159984387177935
0,0218148973782328
0,012650369468099
0,0190950753620961
0,0115741207674408
0,0246229784976843
0,0159850212184176
0,0192869327900384
0,0140906665803037
0,0193754289723056
0,0221702752249778
0,0152405459913729
0,0185422536231996
0,0175824924539962
0,019222560528492
0,0220949670060777
0,0110270152528159
0,02017017483052
0,0161472661298883
0,0252127775363614
0,0094984028902211
0,0236802692316996
0,0110423542113867
0,018366758205803
0,0144726486320665
0,0173387959530389
0,00882761735858347
0,0182562018347136
0,00661918481150866
0,026215809757413
0,0206443125465424
0,0198067396465208
0,0175493354760487
0,0195112441851934
0,00832782817131725
0,0256759779442417
0,0141381468363359
0,0142943462335015
0,01877447875299
0,019709106851265
0,0158557121856754
0,0230838233339116
0,0195101915505196
0,015194683187568
0,0184861470642577
0,00781313025045484
0,0147233830733991
0,0255571230963755
0,0145273338915377
0,0235978411902292
0,0097394984627099
0,0196954444287721
0,0182011241883228
0,0150479092887889
0,0211291585903251
0,0277538720872131
0,0099414990467476
0,0172563707658967
0,0159215199653189
0,0195511966823086
0,01958791831464
0,0220605091102094
0,000399276201034884
0,0318821603237752
0,00583267745692327
0,00983004386946451
0,0227976922131137
0,0131893198921469
0,0199394051806037
0,0171155287517452
0,0174547067845224
0,0148477553579519
0,0140297213309854
0,0121241202303446
0,012732329755336
0,024910173243468
0,0135777369326554
0,0209802144362137
0,0183842980768222
0,0172520646701565
0,00517038320461725
0,0363743120023837
0,0151759519058694
0,0196558093107719
0,0198843319609097
0,0221514923595986
0,010314814015321
0,0127368358415614
0,0139717100873761
0,0108252146127381
0,0192983282128374
0,020871226200387
0,0182948331489553
0,0207601202343837
0,0176579715708232
0,0237668250464467
0,0111230646270032
0,0146416334004163
0,0203046208431402
0,0215841326690348
0,0209174328806903
0,0158964220982913
0,0188025054970434
0,011095079928593
0,0259496156386679
0,0134088656793513
0,00962214463129676
0,0153998682042821
0,0165411699337508
0,0238910887619631
0,00960539689257365
0,0188586232561134
0,0162239363733877
0,011009685672514
0,0277333806447637
0,0150295091656834
0,0187987198300365
0,0119304369005326
0,0140582812516924
0,0167740403933804
0,0221152758061819
0,0209911446124758
0,0184602789399227
0,0202923754773006
0,0120408206012823
0,0202778867601324
0,012555268938795
0,0161126286679739
0,0205066883835302
0,0192896137625046
0,0125968085343872
0,0140125810565147
0,0137538165799017
0,0204276727744178
0,0192321908895882
0,0174225369026229
0,0137176508086613
0,0136931308175566
0,0147308106853535
0,0145591499763917
0,0159920236978163
0,0157266053165031
0,0117250161856954
0,0220512393811904
0,0175697925101636
0,0162848760020406
0,0165017668943459
0,0146763360142889
0,0181394052496978
0,0230089662012015
0,0146303354021331
0,013694869903885
0,0128552621110178
0,0111118378663424
0,0237759240710707
0,0133194825193072
0,0188536748811054
0,0117701772711467
0,017904464913144
0,0200959506990482
0,0158808465325278
0,0145726697018661
0,0181324473259988
0,0198456759444022
0,0217685822923779
0,0245739517953634
0,0182414308622242
0,0150618701598329
0,0143101206094782
0,0181652115856581
0,0155076894733981
0,0172066999434603
0,0116629007582971
0,0421853747465217
0,0174655154365583
0,00594402726489506
0,029050770207538
0,0153856714841856
0,0154773331755595
0,0139219297879889
0,000327887052287296
0,0346017666361596
0,0206993396801002
0,016929090130307
0,0149364999375329
0,0233685645441493
0,0156360081418774
0,0185682346406819
0,0114252720626003
0,0264839274073058
0,0196838316315587
0,0165161265598339
0,0246122321766384
0,0115863953421434
0,028940724303409
0,0223511874210696
0,0205413802721197
0,0201109690940198
0,0214624766257188
0,0209715624702213
0,0158752900781116
0,0208976789461898
0,0212009025626807
0,0206185705800404
0,0144263516654236
0,0255152801773495
0,0226408006000211
0,0177880260333457
0,0176206479861827
0,0275833659192352
0,0176306296886989
0,0237428013809887
0,0178063634800558
0,020025325128374
0,0185183403946097
0,024223170925742
0,0187490030154553
0,0203931750078898
0,0224580941707776
0,0282349692094574
0,0201654101541685
0,0241429809264208
0,0195925648889131
0,0174208317027248
0,0191994067745664
0,0270260177076234
0,0203948258408445
0,03266069764899
0,0191633935167896
0,0238883913278408
0,020003691607592
0,0293970507122625
0,0209545475663388
0,0239243765116028
0,022539109814234
0,0290305371720734
0,0204389847515821
0,0232371289584059
0,0267084551555405
0,0276595371068605
0,0191195911003718
0,0310296316682853
0,0234698965488739
0,0308118692128456
0,0238144857718238
0,0246807366623183
0,0278390573501309
0,0269339778812988
0,0239606114874367
0,0237573743485617
0,0228162170760944
0,0307994195852001
0,0243954208461347
0,026924705810434
0,0282264963203037
0,0294752503850635
0,0357272398399765
0,0309975680994782
0,0280986599427105
0,0213193927609091
0,0393025152054895
0,0294757575309436
0,0280329915663369
0,0377544217335578
0,0299879586442344
0,0412895224850126
0,029168228448411
0,0370483364880729
0,0312600105445717
0,0400640547229561
0,0351819134791485
0,0375406946242974
0,0364610168510384
0,0444357408948434
0,0345903068080209
0,0382464397936667
0,0487803811694017
0,0479278694884599
0,0436886886744942
0,0422037976685728
0,0365397900206342
0,0603990362661507
0,0369589508979412
0,0529137297937629
0,0460022040621632
0,0551064592457958
0,0584811825477111
0,0500973931873737
0,0536521256909268
0,0591662793721533
0,0576247555690358
0,0536257544133166
0,0618867903588308
0,0649716112599265
0,0586799744179255
0,0651809256657941
0,0693099599786288
0,0639092907342548
0,0702551279411324
0,0689204604827301
0,0723906519907894
0,0652909596343026
0,072644040168541
0,0649786729743288
0,0741948034163614
0,0914753609949903
0,083330776873813
0,0781391517646577
0,0739786998796786
0,0790937137091379
0,0818100494256249
0,088941104967843
0,0865483732215063
0,0920400269794755
0,0830111324521018
0,0982940908420747
0,0963709115410338
0,103433782279818
0,102370016277885
0,0941521948211519
0,100493760809734
0,103676140530281
0,105036401016765
0,108206318726027
0,112345583218319
0,107130576002539
0,117078478216965
0,118555949879962
0,111779909965463
0,124486937019463
0,116000299328265
0,120155501551875
0,112457896999324
0,123424619480125
0,131459562109972
0,137937285040281
0,126122665934028
0,135937862081716
0,128201099826871
0,143160047716361
0,146208632374948
0,140172502296402
0,138978268061035
0,145058018811103
0,142142546035825
0,152123383456238
0,157427486590503
0,151582239951044
0,164580923319367
0,164774363854509
0,155467599968784
0,164083317449695
0,160269265022034
0,173454470203345
0,160556272738187
0,174915487986512
0,181272723859201
0,178042623112749
0,172339971292205
0,181687204699865
0,178852939801669
0,196918019681246
0,189847810188777
0,190283761413562
0,192465370557313
0,19918178467207
0,201271015319663
0,20743253793727
0,201837834406068
0,207686238036201
0,20932102486754
0,21884228646118
0,215855005635592
0,22332009938227
0,209633081362459
0,236141837559418
0,2247592403411
0,22684355114998
0,221872504509512
0,239180707893804
0,240151221018729
0,243581862614868
0,229974834831069
0,259472138638743
0,249679677011837
0,256410885382534
0,249626065688445
0,261611186391896
0,267134439968766
0,269662644460938
0,271825851000494
0,289056934072636
0,27999995421188
0,28445321686127
0,254252945029248
0,283915765981051
0,279650996003475
0,296081986669724
0,29223733386766
0,282973589393374
0,288344509400554
0,305973187591593
0,297050881826068
0,300815178143341
0,305976846357804
0,319551233139045
0,309978011935913
0,334163994300747
0,326318549983148
0,33261654863797
0,320242498507154
0,341888975744497
0,330440034619202
0,342217591213355
0,337504768521511
0,334695025494019
0,33859185387166
0,367146689460378
0,35750550614511
0,365926928452051
0,374186991057627
0,367720089390253
0,366852615413247
0,381807032057549
0,382543672642062
0,407263136545657
0,365398492112522
0,374678058166609
0,381935205715086
0,403919488471393
0,38587831725356
0,410448073316855
0,397162054929789
0,40508296251663
0,423272256887002
0,420803450969804
0,409182068411413
0,421856107520654
0,411896660305866
0,415914025430072
0,419553722243469
0,427407642627299
0,42662606499424
0,438958785685806
0,426058898157653
0,45328757503682
0,451678614187936
0,450313545774505
0,430927074025366
0,469704385924783
0,465238950544468
0,484231149114841
0,471979685486438
0,476822976536698
0,474904835102327
0,467599149333701
0,481721703424527
0,508140356179398
0,474084363969674
0,50139150665573
0,503049585471857
0,50882017204053
0,511387005129126
0,506879508718335
0,483004753374486
0,51415876076176
0,50313733940456
0,521970992183394
0,527768000843074
0,538015094101445
0,520427133436032
0,530810488649829
0,525940667921984
0,544654924438194
0,538842422016073
0,554350010620305
0,531219679964069
0,545273398460461
0,529193335198071
0,565656782348557
0,575255906750664
0,570137089590457
0,573236853700616
0,588677680996797
0,594655313818336
0,600630846164214
0,579615577386742
0,585671032284221
0,598560870684071
0,601545530352334
0,589739008493766
0,626422650712088
0,590159588143327
0,598364513413422
0,610031645746529
0,618394525532807
0,603539852834133
0,621472624103943
0,607806032674792
0,610084497942491
0,609445699915653
0,611530780997371
0,613406381013448
0,653394100629509
0,625367365805117
0,65198552023099
0,65117146249218
0,652225876939659
0,619352799537221
0,653144542301371
0,631964698555313
0,647383088594038
0,655296311945627
0,653848767825551
0,662989804925524
0,684772004143635
0,658807955510005
0,665830751839751
0,662907364889397
0,7020046083468
0,685637719946347
0,685884626077569
0,665478290387405
0,705581781554002
0,689502491944057
0,706845969098783
0,699894501897683
0,717435501776395
0,702901417295539
0,714740998440031
0,697094604793336
0,724249205775332
0,710282845101109
0,709683328052013
0,690745305945698
0,727392230394187
0,725535971516361
0,72920481103059
0,724008446826031
0,742181360460696
0,701989183803968
0,750668735103622
0,753803912903583
0,764463029374926
0,752494541302075
0,757962741068462
0,728711967146752
0,758505049572865
0,73631673706898
0,739220846123324
0,744834133797485
0,74797331951509
0,741994082367519
0,78625923155861
0,754942797745287
0,775941566460441
0,744997298853652
0,777900041880797
0,771191514748063
0,754104333432302
0,752841120754758
0,805454892235496
0,801778969768671
0,807458843625475
0,770782584218366
0,814140022635043
0,79034582849537
0,789874560255144
0,783613215632643
0,831114616494883
0,775527984530754
0,800637215333149
0,787995124224715
0,785290397313887
0,795401200961552
0,808814816264178
0,787014654909302
0,820708325787932
0,803300511817627
0,812956181556875
0,77140297535377
0,795303572486112
0,77480588501837
0,782753166581783
0,785479106385274
0,818030272068788
0,801317985306713
0,827210980017967
0,845271838248193
0,852517816060901
0,807675512132849
0,806542697049153
0,807382480578228
0,839221056939127
0,804319879851823
0,847139071154987
0,849606031312272
0,833481142977591
0,806824222676501
0,840484216823234
0,818874589825323
0,815808502157676
0,794334124672307
0,808673066553193
0,808626505295761
0,822255921279161
0,796011053914332
0,838852407517911
0,840577660580456
0,811267461326869
0,795568877118501
0,809978735361084
0,827520542702206
0,843868595894326
0,800062246118068
0,831408356951778
0,825682333872069
0,846414955982194
0,828880940559721
0,84482109651234
0,815217957218921
0,817825156118327
0,832396148600048
0,858983918710075
0,818384718366774
0,827122219760973
0,823114611820419
0,835152473372286
0,842486549200668
0,860822507154196
0,824730945796678
0,826379027610337
0,811616439489649
0,832336821446806
0,82053225015583
0,830071793501314
0,820885325938071
0,84531543402443
0,832730526077343
0,827359675546879
0,831398877978192
0,822456640784698
0,808046770280879
0,835508802310116
0,827295669402098
0,831274362356205
0,831887904324821
0,830751520169254
0,80074628960151
0,839906939611332
0,781618913148269
0,795982287043775
0,812496524857677
0,830761620422808
0,814450429822231
0,819820483872559
0,837777724215887
0,828014106555654
0,795625285397112
0,830312071508833
0,823843984568588
0,816010362382908
0,82488760815441
0,819244294997697
0,802280375907103
0,815182955382666
0,782058604327548
0,811848149598325
0,823999998253214
0,810217692380268
0,788123212254645
0,802050811733609
0,810816328901263
0,837932845647392
0,8129406523293
0,808732558062641
0,81213453220108
0,836925403517108
0,796642924713053
0,832330567922165
0,808779020351957
0,798864055573534
0,794792969472524
0,818439887636605
0,801860545195475
0,785239419278222
0,790991907409419
0,797583320616291
0,797769054083247
0,790385040037993
0,790672161842565
0,802644509531396
0,762581133664305
0,797332870652091
0,782074626467543
0,782164236176834
0,787751290052655
0,769925952962261
0,746348167275602
0,782262305380035
0,780773388877428
0,769631086585631
0,767886054318231
0,776259096915588
0,776685243398541
0,782524381569549
0,773131285052583
0,78679539738461
0,765398945184849
0,756607498014442
0,74541247256919
0,7791714072837
0,759342571344912
0,755492050791084
0,731507601202221
0,744222329649882
0,732106859386767
0,737902330592598
0,731834398356527
0,733328599585388
0,761985928655901
0,746102856605339
0,721305209979123
0,73323498911596
0,721010796633446
0,72764923392916
0,719405088768622
0,720284491081636
0,713037890276792
0,730080613776077
0,731706628313144
0,726329708670289
0,707970480030505
0,709042731035895
0,713199870277457
0,722110909919392
0,697788376123404
0,695095720246903
0,688621617264732
0,700112865187283
0,68945657545817
0,686565447147331
0,684642455096768
0,690329850580172
0,684198889590676
0,680262365825522
0,665659860557971
0,672007476944307
0,661016123526898
0,682310095416592
0,681866284438367
0,67009465966215
0,663294216612158
0,653570799004362
0,647100698330336
0,672191633393823
0,655500329630271
0,650297649467306
0,6452444824673
0,636466280878411
0,636346679604215
0,653079141226635
0,637700325687856
0,643572897907469
0,637086977413625
0,637772509099812
0,624323943184915
0,626464646623514
0,627806911119331
0,628088137950118
0,625279595306645
0,623325188120098
0,609304968216967
0,61818866083482
0,599702685898228
0,60098895323967
0,604396712842097
0,605085367051572
0,586063097223677
0,598005233491748
0,597695197680407
0,592419289431151
0,584613486469987
0,581911179796562
0,582756550759186
0,577711245318457
0,570481092060719
0,581385813289466
0,573353062085294
0,561954550708142
0,556115030600176
0,56715592278761
0,556912537276724
0,566027989468445
0,547709288006953
0,540038803087072
0,546505871744371
0,545394048837939
0,540354601939699
0,555425848768918
0,546329222290761
0,537938424417433
0,530836769166534
0,531865323621543
0,515449633832587
0,517395284727633
0,514405010588209
0,515366687939613
0,505990094884279
0,504927874863552
0,51130498227134
0,509672341416546
0,510421060467102
0,502579982027591
0,493915609775975
0,498198424338408
0,476654131468315
0,484380306415817
0,490870395784292
0,485751128591937
0,479000283472485
0,491934065350054
0,481553153897275
0,47844589820155
0,468094764390719
0,477075282113911
0,476395475378066
0,474231015697174
0,455535709526556
0,454334893074484
0,460995349069817
0,456348841854108
0,45174444756108
0,453894364923192
0,447215191394299
0,444103524634611
0,440301033359221
0,443176563264344
0,433699461734633
0,429484462942801
0,429219393822047
0,42961423139149
0,424489191979613
0,428062115039548
0,421075808599425
0,42203689453527
0,420211660303861
0,421245555069152
0,412155836129538
0,406640938564487
0,406301001534978
0,414325251597168
0,402442408608091
0,402268365556298
0,394637808783287
0,388997080093569
0,391674388235257
0,390144645479711
0,385652018590223
0,391116408253054
0,383953837516908
0,388130071762508
0,384263354564366
0,376021044570435
0,371479038756615
0,372691253745988
0,371061857160695
0,37292278602728
0,368874629676147
0,36677113208145
0,357566571034166
0,362203219324785
0,359242056377439
0,358672485787182
0,356819430181111
0,34951385183124
0,344712417742408
0,353840061052682
0,341434400823395
0,338172592749273
0,340524410137678
0,345730359608705
0,335491616476138
0,337277203050249
0,338884723545821
0,335610223408441
0,324814541511249
0,326556868940574
0,328980255128689
0,332148323363208
0,326579017831513
0,325025298374602
0,322136853535767
0,318232701625949
0,314621876418307
0,319239047207142
0,311453174134513
0,316417420178089
0,315954264154657
0,30733673483316
0,305184427022506
0,309890907553654
0,30227038707144
0,303497236663986
0,293992595037886
0,29496314783111
0,295574939650663
0,292162665800395
0,286884468480111
0,296043442400285
0,293999118120576
0,291756390585709
0,289725229148235
0,287791896474679
0,281798261389026
0,282488362356158
0,276377187991687
0,280005322214712
0,275066409283141
0,270827794864321
0,268179192600936
0,272423953254939
0,268985805142121
0,26213821409698
0,261856706364592
0,263106547095582
0,263003595502127
0,264118275874499
0,262227322981828
0,261322099509667
0,253230337636354
0,261515024246267
0,262747599067441
0,255615208024854
0,249225427695064
0,254997055554142
0,245134538299488
0,244659158015971
0,243405739775325
0,238383183112747
0,236272680454304
0,238514000312369
0,237781874705358
0,241889432937355
0,234412803652087
0,237109755889369
0,237199316889147
0,229937964746358
0,22825531394668
0,228680685057091
0,228102138473878
0,231450320532893
0,22160640445226
0,224091632415417
0,224488100661115
0,222185255253922
0,220983877621843
0,224947986870364
0,218685493865821
0,219826923414883
0,220361723174024
0,2200299731358
0,214589943201569
0,214507945778452
0,2119457312003
0,210245777773391
0,207206843934788
0,210801134114268
0,206787970962948
0,206996684494694
0,20450604950961
0,205719737936375
0,20351781245204
0,206317424265901
0,20357618411966
0,200489420090878
0,196809435841703
0,202185515016322
0,201113597649816
0,197719604188893
0,195704472570416
0,199797586767209
0,197463446620208
0,19791826160436
0,196709498135852
0,200571064879382
0,19950872257356
0,196218940875049
0,194702395094955
0,204012198606708
0,201117597006526
0,199021048511063
0,201348980245829
0,199369061260474
0,194884081758813
0,197851886378485
0,20043269047045
0,200946764848594
0,199862036084062
0,208396009175065
0,202743170405458
0,19549500397706
0,198618792657017
0,208788924150587
0,203706242976337
0,202267680804736
0,207769018851301
0,212639038894331
0,210240989446988
0,213251993309197
0,211433463099383
0,211616492501869
0,206600851102598
0,21383908825459
0,213752344514781
0,220535430374954
0,221364664057488
0,221046638001315
0,219267218574614
0,224409470054
0,220787042817978
0,225108823034384
0,227143382504458
0,226119132280495
0,229093455323995
0,23363963278093
0,233710318708089
0,236686833875008
0,232251263250143
0,23669522249404
0,239355178953676
0,238410047126849
0,239935848950467
0,240933943094037
0,239192702498835
0,244666810821077
0,248883436917136
0,250494854722993
0,248430560641716
0,255350024777811
0,255809191656249
0,25687736877689
0,258225384812953
0,261398722932237
0,259553358871254
0,265415134192274
0,267142305859741
0,270819210921706
0,273241608493577
0,273137740063124
0,273115202425081
0,274134773107948
0,270790334769835
0,273336422073016
0,271752545215079
0,275133563231972
0,272447105707805
0,282477713753924
0,28608055637892
0,280994894038562
0,276439539845785
0,277659780691921
0,277880846231796
0,275443616523597
0,271950453363321
0,277882870238289
0,277532510091913
0,276272547921874
0,274574496377567
0,271867160243394
0,269869586824317
0,278072273159351
0,275100691641304
0,277913551949449
0,271882859235882
0,277930152085366
0,275570762936121
0,271217887718917
0,267854683498564
0,275159833492875
0,274252629020679
0,270128853074876
0,271081847499971
0,270511372622301
0,26593699445038
0,271238053148303
0,273209242273852
0,271016713174763
0,269675427086875
0,27390911089057
0,271333330259978
0,271511174787304
0,270461452447215
0,27030229179261
0,26925018592262
0,270574254120208
0,266200622490373
0,272840241932974
0,271318943067371
0,273021909320617
0,275270000592265
0,271140247602539
0,266303562997866
0,269222765796
0,26641005290383
0,268739884232286
0,267976929940176
0,266436186662951
0,266384600022257
0,267174307498895
0,264824249634004
0,268237410410502
0,263529774164281
0,26216508807201
0,2634217467562
0,259348619742867
0,254731811919761
0,257887821087095
0,256062909160289
0,252730722555341
0,249861282919738
0,2539485282315
0,247725683769435
0,246965385588558
0,24522864871577
0,246046588574012
0,240943461398889
0,240593270054781
0,237969658788335
0,232399162209932
0,233190241207747
0,23521116717191
0,228510022007289
0,224170972258917
0,225879786558259
0,225417869269901
0,217236214049077
0,217986042884881
0,218536639336852
0,216880782839084
0,215485001351049
0,213672837558322
0,203779219295056
0,20612944025579
0,204442930363019
0,203648228489948
0,198192816036449
0,198664134918895
0,199063029808942
0,198265535164278
0,194617228965687
0,192108246395496
0,192558356533092
0,1910583578064
0,187490857898935
0,190475145732882
0,184765564821315
0,185216944021745
0,18446198075019
0,178178002240439
0,17972049390353
0,182007160964971
0,175749349314221
0,179208949297621
0,175104274410717
0,177738656250168
0,173567156146365
0,172170027893107
0,171416889530053
0,167653056856624
0,167234560951253
0,167220005018881
0,162791064546341
0,163208167211845
0,162803179175921
0,165499135866363
0,160817373347663
0,161824642904446
0,162652057822925
0,159490313433921
0,156520413934655
0,159069528677725
0,160642903757936
0,159819135130623
0,158847792588941
0,160627441703746
0,155145805121366
0,153628928699759
0,15318059614893
0,154997682950417
0,156645541422864
0,153495957198855
0,14732152451538
0,150274446268787
0,151615579354551
0,152801356969811
0,147650198963926
0,147826203041547
0,144748713005034
0,146401702007051
0,146668089231847
0,143697568306519
0,140274105502489
0,145538574846106
0,145646799698566
0,14275665904041
0,143043544026257
0,145728184554287
0,138724266621752
0,137349700816116
0,138870435987229
0,139920966714355
0,139508194718545
0,140417503778028
0,14113554410169
0,138469799561869
0,136744360833165
0,137871581300243
0,134397869106886
0,134097884117938
0,130578040104548
0,13450476792073
0,135988182598022
0,133353504451484
0,131189590531572
0,13422807689979
0,130034895092938
0,131550797091172
0,127075190146644
0,130208300526409
0,128477468230019
0,126953032330154
0,129214707523252
0,129512118864309
0,129827382413887
0,128437317053736
0,124036106984425
0,126836893519411
0,127327329862183
0,126897348011992
0,124834181317792
0,124023012478589
0,122744980260104
0,124617776872496
0,121666524009993
0,125759933175195
0,122197954616202
0,12200296020497
0,123362796818326
0,123143492363847
0,122863554332316
0,125401957376941
0,1219120971094
0,12273224942758
0,123684877336044
0,121823252638033
0,118337393328311
0,118624122980203
0,120301908008912
0,1224838751871
0,121403511541657
0,119382244941289
0,119120668652182
0,120744970700886
0,118291407937622
0,116310538263767
0,118373562171925
0,123392096518484
0,117361386823067
0,116501384009822
0,117618417935839
0,117461094088846
0,116087318416576
0,11807486647474
0,118996337048882
0,118913755730722
0,116570185678651
0,116495740276248
0,113834275804
0,11506506646565
0,114706037679782
0,118552595454724
0,114796007910602
0,114326442286639
0,114259261413507
0,115251910345574
0,112092062028838
0,113219533654077
0,112648319698964
0,110033502887469
0,110104327155712
0,115084436842948
0,111420394297691
0,110875735339791
0,11154850067029
0,112396096793188
0,109427844015439
0,11043154257904
0,10928367225608
0,108069557679004
0,10918582470238
0,111018441325262
0,107544071270847
0,10890488179102
0,109033721811492
0,10645313698683
0,105055528845141
0,10549405794856
0,107444502788965
0,108911442122865
0,105450265971426
0,108063010242931
0,106355239339268
0,106628289811695
0,103323238329138
0,105029860021913
0,10451551373226
0,104286899700431
0,104672256757063
0,102893965023745
0,103034343419225
0,103233488098302
0,102038459207315
0,103285838746809
0,101175733464154
0,102347236016811
0,0981203435051018
0,10095243204896
0,0999457657130879
0,0950631578877515
0,097960119454317
0,0982583350704927
0,0953361058364752
0,0963616907944122
0,0979176562039479
0,0945857683920918
0,0933552646528702
0,098083557055775
0,0964348536074145
0,0972482411318424
0,0941166915295849
0,0923044427060684
0,0931773157675832
0,0944295415037998
0,0914855197469243
0,093209735185258
0,0902944793404211
0,0935166471575676
0,0908276228933643
0,0894554245994443
0,0925329541162063
0,0879726051380586
0,0879027543118747
0,0895848996154014
0,0877599560294709
0,0894695340541935
0,0865156997373816
0,0874751553840986
0,0857057322709459
0,0841474340292965
0,0850490619875768
0,0854863696543734
0,0815053181010468
0,0836464464412551
0,084081057376094
0,0828449337300584
0,0834238316776204
0,0836670788640045
0,0828416015385675
0,0865655041663226
0,0819533840483932
0,0811973497503775
0,0822641628489384
0,0818708567553631
0,0774670272417398
0,0795040131506106
0,0783178198361018
0,0798038885413005
0,0779929064165257
0,0769934917947897
0,0762317628192105
0,0779541570662631
0,0769428669532742
0,0768768259231695
0,0756820785596818
0,0759135253616404
0,0761342722548976
0,0752370631311606
0,0728330172623667
0,075031913368214
0,0742657751564767
0,0737994921389617
0,073082951407523
0,0731033888705045
0,0727029241014904
0,0725227841636322
0,070819869200805
0,0739707213372438
0,0719211523347924
0,0727398897392601
0,0688168165441115
0,0717796625506725
0,0712894127453959
0,0710001384524402
0,0701389979669908
0,0681296632114972
0,0684776493676161
0,0692275554243211
0,0697536845988924
0,0728285198716126
0,070036185393777
0,0665483931271189
0,0672757712709252
0,0672998225856236
0,0660065018983793
0,0700391873068232
0,0659030427091874
0,0663288655378423
0,0646450153966436
0,0676465883846829
0,0680004286969461
0,0654903389062279
0,0644449444132745
0,0637538228325467
0,0655971280716801
0,0668376664383785
0,065173720349129
0,0653686123352516
0,0628934807355058
0,0652109202739092
0,0651943871683805
0,0626413062152138
0,0627226389642012
0,0628844059680836
0,0619990126357863
0,0636757836378403
0,0642355277897337
0,0647475348924851
0,0606209288946441
0,06433042008532
0,0648336010872559
0,0627020518846848
0,0609727052865919
0,0634184891623005
0,0619608153288191
0,0613487481324676
0,0608447346158309
0,0632744881251075
0,0609078467647961
0,0622680182109705
0,0602539619234839
0,0613866555313415
0,0606562045336904
0,059564202262994
0,0597143209118476
0,0619625329416211
0,0579073620664775
0,0571365032782874
0,0598876677067204
0,0587381442118623
0,0581883437969386
0,0594781653368226
0,0587974804567845
0,0600161434497431
0,0591633534393997
0,0600239767813046
0,0597255977314923
0,0600373850742891
0,0573477333826278
0,0583398505587643
0,0577695885799052
0,0577298225028467
0,0567678703706132
0,0567993972436137
0,0587940017658061
0,0590478022708608
0,0570355630471
0,0591185623490505
0,0572482825919213
0,0571301009961385
0,054542813701777
0,056497706099135
0,0549400777999703
0,0558043883593333
0,0557433605842126
0,0571915718857567
0,0586424727048011
0,0565282212496677
0,0546893292050563
0,0570452893778654
0,0568348887219908
0,0569060035782843
0,0544472108698698
0,0559054313876456
0,0547600736514659
0,0549491602177801
0,0528572904555459
0,0550854764205967
0,0543824756620212
0,0539927637486223
0,0538614887702521
0,0544449770736475
0,0549143344388168
0,054118243747442
0,0515727168709641
0,053977956998372
0,0536972855995788
0,0524161584348957
0,0545319024576093
0,0528141667248119
0,0527295041498612
0,0537181564472964
0,0534616459859441
0,0533756578203851
0,0506689532453694
0,0520756033534252
0,050156651700459
0,0505258172061629
0,0510598908174942
0,0507459784453344
0,0475965743115859
0,0516119127143495
0,0518149490899074
0,0522352838909763
0,0519710685893935
0,0540957269016433
0,0511350270233939
0,0504023438216523
0,0506797572897817
0,0519909629281304
0,0513529008577751
0,0514357948497436
0,0500220147937135
0,0482030912257029
0,0473823190215606
0,0487241997191463
0,048125805063376
0,0479013848269445
0,0473191851965611
0,0462223090784909
0,0478107594994727
0,0482223470752126
0,0475532137175914
0,0493265020229153
0,0469365041365613
0,0474076154605389
0,0482551889797648
0,0467993433476958
0,0452211170442196
0,0470962285525652
0,0446559506139275
0,0461646698809976
0,0450588995662348
0,0447068580017247
0,0443552688142366
0,0472303457695467
0,0467261113334043
0,0449052774667347
0,0452585999154812
0,0466625590404922
0,0420786142605849
0,0427130460101433
0,0430324701938116
0,0442273980724751
0,0446977590250066
0,0412453074598115
0,0403866898717806
0,0431544247730077
0,0432197043991122
0,0455973548663973
0,0422705126705246
0,041950726618359
0,0415328521893931
0,0424584436946902
0,0427596724641023
0,0431929089797066
0,0411522039707074
0,0430251391901335
0,0403902300320405
0,0411895182001459
0,0429477703148016
0,0418651739742688
0,039270385716458
0,0388045540174393
0,0407265596871275
0,0412020497858972
0,0405086867261776
0,0423265764341329
0,0381825516562198
0,039447751238982
0,0388128878509197
0,0396800116415233
0,0379987574480224
0,0396406160038983
0,0380244974530039
0,0397856491314881
0,0397718398464829
0,0399569683297168
0,03725874927553
0,0370065840880623
0,0399869988033216
0,0385408128402815
0,0369330564556666
0,0383395264304955
0,0370494960379419
0,0366424816429145
0,0380181820951439
0,0381914878691559
0,036662341981434
0,0369150144034538
0,0354324720736077
0,0369621062722245
0,0371359122273456
0,0380869110391611
0,0361944064739926
0,0361021863829751
0,0354231505520471
0,0362723887023436
0,0371880739215306
0,0389696655608946
0,0366952203126184
0,0365573820641018
0,0346694168965972
0,035504580061758
0,0361690723411285
0,0364581185748009
0,0335822768258488
0,0339532056828932
0,0343848974303861
0,0337261435829877
0,0346998445470821
0,0358528019015663
0,0331169750810089
0,0340617209648362
0,0327939328855837
0,0343611371601525
0,03399395235432
0,0339163558305683
0,0335141092824165
0,035409013095386
0,0323564668458474
0,0347166392560976
0,0329393308434322
0,0328527514085794
0,0327302917121335
0,0332271549740414
0,0320684245046199
0,0357802425279127
0,0316495178477331
0,032957894369257
0,0332066221803928
0,035829870872844
0,0309401340173893
0,0341196516080363
0,0322245897755875
0,0326264048146538
0,0349135181963585
0,0350757782726856
0,0290854198236412
0,0307098832698406
0,0283410845945981
0,0309550754200737
0,0297645478078577
0,0320748432345734
0,0321469303270574
0,0323996096357243
0,0326681249961354
0,0319071430174267
0,0286872548966439
0,034561613183313
0,0349190598602083
0,0340381858038251
0,0293640102082327
0,0323369833074308
0,0304187235680125
0,0319543693817471
0,0277947219345251
0,0300326783794403
0,0305559674771014
0,0339588029471901
0,0291391448172133
0,033174182753468
0,0278028813738824
0,0317384024976481
0,032252501052808
0,0309895587241534
0,0290348508385401
0,0346459263001918
0,0338030791507626
0,0335817464027263
0,0296977045596066
0,0317711118540531
0,0292975461809513
0,0318211079114865
0,0297109240495503
0,0271106602713538
0,0299206641002784
0,0304826158707319
0,0293491286639682
0,0297578659592445
0,0334629039140115
0,0294220272927174
0,0318919105423678
0,0265325426489212
0,0352880452016739
0,026705718921968
0,0337894418847488
0,0241978607295493
0,0378418523285889
0,0261596536822691
0,0375412932077048
0,0193199404283886
0,0372433909829718
0,0240725575553226
0,0340968628619999
0,0221782659242824
0,0337749569868665
0,0247878084262489
0,0324793139781443
0,0283534791962069
0,0315514476601735
0,0309192855946535
0,0298375840482449
0,0315955385879768
0,0302804457511946
0,0341578395972053
0,0285937827635056
0,0288448883467278
0,0285986916953799
0,0301223592949424
0,0326226116585344
0,0329024923265625
0,0319889729125619
0,0300105241982464
0,0313383612814303
0,0297263047249241
0,029307623703831
0,0299425786532343
0,0299877425344125
0,0298133838050562
0,0296756293241581
0,0291740406740107
0,0297216504433751
0,0300907107250214
0,0303485783769728
0,0297558559101404
0,0282566618053647
0,0286912768683177
0,0289520879235825
0,0284549178973907
0,0300181852093994
0,0317307241362631
0,0291367215591943
0,0293831455163081
0,0301839341367767
0,0309192977972098
0,0318919832749884
0,0293288763746389
0,0291277723268826
0,0283813033156787
0,0303070114444184
0,0294632466929337
0,0296062994916223
0,0298051831098859
0,0291438126640214
0,0276288189473536
0,0307052855788944
0,0310064612074914
0,0311194105084007
0,0313224019602455
0,031132462660302
0,0314910947500228
0,0305585092713725
0,028585842776154
0,0309517602905981
0,0285453095910017
0,0296628144319209
0,0305409406084708
0,0290737789116296
0,0308162318355351
0,0295091961655944
0,0284649429650567
0,0280875463270407
0,0316711221220527
0,0312830160266199
0,0291589976048335
0,0301258871215784
0,0313746697554845
0,032252662933345
0,0316170779879266
0,0296976198626996
0,0310249192875052
0,02917946931731
0,0317198706984198
0,0291080768797531
0,0284170915210293
0,0299777957536759
0,0316070823482834
0,0310371020583416
0,030114495381516
0,0308895450955612
0,0301374076285433
0,0315443802801215
0,0294422984939825
0,0292808348255055
0,0303410779290587
0,0304203237824399
0,0309234658259369
0,0296347099484103
0,029199063998633
0,0308250702149159
0,0310823184294592
0,0315954287362375
0,031283383819264
0,0300581252114193
0,0295106402480993
0,0304380466140726
0,0320660210052601
0,0310107356539932
0,0325291114054086
0,0318611948773744
0,0323756706643488
0,0327244358559219
0,0324164812702317
0,0311437957630537
0,0334807908173887
0,0333046869541109
0,0310288140100097
0,0296451733339758
0,0319494327786576
0,0317861992124388
0,0316861071729597
0,0314596659639346
0,0313509474606281
0,0314585481372059
0,0302217928583632
0,0315690598859788
0,0342616580248542
0,0316210824748719
0,0315389797572741
0,0334014727970051
0,0324532239625155
0,0353797054055857
0,0330851553125849
0,0303380023939385
0,0329417606526167
0,0312350283739423
0,0316041853669894
0,0309576666607751
0,0319607035387595
0,0313242001352324
0,0318738319748978
0,0326229102596986
0,0313343952075389
0,0323249979005268
0,0339287886716237
0,0334153439718759
0,0332133899100992
0,0321737365354607
0,0323637170289892
0,0334607290317841
0,0339300418339964
0,0331954445588194
0,0331394195950829
0,0352368737508453
0,0318405945275704
0,0339313032226467
0,0340999171306942
0,0330476755817921
0,0324876457710173
0,0333122885633394
0,0324289966800161
0,033790968962496
0,0322757946194923
0,0330761498088516
0,0345196826197552
0,0340006819672901
0,0338773298818238
0,03332435794103
0,0356941280846791
0,0327697790991046
0,0345690202134627
0,0330935123350633
0,0353308908494487
0,0343739407593176
0,0344454257119864
0,0335766989008855
0,0343999105267656
0,0351464065044959
0,0335269761000231
0,034544219249189
0,0346710514500643
0,0340306459224227
0,0346988119446955
0,0324122842218818
0,0338304665344278
0,0337909429620888
0,0341925865855854
0,0361208071761788
0,0357160890947172
0,0353454481858437
0,0330142612000367
0,0305408297843279
0,0340394738086238
0,0335979870709766
0,0324355698159634
0,0333846594677743
0,0346231286573061
0,0336486048476853
0,0330115957066787
0,0346690806725707
0,0333022355257218
0,0324279047158366
0,0326975132950988
0,0318441001452992
0,0325659995179794
0,0313657123688655
0,0325960201840675
0,0322541665100791
0,0320686486215055
0,0333700615399269
0,0339904055464092
0,0340928288141264
0,0328786699610693
0,0330710660080802
0,0334613433957356
0,032718448741597
0,0309690128853703
0,031070656995856
0,0339242415364608
0,0327767814207568
0,0329719221370344
0,0309023167395271
0,0318834593799806
0,0321289274000755
0,0309441907552831
0,0308676100347458
0,0316038485829987
0,0321411448548459
0,0339197719827729
0,0330389675384545
0,0327022661759401
0,0336493801903538
0,031739791126006
0,0325066555086382
0,0331039657352798
0,0318586564280209
0,0311550663925586
0,0328213665462522
0,0319015164164261
0,0312363135275503
0,0313113561506847
0,029120723670933
0,0330827045452246
0,0332889059393279
0,030202293501862
0,0297729474644429
0,0317296613513827
0,0316361345299258
0,0279736287414331
0,0288971996901689
0,0332365202946731
0,0305894868241905
0,0298584839486969
0,03083767284048
0,0331737398522098
0,0295733087669179
0,0315531339589254
0,0333537691901792
0,030329696195128
0,0298536775644543
0,0323944613245612
0,0289387115091862
0,0307111378720799
0,0314304045723986
0,0314737352503921
0,0309319319231968
0,0334633002356551
0,0290141457777279
0,0294402150226929
0,0301657352718319
0,0320411996793901
0,0320847594220357
0,0318450606905878
0,0318091080865549
0,0307063510392962
0,0293667058765785
0,028065599880054
0,0296876557757962
0,0296118669010081
0,0298269821763247
0,0286335495230401
0,0285583036041079
0,0294584424442412
0,0303166478024868
0,030892668447056
0,0314623711747774
0,0298158442231923
0,0308257031046014
0,0309684319372472
0,0304114569700674
0,0308758590317776
0,030342771625614
0,0292202084162954
0,0291940716679889
0,0280897777940319
0,0299082714965412
0,0317043162423371
0,0295352454277901
0,0313553189282866
0,0299860823430194
0,0289718333253507
0,0308262920682619
0,0297662072577798
0,0274803872182637
0,0300604108979892
0,0290462151598856
0,0285470487781676
0,0290443134530151
0,0281158136896332
0,0272397134023678
0,0292523923599292
0,0282317620579012
0,0282177847489405
0,0295049465319333
0,0286339945406315
0,0280146983390104
0,0289289481443774
0,0291077557575468
0,0272743933118688
0,0268432527663565
0,0254909744416867
0,0276151305041296
0,0277237990082749
0,0277427464154294
0,0265796325955777
0,0273736261492116
0,0299568343484497
0,0285639520603117
0,024612796021657
0,0273541696070621
0,0272753644313528
0,0278300617559888
0,0274971345406253
0,0265605233191545
0,0271520942784228
0,0275843344031148
0,0276668697195862
0,0255613189035299
0,0246500943290776
0,0264662599611656
0,025875407121184
0,0245007472466531
0,0257041480568662
0,0273776706245489
0,0249805472951839
0,0236231205780488
0,026028488292305
0,0260384240489989
0,0261294196775984
0,023758615219959
0,024842360786699
0,023839874585736
0,0264191489602207
0,0241314801782508
0,0262950549367282
0,0256325714375425
0,02611247969512
0,0236344988921456
0,0233343460899161
0,0248861502482602
0,0245823214816671
0,0231680361356582
0,0253028922007712
0,0275630475176022
0,0267056341498312
0,0253950511079564
0,0261044046603118
0,0233943245393627
0,0242024383297793
0,0279423434969631
0,024835329490603
0,0243250971894386
0,0241435288504505
0,0241822879081881
0,0244782449218717
0,0236038249385016
0,0245311621360971
0,0236961777861529
0,023246769770727
0,0249178749800425
0,0250258464329296
0,0233697011537121
0,0216418837890895
0,0229760621058329
0,0227352086919163
0,0236816226374407
0,0234852596205763
0,0230195032408948
0,0253017182252734
0,0256831531517443
0,0238704271296933
0,0233210239257438
0,0249282816139395
0,0227800543290743
0,023472535027717
0,0229886190674731
0,0233740989225344
0,0215156436887031
0,020224927393599
0,021287064141952
0,02152906169985
0,0237070652014424
0,0237964486785692
0,022256421861013
0,0219527895403158
0,0249898116296403
0,0218114392600641
0,0220699577425525
0,0235697824964436
0,020413223109175
0,0238600529282851
0,0222968229514673
0,0245771767772749
0,023782364805581
0,0224026314297388
0,0220207115910086
0,0232578392701011
0,0227867841548784
0,0235451461969991
0,0221852666084029
0,0243685003541832
0,0232906067048337
0,0236180933956972
0,0242109056207042
0,0238792718484207
0,023535670853171
0,0239865162620247
0,0241455118987477
0,0236739979805163
0,023302203941451
0,020806251099313
0,0212470320446322
0,0258006750471032
0,0189958195316147
0,0217255733177889
0,0224027097647344
0,0234698112040292
0,0216303454089254
0,0237713060803972
0,0233992954990677
0,0234081611588191
0,0225306311689961
0,0215848174750104
0,0217672750507828
0,0223258866781002
0,0214378881568618
0,0224958357912689
0,0221922536800436
0,0235637590322624
0,0213696805155058
0,0227973244361939
0,0219440095789206
0,0223527290915995
0,0228067290533698
0,02152846008075
0,0219193904530526
0,0234386907030834
0,0218909219758593
0,0225588825040378
0,0194868231943937
0,0233481496415469
0,0228668694591639
0,025498297288349
0,023856426799258
0,0219196628623658
0,0221890127486588
0,0212166647632391
0,0211491515739408
0,0219311999321634
0,02236966045289
0,0206891173865286
0,0224860378828459
0,0220351127456093
0,0216651249030611
0,0225877484569111
0,0246690759362621
0,0227991649440827
0,0213403831884387
0,0221517709889048
0,0203519460506355
0,0214486699496588
0,0202335700850295
0,0205139312806904
0,0219368574131825
0,0248842587146979
0,0200052042757641
0,0230471290364942
0,0249796486899184
0,0207560223845376
0,0220607611747809
0,0227982171149385
0,022729494847044
0,0227413810758067
0,0221649165238918
0,0226002492760368
0,021799541282229
0,0237829492769758
0,0230370830848577
0,0238503279103243
0,0220912925558376
0,0225032686682623
0,0220668307678896
0,0226681460635416
0,0235603332628032
0,0238458589604802
0,0205059476469844
0,0223209360890228
0,0245519858585084
0,0230753528966481
0,0231801038429909
0,0214037699984351
0,0293701796130315
0,0224203399786749
0,0249635809635724
0,0230242919728696
0,0238655721129675
0,0212156145804037
0,0207197952144982
0,0223312040430642
0,0234939924994039
0,0240868847530451
0,0229761260392557
0,0219431963191173
0,0237644966226902
0,0234999004297706
0,0230057889371283
0,0243097635727562
0,0236940083053734
0,0217154467711971
0,023278305847499
0,0217467163390768
0,0268623083260872
0,0263112642223137
0,0212717609649952
0,0238149024963438
0,0233081553952849
0,0247128787725841
0,0228739173594758
0,0257876091766592
0,0248267096622239
0,0237225059137461
0,0244659836347119
0,0269217325520188
0,0253405032686094
0,0233616060513873
0,0252324949042915
0,024032177514385
0,02579529909163
0,025337492476691
0,0249360044353936
0,026581679584954
0,0247574020180499
0,0248726210103217
0,0247027967885434
0,0247159091751507
0,0248157348315947
0,0254278514402939
0,0243986215083726
0,0252963739629793
0,0271504705990383
0,0266109570612848
0,0267088019902612
0,0269826268289028
0,0221239494283816
0,0286095417098621
0,0225229039450376
0,0297495122429183
0,0282752682132869
0,0289659074399716
0,0300651739747642
0,0264052782422219
0,0294857057682344
0,0256818910027907
0,0258972792058706
0,0256051594816026
0,0293516677657465
0,0261801531227708
0,029114829377359
0,0277265536649921
0,0291446262786195
0,0272329749638196
0,0272964324288621
0,0252981160124313
0,0273288089051234
0,0276623098881656
0,0291136085972084
0,025566722728422
0,0287476485216603
0,0316335096215797
0,0316216512909824
0,0328410594291238
0,0281126566056243
0,0300272653683759
0,0328993361562561
0,0291141669162117
0,0296714781324009
0,0316093479567669
0,0313563833385586
0,0274159329102215
0,0323079908982267
0,034599552183703
0,0310682648015689
0,03255674502041
0,0291047002397188
0,031337868486829
0,0343630365327314
0,0304467907890172
0,0324212711212882
0,0325416271570572
0,0340886369790417
0,0274748875038465
0,0407519274856549
0,0317031269457477
0,0383095006445439
0,0359758748722644
0,0403302040761951
0,0372766725299989
0,0367863942774457
0,0358613867315952
0,0399717008071934
0,0393616324751376
0,0374479661170041
0,0375088179581437
0,0439173243092654
0,0395159409092628
0,0392508584430591
0,0439558547998935
0,039989114481306
0,0426075260264653
0,0485838679085102
0,0472976118091158
0,0427148113860394
0,0431220923987484
0,0462600482009902
0,0471630411830251
0,0446426455599055
0,0479881728197958
0,0479070385756917
0,0494456563317636
0,0493835962954576
0,0493270142663405
0,0510955258991316
0,0497947834962998
0,0525637989709592
0,0475784379565775
0,0542732580621436
0,0550646135757973
0,0586314433782422
0,0558925905567093
0,0562735099943092
0,0584390391879133
0,0566985106383373
0,0566468159784001
0,054982356106075
0,0579096104902064
0,0607601350375172
0,0614678250386397
0,0615664954224695
0,0612620737720878
0,0673657476106398
0,0651318547213612
0,0680879978766426
0,0678359081017452
0,0677017690104477
0,0649392075833285
0,0732625715789714
0,0878465804229918
0,0741245906507404
0,0832882680575853
0,0703005785711374
0,092316453067965
0,0877038557186892
0,0918301434305725
0,0949143777301397
0,0942992434243393
0,0970946868120182
0,104291600368233
0,10289490649678
0,109188735630001
0,111134423541942
0,114535229276249
0,10490982373513
0,133241337692648
0,130991928259007
0,130106004064782
0,129773623555569
0,139201747968887
0,140767756835311
0,144219071453429
0,147505576229924
0,15588217868938
0,141387483786453
0,169939148853113
0,166274448162625
0,169690174817169
0,171381712351783
0,176105159915829
0,179625603657863
0,176479860653425
0,196751698053812
0,190983711758888
0,19809053352782
0,19722229891454
0,2021894402555
0,203227812824181
0,212883426483244
0,213833441913967
0,217098996200854
0,223069403500438
0,220661439998731
0,225842534378471
0,227807484530008
0,229979204549643
0,228481770374212
0,226387315164498
0,245831387833925
0,265729485250775
0,252657948063396
0,235737271265402
0,242629972737084
0,23817145517379
0,243820387965701
0,242292633662118
0,238893197890504
0,248673842041198
0,244217967575163
0,243082247094355
0,244603899951175
0,244257133765492
0,243688689090795
0,242123462356554
0,2391575654929
0,241217524901984
0,244729228276709
0,237821536914985
0,261055623844671
0,240265422432652
0,240820934284492
0,241364654802436
0,239482421788061
0,238796267883165
0,235291762303429
0,231669853020451
0,237409328915388
0,229726260112648
0,224567457172743
0,22602401834423
0,223360862877956
0,225617131036415
0,219481979694069
0,217471974215277
0,211152037889395
0,21246099716465
0,211176899537681
0,199938492416693
0,217564574100981
0,210219156488641
0,204845783806786
0,203641531285727
0,201602111975805
0,203468617790132
0,199553020892904
0,199312747466306
0,197828554601781
0,191353314941868
0,194540657588944
0,194907522747054
0,192454689908227
0,19115146493397
0,189982888147224
0,191457128429462
0,18608884529872
0,188103486324426
0,185757726729764
0,193003472310564
0,188076506904643
0,185968432085313
0,187926546031867
0,188432748556314
0,184767298250937
0,185337542209417
0,185089331015102
0,189852456466989
0,185069708732064
0,184249072192484
0,184847840230443
0,182937046633607
0,183928774139182
0,182735179676908
0,183930952489626
0,184588035586901
0,185876094798599
0,181648405626949
0,186068944836601
0,18369100045432
0,178322773001829
0,182405982751087
0,177008224776683
0,179320480022092
0,185482439617291
0,175663590815763
0,175428923402197
0,173577168426302
0,16984819350851
0,169280322543305
0,174579480390186
0,17790425214009
0,172841345723304
0,170100156665397
0,167900784954877
0,167451495210405
0,16699851035341
0,165313088764861
0,165934407549265
0,159237804001171
0,161635516328787
0,185455779593281
0,153200156658256
0,168572070480969
0,158136610963289
0,154219840244665
0,153189808951304
0,161799085999379
0,157020133825642
0,151145804911352
0,153482279915651
0,150719641740855
0,150581857798836
0,146243466714003
0,153202237597443
0,14531953579584
0,144189973411522
0,148097035987777
0,142748234663338
0,141826861584885
0,152052131577378
0,142859955443713
0,135243332920026
0,148608498937467
0,140886186441878
0,139322041353826
0,13487330841986
0,133210007729966
0,127712941510384
0,13781104769724
0,135437525941703
0,128130751674465
0,13130944985323
0,123034833885365
0,125491905744239
0,126508206638073
0,122818113871684
0,121567908591281
0,126394739299272
0,122300202131187
0,11296377474932
0,117892740457737
0,113767923153076
0,120255181074762
0,115132646735851
0,118348799712119
0,120421058629865
0,122568809066462
0,113921820799001
0,11526105965071
0,108760436773027
0,104921837198102
0,110169614321199
0,110659457007047
0,105701318481451
0,110823238337574
0,098162982332447
0,112212605139017
0,105453795706714
0,112135779212601
0,108703562894536
0,1031108071749
0,103138128603855
0,107200301641525
0,104377467773825
0,106992392856956
0,104724715924924
0,110948362533054
0,101019124681129
0,106785017662875
0,110552036824125
0,106729824458042
0,108359786344667
0,110916781486362
0,112439579418027
0,120265563264401
0,120306583741626
0,1177696671074
0,111756608631483
0,119338803554287
0,118784781942757
0,119856239394402
0,121865123899188
0,126376439285882
0,130251231468715
0,135719314822564
0,133159372360685
0,134456486708319
0,139506838138169
0,143848075818515
0,142425279871123
0,15349457704275
0,150588506075037
0,151508371329141
0,163453681850933
0,161838364925358
0,167711662435539
0,16729012157082
0,169961817268075
0,176514487017503
0,177725508772103
0,180167720241786
0,180852855819931
0,188356223504036
0,185626122659056
0,188171137743198
0,194297900169216
0,194011573331334
0,196754576127929
0,197612571295334
0,203254901904409
0,202407458040968
0,214411802157361
0,199672654899973
0,205544332048336
0,203710387781715
0,209121532150226
0,209655978521044
0,208576416014253
0,213216279254579
0,208210497578784
0,22047200598706
0,218044103323358
0,215537873904804
0,218549004797152
0,217416477994836
0,222660615840658
0,221641910733907
0,221902676325156
0,223917604759446
0,22763313140221
0,227000705182047
0,227540896749185
0,236116935154686
0,236164344062186
0,23247230653746
0,237467803331843
0,236170347606769
0,239007014625139
0,238600426790454
0,237305331403022
0,245506488748228
0,243164295745314
0,248807375165233
0,245114431535853
0,249109856957552
0,2500587887692
0,257667251199149
0,258306964122041
0,255319681656096
0,258143860123409
0,256634657545196
0,268250047590918
0,262268316121292
0,265368428311599
0,263330005962448
0,268092543869264
0,265838161514164
0,265401160181838
0,265007432896805
0,266439002331443
0,269246436914238
0,268220149827823
0,269903785847792
0,267615554778876
0,267455054084213
0,264703782735411
0,268514129646037
0,269354410244647
0,267619363036802
0,263271252050239
0,266254834628011
0,25953700260736
0,265481662644774
0,269673723790755
0,261282805510669
0,263739795567095
0,25996788216012
0,262237792817209
0,268608499539611
0,264089942194148
0,262736700866935
0,263179907928875
0,260449885520203
0,264454998763058
0,259990912040111
0,268117164315789
0,270649838636124
0,266784821696925
0,265924776096717
0,269643658171085
0,270133556545068
0,270358101825937
0,270919728463568
0,276181328026161
0,275247149822059
0,271639520429333
0,275390272595361
0,27641733176134
0,274219387738877
0,273481918389232
0,280221752002651
0,273577690357656
0,276419879813779
0,269264750557703
0,268724821630238
0,269344982120156
0,26693517815648
0,264943593046875
0,262022187868073
0,25853391279608
0,254013914304845
0,257533101785026
0,252264501283117
0,244428154503613
0,245414790525994
0,241559750369717
0,241203766289986
0,23812292979927
0,236296138774302
0,235439355172775
0,235176451575115
0,235841143942333
0,234831725046445
0,231878851713224
0,229725344193749
0,232064399105095
0,234193681098047
0,230996903413081
0,229151264614707
0,227009148398684
0,226850000473906
0,227575363642645
0,225978563776904
0,225804860048265
0,230625931207375
0,228640363847829
0,228432830978907
0,227848855557373
0,226176616604889
0,222369558549564
0,229170773376001
0,22532103994298
0,22532035858189
0,22522502300846
0,223315187751661
0,223024675711463
0,225799866639845
0,225641636680578
0,223911761562273
0,22264254235343
0,223886938397848
0,223999794637819
0,225052356729779
0,222256127952753
0,22314747290141
0,222989368584685
0,221542056633935
0,220969690548593
0,223842299104428
0,223809220419388
0,218869777750773
0,220569340605824
0,220391983522757
0,224023735935345
0,222612910640228
0,221888521730736
0,219321932447677
0,218895509046038
0,219504344667556
0,216538571780538
0,218891419518521
0,220619236781896
0,220459362701368
0,218515803384584
0,218273857855039
0,214715241683832
0,216267837098875
0,212248956230606
0,214807914309643
0,209887400665979
0,209510926159825
0,206504890611431
0,206097250561968
0,20316913647375
0,201823524792604
0,19831901617834
0,197741095566257
0,19684337801305
0,193999832639513
0,196175760277227
0,192546668477092
0,193265469200203
0,192904299160533
0,192422317013266
0,190768951750895
0,192706357828093
0,192488241138418
0,192361874658257
0,190722678205762
0,191587394236724
0,188109033324447
0,190510221131646
0,19208949346148
0,191570010429185
0,192428109017809
0,193606000224509
0,194113900407512
0,194023970442823
0,197629294136279
0,194287353104834
0,196651508989822
0,199035983405452
0,196719369627634
0,198799469293711
0,198311174918581
0,198676091832592
0,200224583203523
0,201651281751745
0,200767618937713
0,201774298438976
0,201756506871846
0,20187910764217
0,204039074330886
0,206362425955024
0,204880489212471
0,204531712561652
0,203886650573182
0,203851227779641
0,202766449240406
0,201815651824955
0,200322307487222
0,20265731990904
0,201240431028266
0,200840382351478
0,197287246582788
0,198963941590803
0,19713378096784
0,19815111210757
0,199146763590843
0,195211547407202
0,194953028767691
0,193415404870493
0,193890750935108
0,192276617622778
0,192351542022521
0,191539699826824
0,189950918666743
0,190629560898344
0,190042907675016
0,191154096480314
0,188143951639537
0,18646709294989
0,187958489575519
0,188773371072557
0,186761718327416
0,185533395326706
0,182206316816929
0,184081643645355
0,183913039917872
0,181715845095064
0,18293568367045
0,179383866605487
0,179928566580959
0,179254909449282
0,179440345072703
0,178237081837064
0,177436456530163
0,175242811989659
0,174939900189109
0,174330352739967
0,171906358223515
0,17202582635014
0,170745359637064
0,170296742647347
0,167864449466416
0,16775703776953
0,166525520429422
0,165587976856649
0,16373820834258
0,162565211532467
0,163386980400923
0,16061221293121
0,162064369916521
0,161289843324126
0,162460415176492
0,161426645393067
0,161923276455034
0,161207540469457
0,159127578931217
0,157734103112211
0,15852278851264
0,155247733940194
0,155627349732942
0,154789859970394
0,151088959348716
0,149004136711183
0,147670051723928
0,145211334059512
0,145139350266846
0,144812323232181
0,145564055071099
0,143217585243137
0,146245525576698
0,146295031980806
0,149163981659419
0,152554431410096
0,157940984775419
0,163648360936666
0,16798658060304
0,172628585909657
0,178534251533379
0,188997131756155
0,197375239351907
0,203765771488964
0,212571819288763
0,220787590787189
0,227491805010541
0,239573678143422
0,249594597290137
0,257336647058308
0,267512081130754
0,272451788555169
0,284055713307494
0,292973621709581
0,301213752208188
0,307822396199926
0,317121076590759
0,323380033142248
0,330828846852911
0,334134976248562
0,343772741419445
0,349864780242014
0,354805299399659
0,356940005200987
0,357323903235444
0,363427677355401
0,366702816331599
0,369435350382701
0,369513610727624
0,372626885937983
0,374926340194279
0,373812171599386
0,370626193641481
0,372562034584175
0,372337164354533
0,372052091500367
0,373031976196777
0,371864321512866
0,371732227303721
0,372356143929883
0,375974253567599
0,373973129625587
0,378999412313526
0,38169320424599
0,382542809110618
0,384320321573423
0,389865892281943
0,394119869289574
0,397814133221118
0,402624631517449
0,405675413865825
0,409269532025942
0,417358357032267
0,420652761960484
0,426464960428618
0,429261853794769
0,438609835243739
0,446708881616121
0,454958122918358
0,463348304882777
0,466372056962057
0,470812696879703
0,478057726394435
0,479614162346599
0,483295774578658
0,487590332313117
0,483878578856125
0,486374926705428
0,488556999275291
0,481011752014574
0,481983521449047
0,477999190524286
0,475991021027192
0,477193349564568
0,478975733557586
0,475143928409993
0,476141976168272
0,478088128307278
0,484818214970247
0,490706048984004
0,496126715883309
0,505195605251344
0,510482120101106
0,519950572395975
0,528304168446705
0,54304818508848
0,55169899324218
0,563096068723078
0,570420057627227
0,581658453545933
0,58532182057511
0,593130784430616
0,604960381336919
0,613297004169265
0,627017040839321
0,627459413305737
0,641093844471685
0,653900845485358
0,668993096084118
0,675019738925821
0,6911671421651
0,699710402796065
0,711799037528103
0,727766324547538
0,733885566727658
0,75000150836017
0,763877650931446
0,773124974419893
0,781336894498824
0,782619859513536
0,79312232377838
0,800307500496066
0,8083495174417
0,82742051567012
0,825037617424698
0,822936842428201
0,831056756532872
0,811199998941904
0,817328223079849
0,812611390109033
0,805027466686606
0,799249360270313
0,79835759649105
0,787777732568005
0,78520214435826
0,781498227769668
0,766591229663059
0,776469381087116
0,774410944417084
0,771203059188354
0,779901709496053
0,771506845599064
0,784499090367201
0,794958343105426
0,798810323041011
0,802353765040699
0,807178503440674
0,798231118107901
0,816579995399867
0,823001119545717
0,841557263519877
0,838757051963388
0,841785022970495
0,839939883699794
0,857108614622491
0,847857544245683
0,849572230962382
0,852612391645456
0,862872678894026
0,855723335541431
0,855978256889944
0,856893693733359
0,842762870089682
0,849505958192973
0,851675029142833
0,84232748273832
0,84763333556075
0,842218853254594
0,841501246211832
0,838202964347227
0,850073543023887
0,826632587003086
0,826912127627763
0,819669170670828
0,817861124381505
0,81109584671537
0,805708967674026
0,791201681639079
0,783363784382914
0,772715927051572
0,760616771695949
0,740540215206343
0,738339077321495
0,716906656634517
0,702903064570176
0,673304891830849
0,660464912196649
0,639513932147873
0,61315687643619
0,584446993596703
0,562556566539701
0,542530434275719
0,514117611466122
0,496143086225989
0,480488727746678
0,461578536722898
0,445086040025789
0,440833352909046
0,426321026686543
0,422309529010165
0,420304768338552
0,417118838442007
0,417951423565543
0,407911941720295
0,408119179617945
0,402388788081015
0,400895897444317
0,389014930170144
0,393986655339495
0,383243180390479
0,381003673970976
0,372136876374306
0,362357449773931
0,356054484943352
0,35355840806241
0,339924241977042
0,329000065879789
0,326019878130013
0,313880623471731
0,306007817355169
0,295410083357524
0,285230662341116
0,274275613873495
0,260637593788058
0,247471479052692
0,239223376476758
0,230003123360076
0,21696100233279
0,206573015724965
0,199395428710942
0,190439998810358
0,184158810838761
0,174866502889618
0,168501527222792
0,163097230142319
0,159814419690419
0,150336538980324
0,14711622549159
0,145868721359621
0,141957978874761
0,140733032677594
0,136025092818966
0,137419671827108
0,129932982230342
0,131371983317063
0,126576905733011
0,131798831845081
0,128192023400358
0,12993298469357
0,130119539656443
0,131658782127716
0,129459597982419
0,132869152510591
0,135399267229813
0,136990394516378
0,140155006163643
0,138818965588049
0,135355611978965
0,139055780203158
0,137568437870202
0,138457234949507
0,132521590262747
0,138082283890373
0,135866568009154
0,135684242231185
0,131351824789465
0,133577354745326
0,127910891976167
0,131335509746545
0,130918457318911
0,132436382028899
0,124977700700787
0,130109134006364
0,130355303523561
0,127175484581175
0,132160365837328
0,133252311592877
0,133372865605326
0,130624942329375
0,135536759222268
0,138559172428973
0,138046398623495
0,140554921293316
0,140027060475575
0,141117041645905
0,1430863661782
0,143892023955627
0,147843041572824
0,143714667064418
0,144850878858103
0,146460409501621
0,147079033167665
0,148628967822589
0,147299109489549
0,148352476615336
0,146673665967535
0,15292285859465
0,151305657166827
0,151748401006574
0,153788186482367
0,155192616237623
0,152148697040284
0,159549853817636
0,15755609666914
0,167636891409112
0,167017159813583
0,176056098069038
0,180038030647204
0,182412684060327
0,187341352709045
0,187447250476359
0,197860481711404
0,200897887952186
0,207444210492524
0,207599992565531
0,210667081918654
0,208929831675457
0,208825697162063
0,204871489777686
0,204086331143255
0,20251862378419
0,195881854134547
0,191849616195313
0,188637994780216
0,185866967737359
0,186930150699766
0,187126799616759
0,180248872239028
0,181261541666986
0,185772108293397
0,18592062487698
0,182524800716414
0,191376202535606
0,183459791547838
0,183096506546873
0,18387531177767
0,185803890983782
0,178473394852787
0,179854955199944
0,176834598136002
0,172692464608408
0,175798133388969
0,178560194932556
0,167624811188725
0,172284333515481
0,168198180493979
0,170147790013241
0,163492133917166
0,161796723326305
0,167147660548898
0,162779084554376
0,163633971881691
0,169499945671084
0,167197105485672
0,167785099656154
0,161909787812738
0,162140271838187
0,160937208834073
0,163294327853303
0,157878879145754
0,15437480341502
0,165574057318269
0,156415904305099
0,158737233274317
0,15381142039487
0,150978803757612
0,15809646944879
0,153220232454461
0,150407337187881
0,152822267832202
0,158676128360408
0,150408250070438
0,153799850875208
0,153416449014649
0,14069045790997
0,147322781955364
0,150229427525823
0,143518017778249
0,151144333518192
0,154674477566313
0,143821175015815
0,152520439403333
0,160687337032517
0,147358075363199
0,156975765535506
0,155496330218031
0,156351242260187
0,154008224097641
0,155317734293207
0,156836588363413
0,15255475704502
0,149500253824063
0,156687186828617
0,15104025483659
0,158446494249287
0,155299086038095
0,151744860572627
0,15847751167264
0,16706758319622
0,155869131541475
0,165735820723274
0,165263068677922
0,162833598951338
0,175250895070787
0,176391115062367
0,159979603153694
0,173864987553157
0,171361699394139
0,174705699266076
0,176369233774319
0,179364226550872
0,187115399705821
0,181120304310367
0,195225881028168
0,192697664183832
0,188178667719878
0,204347369093805
0,208526896619121
0,201041296506374
0,217916873413474
0,227252367507428
0,225337373640574
0,220926594531868
0,22794518062868
0,241834630502725
0,240572126829743
0,244183578222013
0,257253474572922
0,273919630165979
0,274672864916484
0,272797564478412
0,263192206123549
0,275841909928288
0,277634647721912
0,263322060716214
0,259413559910296
0,280552410683032
0,265331278604994
0,266443775423485
0,283365566725556
0,281622028261849
0,267385682914473
0,281599365528226
0,270415349388422
0,251620506064838
0,273741516116582
0,238917449624214
0,259724624849784
0,269519882147859
0,27174559149776
0,258212784486811
0,246002506788021
0,258546122116201
0,251903814150729
0,259278480312716
0,248035182204517
0,252483797042921
0,229138086180261
0,232402032240869
0,245570387166028
0,238776333083552
0,24460164791644
0,248736766461082
0,234093795870844
0,227544813805522
0,245026850722048
0,23098684714919
0,244202076596831
0,252318491962011
0,231795711448764
0,21363004895773
0,208426782985635
0,245706928067149
0,240096007503854
0,258070175932742
0,225261686412249
0,250338928206231
0,240170518460804
0,256505162765794
0,247929707893127
0,25681373048567
0,257052513057018
0,2305659965447
0,247219108035429
0,24753792975168
0,248353478211475
0,258413822182935
0,266835500179141
0,258296341458888
0,282311144449498
0,284698733187712
0,272444274367855
0,269671527414158
0,2593358307603
0,245385781005237
0,248071644990211
0,282215615596673
0,253786458607098
0,270947018453127
0,263414945263298
0,27090473150583
0,253459888815595
0,279999555895064
0,256953460940402
0,286723776580848
0,277053534550442
0,309049759725014
0,287833958534892
0,366872975700096
0,303156191594402
0,292667695152357
0,321841102034719
0,33694495128444
0,314453405022631
0,346719345591316
0,348582080556017
0,321823644117363
0,279044867089284
0,350337278138326
0,339244012484497
0,366074886303165
0,335310508985332
0,337708217030518
0,308283436957699
0,338306524836099
0,321230144245574
0,311583807518868
0,322487325115335
0,331287029515465
0,310602649347869
0,335125094639483
0,269691492059441
0,294170972780731
0,323863322876127
0,41044060818238
0,221513686154389
0,308144347985627
0,290310457412026
0,344527265732543
0,314036063918589
0,366598048299138
0,27198194637375
0,229006650993091
0,323655411850274
0,407860620734752
0,315363391059102
0,357033894531746
0,275686356448739
0,47725163999238
0,260784147052007
0,28841017256237
0,293950113647756
0,413687169641565
0,360098636510762
0,436580028025445
0,375642830605982
0,347083710580809
0,210048598596884
0,369080956281134
0,288072389908655
0,2573447679465
0,251809874368353
0,293924197317584
0,438596451592913
0,38651711319643
0,294724191935454
0,318613323998414
0,363206361219518
0,507339395805508
0,13437970789356
0,361443102948711
0,269029577213759
0,411477041333287
0,329926284707266
0,56990233410224
0,343111956514205
0,384418751482042
