3596
4000,36533379555
650,420452594757
1
2
2
0,067645133121801
0,0584105109742085
0,0706505793041306
0,0562009240431393
0,0708786752771535
0,056624970755862
0,0637071163372607
0,0592148096286886
0,0712117754029356
0,0527067938786871
0,0726460182382367
0,0597914379139005
0,0664065322345567
0,0516638121954048
0,0630649035908502
0,0570170992146973
0,0712549337054376
0,0572615420477023
0,0679400016143297
0,0509668926594959
0,0691648339491139
0,0591372804934127
0,0605206428481444
0,0568437226797695
0,0670708776474922
0,0480372621285104
0,0719111312015414
0,0578730148060226
0,0680582867079321
0,0634343817340424
0,0657750683171768
0,0598536712982472
0,0706742436003755
0,0580909612317143
0,0671352657044242
0,0500238893682358
0,063757406075995
0,0602269203890031
0,0656291138375667
0,0603351821819128
0,068294493777088
0,0533931642296524
0,0686929079217868
0,0539085267292007
0,0697494386844397
0,0619224735268122
0,0664242033478388
0,0565055473457408
0,0649453359730985
0,0646342561246769
0,0665658472620889
0,0487374712430739
0,0733978918769767
0,0669228305876989
0,0684009414142033
0,0688779193169289
0,0720486744504525
0,0535832291890119
0,0683067763623579
0,0491922035841969
0,0887814847039029
0,0687281293085169
0,0607065385933019
0,0555020064721606
0,0676952917008024
0,0559761335078474
0,0661312627273775
0,0559487144799334
0,0555926471009486
0,0619479234831006
0,0539982744359945
0,0737073829348367
0,0742991241703206
0,0630269578815939
0,0701382127844044
0,0617780104103304
0,0641062343741731
0,0493356959140737
0,05805085474845
0,0599522144220237
0,0769471765309628
0,0651667622446997
0,0680595476790245
0,0497052966661691
0,0667996127331874
0,067873711747974
0,0532628452746339
0,0615905252115438
0,0738095265191811
0,0633057771021736
0,0611509055484445
0,0557916805920038
0,0532738238598855
0,0573834888260054
0,0579980786134673
0,0565550874503342
0,0550105492846326
0,0626746616706145
0,0515272026900429
0,0632822875963509
0,0582728471181788
0,0581702340819843
0,100108040645455
0,0326830866811621
0,113990146744769
0,0533861158632278
0,0692011067626954
0,0814395450063022
0,07447509757941
0,0567351951908316
0,0558419923386589
0,0549367028067685
0,0498341845213906
0,0650887950625487
0,0458012494579139
0,0675429210069441
0,0834080139681888
0,054760761381011
0,0561430105487461
0,0541702166216416
0,0333062738982586
0,0878073871081814
0,0901380815199621
0,0590545203903052
0,0682629853149734
0,0495051495852869
0,0379273504119983
0,087612849136386
0,0765277091528471
0,0600959629645863
0,0618885561088408
0,0618663816811325
0,0487579876310673
0,0428667684269892
0,0927040341489386
0,0611357709323098
0,0672406677221542
0,0259851380581758
0,0697033874890804
0,0909612070925736
0,0749151326761448
0,058495145990859
0,0459001603646745
0,0473516863629761
0,0994062624012873
0,0633904999947859
0,0545664842133586
0,0726034832245226
0,0688127644510311
0,0534190425970986
0,0567812720415188
0,0497974708672258
0,0710884298306012
0,0650216449961536
0,00857178999905257
0,0924424412369646
0,0842662288966952
0,0704262788713565
0,122316333353047
0,0516639879414874
0,076842935046341
0,0485207797725166
0,0650463394761082
0,0424771268317895
0,0665260107795104
0,0340506316984105
0,072413921160254
0,0678017841544473
0,0546553031482594
0,04900273639409
0,0930741403647303
0,0544266420673388
0,0363201917815971
0,111546840971142
0,0749507551881898
0,0494855296766205
0,0902066792306735
0,0698154075813403
0,0423863453762739
0,0610899240992594
0,0856308757548752
0,0495406236713643
0,0642145344069015
0,0459701704529429
0,0538263410193244
0,0668004293617971
0,0607126083025017
0,0535991077134812
0,060044673449648
0,0402055899419927
0,0743109153033718
0,0854196569853517
0,0941314455987745
0,0591053531194154
0,0682853120387921
0,0165963190225981
0,104662666242997
0,080932006521422
0,070904095656295
0,0476509598364435
0,0568515559143558
0,0621258297424147
0,0530147722633884
0,0590464234713383
0,0552364872560478
0,0295169540529295
0,108434979814904
0,0706616519519435
0,0707298659462308
0,0457421918178341
0,0649199190325213
0,0301638761960466
0,115284892470787
0,0825523150203305
0,0725126717998439
0,0546944633912032
0,0547259321901707
0,0663522503548586
0,078645426395935
0,0535480545506143
0,064457584029356
0,0518800576593492
0,0615791863606579
0,0503086647853589
0,0646624741135528
0,0578028584530046
0,0607444353435914
0,0540570475495453
0,0611203790459057
0,0569789386559298
0,0712957980345474
0,054405192910746
0,0626879740610932
0,0604347466968436
0,0506707772195273
0,0627438263408675
0,0810121205652108
0,0601962987669964
0,0670584400515074
0,0540503029002347
0,0610790813512633
0,0574752722183722
0,0609285100398428
0,0559525686120658
0,0599506730036966
0,0449483611483143
0,105671317126719
0,0576316536796342
0,0797807496395724
0,0383525737684068
0,0878929954780204
0,0658856751990427
0,0766958832924507
0,0493529621761436
0,076318246409125
0,0472624424109428
0,0632847923807675
0,0876424289517014
0,0835643072174594
0,0504769011790415
0,0833302300326649
0,0619227917142705
0,0741709617297382
0,0509758720418239
0,0481255512802042
0,148169914217894
0,0790415748225168
0,03528119649329
0,141322503932003
0,0745182377124377
0,0962611128636271
0,052286277179787
0,0270798242140215
0,138525550217324
0,133086137424454
0,0689335847153489
0,0728113394920359
0,0794301822884761
0,0729992554012378
0,0792623398530359
0,0682013536822235
0,0804601696765369
0,0934224844351229
0,0931174113371847
0,143033995388502
0,0456022007484243
0,12487330950991
0,0837826824875711
0,0892424397113041
0,0664547105947069
0,0864760022291494
0,0581944629348979
0,0964198904609505
0,076148970643301
0,097072011943444
0,0697523519647296
0,0821881867878573
0,0993865356338501
0,0925348669284091
0,0675465054000293
0,088762935619899
0,0953152750521461
0,0847892000142952
0,081693327775653
0,0845560637468731
0,0945400198273982
0,0773356816175295
0,0640021279188634
0,144719345433933
0,0919579486647148
0,0966585615929162
0,113663472362975
0,0983710700755357
0,0817339270048695
0,0939344913369088
0,0877601497461273
0,0983524231456548
0,0927308019721303
0,08664848147114
0,125972851214255
0,108617130525726
0,10252371042658
0,101748588257875
0,0932149228774132
0,108095985854698
0,101776282453261
0,110395735713154
0,11052324408702
0,11512129197067
0,0881457719270704
0,133760981921238
0,146174449677582
0,0996652947577192
0,144140291500847
0,16156405145498
0,126933545030602
0,134248091194907
0,120866497534018
0,142133993798807
0,131571667159872
0,145442330450929
0,129957581728722
0,144982731992877
0,164153903817238
0,155208706457102
0,143694252498705
0,156395225099435
0,190706230937727
0,238924532323759
0,175382703100414
0,183127627254654
0,136282360485223
0,220284987681646
0,182809129956768
0,216997449684436
0,217183907135803
0,194903353576588
0,197647567672337
0,197929049925589
0,207316144541835
0,203700564567228
0,210513328595568
0,212589964232837
0,221000767648422
0,219658488596107
0,234069382865507
0,222149054056627
0,226014715633246
0,284152165031574
0,257739065639113
0,262815133231936
0,254960830592345
0,239557924641454
0,285950922513584
0,274880346133542
0,328725181010754
0,295416189092121
0,309494808596533
0,33481563465576
0,29177096706402
0,309304289298705
0,289794615992509
0,308063276953534
0,304065547376951
0,327611640034958
0,316669897147967
0,326873876604749
0,325981782743048
0,341532846139899
0,336740403877028
0,351335779782227
0,33369454591056
0,389452937131798
0,342988071970555
0,375713791711239
0,338982905025478
0,411606631971629
0,396092917526667
0,454350316269293
0,37541004328467
0,403017353996379
0,379926480564264
0,392739729920342
0,376034042733329
0,407198007748646
0,395490471391031
0,424696302257012
0,441562018147796
0,444521724031898
0,444681997807055
0,456238142268147
0,411297948730306
0,483049932479659
0,441404961708559
0,465078298489747
0,462246450984461
0,48751194364864
0,424778799571278
0,51738196351774
0,494826646776191
0,48578215536726
0,499529932378507
0,493639376880361
0,478929069151799
0,48889357711232
0,494560207886026
0,508563022284884
0,504330209360025
0,527081034448468
0,518516147044803
0,536693903149111
0,516509112651477
0,540707655501192
0,541681871105921
0,545048631970964
0,536265954254018
0,559637991720445
0,522729562816358
0,580023159503993
0,524029184963551
0,605925422292746
0,579974418743236
0,56678685798984
0,581435129364508
0,581798304851167
0,57543143258575
0,599372358764376
0,570759761934061
0,587165921802347
0,600281485055312
0,636396361936498
0,596755821373508
0,633304227659803
0,622582484035245
0,647673502561204
0,629170073425072
0,6577600580977
0,631035540502946
0,632513050798531
0,619756063766528
0,699180960878958
0,630361292471312
0,752586321729641
0,68548482865462
0,715728736881218
0,686126736354386
0,686653462141583
0,6702258473562
0,704330167867798
0,68082614263172
0,689145902853278
0,678595208823823
0,730115279454397
0,713717620595048
0,753017914594455
0,7198028712912
0,743946093333022
0,724828321904699
0,74649810555563
0,70371073875297
0,769305224046242
0,712505290038285
0,77401698046174
0,758811697615946
0,797741947248776
0,741497876986875
0,78146164682598
0,753782468174083
0,845552965525739
0,777733269047449
0,813328973664951
0,806996401127755
0,863877233161057
0,785888492039008
0,804627053233701
0,776249175442211
0,8872517665877
0,84836384881134
0,886943426412431
0,822969510042889
0,838217122429923
0,811051397484002
0,927563788014122
0,850079646959104
0,887561289772941
0,797737622731063
0,918327759026624
0,872744773302916
0,955843548411814
0,862500056490981
0,919466362372075
0,880336897516476
0,960397361546402
0,843345108460723
0,903231932264123
0,939512443049328
0,940171680480613
0,941939186605613
0,965815824015938
0,920522651327683
1,0510070050402
0,910956186825704
1,01862945361476
0,929607640807423
1,02670964928881
0,954613331695521
1,11626073915901
0,935678436706866
1,0274988684819
0,962461896548912
1,05665219478663
0,932898799793697
1,06453280585157
0,906952294218138
1,08012139060897
1,03396977219951
1,08462502869533
0,953052748032165
1,06963608186961
1,00125108908662
1,14208588947976
1,0682521812929
1,10129474326903
0,982043861128121
1,11373196495733
1,03316579945835
1,11139193731298
1,08365041824677
1,11591567671894
1,02174406320265
1,0953334313994
1,00610015725143
1,19754088560406
1,10556857002427
1,18257651905665
1,06689947125621
1,19961063381596
1,03457373735123
1,2158340362436
1,16951284256611
1,26491996405786
1,08387105390488
1,11263071510674
1,11016880255574
1,1575218746482
1,12297270824935
1,23291088906339
1,08315458213307
1,17626810363749
1,13015312389584
1,25576104340946
1,14432868636978
1,28092091306331
1,15856027738946
1,30032754079279
1,11370375966499
1,26383171651403
1,22737510098806
1,42498153264611
1,16721352905746
1,35328109514858
1,23460129479629
1,44377757221417
1,21404524916313
1,44929261508454
1,28079671443748
1,29176898873582
1,13524467699516
1,2319709096565
1,28797682723364
1,30651822176878
1,27126614411005
1,67395522558641
1,20771576724891
1,43268525762792
1,30353222302978
1,34554164173487
1,40201013319535
1,39101178402342
1,2276190915605
1,43820600187541
1,33294473719929
1,4054541080167
1,3249308988006
1,33734905415447
1,22870528657613
1,75062050941555
1,35857189310233
1,3710704906663
1,29091404990368
1,50686621331815
1,36785026928677
1,65445052385128
1,31274993670417
1,52854761113189
1,21042119435963
1,52248551709475
1,37179301487774
1,44879695348483
1,44612136741279
1,56580600724345
1,37268823334895
1,4431447334554
1,5449884729438
1,57230672893453
1,30518441828279
1,70987389168102
1,38661775310315
1,63213097179335
1,48003076047785
1,57233655989417
1,39657653491164
1,72108685380837
1,43088558776449
1,68969201808308
1,55166014495724
1,64709062686328
1,3838022835366
1,62220765148214
1,45869677990688
1,50221572466719
1,38134064009174
1,7390491684393
1,63659231680097
1,65403156452916
1,4729168929442
1,73057407231377
1,59057873539776
1,89465605635762
1,49182502993466
1,55499200673247
1,44945802564
1,83360889748366
1,49073662339526
1,50751301693965
1,5122502050994
1,86006908871992
1,50309981294746
1,66802112455047
1,4550284338342
1,70581654494794
1,55647655368247
1,63713082101874
1,44757968769158
1,57193124356524
1,58967413292557
1,60209599337636
1,45423900749164
1,55984898566469
1,5309260961001
1,66008198326227
1,48854645940227
1,77749271215975
1,47070259918045
1,6599015600216
1,56482476653435
2,01797580043105
1,79245140692181
1,75050930537341
1,49717490362702
2,53248143953385
1,67286795353771
1,71126471322265
1,53989208214632
1,73554839826703
1,50223412481601
2,14058191466725
1,54726603486032
1,77343907425033
1,66542935207343
2,09981878934858
1,62984532990958
1,95767237548493
1,69254871993894
1,50510576315907
1,67912231608364
1,73861495764844
1,641414875839
2,08597983710389
1,52534247071798
1,69184115055411
1,53152611015007
1,69581351776047
1,57489804957914
1,96029669654491
1,6525035591905
1,82253849090838
1,41857630398549
1,70358441932976
1,67507026308873
2,04206504539544
1,48178692037267
1,66981493147844
1,72692273592065
1,74847614660426
1,67967131022195
1,78879580047884
1,50437408633347
1,69771535014061
1,46991992927939
1,55292896509751
1,70337774533032
2,3833521169716
1,63594011016594
1,87452737119968
1,76950026639876
1,73450816965115
1,43385057196816
1,66823205068093
1,60893658748493
1,97247485195345
1,76838955900875
1,92519155353672
1,59918306044907
1,61257145209423
1,69468203084813
1,59055077385553
1,67138918440955
1,71877080039779
1,75484425894467
1,89256197240079
1,47978007512627
1,7021371038922
1,58546132944163
1,67646160502887
1,58653973451165
1,7445167619584
1,63696541059705
1,66736768425455
1,56249130311283
1,75097243114053
1,61579418891347
2,12414443774744
1,81321377693923
1,86833351404219
1,56647296217544
1,48923306853372
1,51398381739672
1,6936798212891
1,62755651596444
1,65968384881873
1,54886796018406
1,72401414353668
1,61068251711434
1,80086162154432
1,64880781110202
1,63570324684796
1,56944974771952
1,77560640196811
1,63833418202118
1,71011179949084
1,65997274056176
1,65999461255235
1,51076133585899
1,67894262158021
1,57203421063273
2,05491147980673
1,76118624190828
1,63219893446941
1,57857339118811
1,72160614836357
1,60099372201876
1,84647684692189
1,76519588512559
1,51522845054836
1,5037789563738
1,70653154580217
1,81729445168398
1,62773922418333
1,42121381968347
1,5846714516911
1,68934514128962
1,78381761713895
1,70660933964173
1,72205121881696
1,51248312952207
1,90789544392686
1,68176216578931
1,77775710349513
1,60489001808636
1,58198005797715
1,68188664341676
1,72813470506376
1,52721111727685
1,76607908393258
1,71420304392361
1,60161915410057
1,64188922521775
1,80258571364174
1,61350673055997
1,8309294958618
1,64801747455389
1,7944315266086
1,73340876798416
1,72219083620757
1,61023982557002
1,59715204005883
1,72683680235749
1,621601811599
1,55327419410365
1,93114599882125
1,73686381477531
1,75732259220782
1,63144533515215
1,64073314144248
1,60302280585857
1,63509409949066
1,55303781059059
1,62235856312771
1,49587056376953
1,54798990620979
1,66143427959251
1,70305810276715
1,53434312204043
1,7505284887239
1,5075186676046
1,62025604714948
1,56957496605855
1,68428102369382
1,51042525101399
1,52296505494107
1,50051954966315
1,69571147973248
1,50195504664402
1,52117737126787
1,55831327718373
1,61584554615155
1,58630331546987
1,58738151575602
1,45452919803254
1,58400905365906
1,47942980379808
1,6442771760607
1,5921626784197
1,59543034149626
1,4881560310619
1,55355915448331
1,52799471526492
1,50424321598419
1,44371135131003
1,54762653970238
1,5055697615144
1,5913646040456
1,49193632784134
1,46488313609463
1,50176569736041
1,5181003133211
1,38735912666972
1,48499793387523
1,49415823877453
1,47649137270132
1,36063517545424
1,41812729111353
1,38558543204543
1,44634605497692
1,37344205406657
1,41737010098991
1,37233816689553
1,37862258391986
1,37312942785442
1,4143220902562
1,37692851811566
1,48655961049053
1,39699395818081
1,35495581248168
1,33898145875882
1,39979908840754
1,39640793173579
1,43148521627074
1,29944101682246
1,33222253418678
1,29099888395743
1,38852566542401
1,27709676216162
1,32819533499558
1,31047358026106
1,31047097164488
1,31531970749257
1,37041512950889
1,27711854555008
1,25994554986987
1,19415488684371
1,28753127578928
1,25778001795776
1,2339284685733
1,19275794270132
1,23774443038684
1,26940875807765
1,23970664282798
1,15085145303932
1,22117362565253
1,16815986487078
1,21472018017755
1,21321865980059
1,16970936168396
1,18233292437916
1,20146115690783
1,13871745064634
1,10675551554828
1,1378009889486
1,1794992668795
1,09660699827923
1,13413877479425
1,11479224431083
1,12088973449751
1,11488334762893
1,088933373131
1,11046205983443
1,12928486996337
1,11967262874998
1,11094530538734
1,06510541160907
1,09876402197475
1,05717748220183
1,04208571543645
1,01723276319393
1,0128153549183
1,02303281542422
1,06619712355765
1,00038702138835
1,0265263363675
1,01935157068239
0,994467578631097
0,980001842120578
1,00445893217465
0,998407027895351
0,98376572752633
0,947028483364859
0,961355704723363
0,974635643704182
0,984526754420725
0,961518174545329
0,955397566156882
0,956748189196144
0,947155339131895
0,909427187301943
0,925690235930281
0,911294106073394
0,915098095711553
0,909272741977368
0,910935515198895
0,898483917918183
0,895754757348046
0,887840070337923
0,893937181633646
0,862518001815219
0,874810338408171
0,874045739212988
0,859160082553318
0,845221806870893
0,861688893483525
0,84358075918248
0,837309461355774
0,82906504620995
0,828399578916553
0,82051556666196
0,841755118914205
0,814890988994634
0,802465579445945
0,793958371298323
0,806768949639249
0,783016062725225
0,785528733493247
0,780174339329603
0,785626045187653
0,780286795673322
0,77199960190942
0,771560484340321
0,766820147882884
0,762334186699958
0,755248139822769
0,728659094698271
0,756511381117876
0,730705697175174
0,715463223052517
0,729526559992902
0,739957067105694
0,714341380316403
0,711433304087771
0,699192193905902
0,699262861918167
0,704629490234408
0,712430338642543
0,694617564791682
0,688450128599978
0,693716730670106
0,689335400946872
0,665975077723941
0,665972819984543
0,667505319873653
0,64605107182452
0,657459057624724
0,67182028337459
0,648090380863494
0,64543057204523
0,635013915124994
0,625405359533653
0,612191206515151
0,623206446409981
0,616905876269952
0,617192050679332
0,614226704694217
0,612631097208379
0,599270479946935
0,608704733514155
0,595818999118734
0,58935206958325
0,59202607973566
0,5810486287396
0,579910347222119
0,582794709520279
0,571584149267916
0,574371776504855
0,568958018716948
0,559415680366106
0,556144643582014
0,557173387933573
0,55176415053578
0,559801033563906
0,55388666497477
0,553693333412222
0,534117732954851
0,538352228135764
0,537939613212688
0,524120698690737
0,519013205963529
0,527615144567133
0,519153047348862
0,508503776657455
0,512681227778684
0,508706370420824
0,500045770253602
0,502917172699324
0,497456727181454
0,499113704337313
0,49647988443358
0,48977720557474
0,485853171499742
0,476237274785686
0,478925183710496
0,470332486119132
0,472703147604663
0,482611524023739
0,470933770028877
0,467667330845713
0,464171573775559
0,463766329033924
0,460015191794863
0,455127683661779
0,45155605969501
0,447839177583319
0,443406875525758
0,43814814719996
0,437589967955829
0,441439964557569
0,432557574576642
0,434957239508678
0,437304156548479
0,432197632069974
0,43026296917316
0,420030844004538
0,422682052397212
0,419783398358526
0,418845896889063
0,418253890520303
0,412067331625502
0,416170903396437
0,405720520717503
0,407764550170037
0,415340150884059
0,410528214464058
0,413456910418149
0,408804019052964
0,402967775277097
0,397307036704931
0,393423226633113
0,396864550030509
0,394720977845567
0,399817322448986
0,392116722280752
0,39409360212744
0,39424407449547
0,389604679129444
0,395371732536361
0,388299657579119
0,381708151562328
0,376292005513564
0,383698662969232
0,380023454474413
0,380862495660503
0,381234848429474
0,377713483034417
0,368341427465877
0,366411606850241
0,372049665512624
0,368205605590763
0,36956269364764
0,371715742954151
0,372628836912986
0,376443893671746
0,372559598715746
0,367407590481887
0,360080625967002
0,363692537359833
0,367397234894102
0,365512367913457
0,370882742675457
0,366192983583431
0,371963777897534
0,371092299034751
0,364101548075168
0,36192850667765
0,361274127582375
0,360807891052852
0,357781895002295
0,364476546889612
0,35798074679249
0,359570273300387
0,365271833546322
0,367025100736701
0,369100124513002
0,365253140714503
0,354280646772386
0,353667097138448
0,35813741665596
0,356270140115413
0,353097162881376
0,348958697492381
0,347248997517554
0,347751731527247
0,347741452793343
0,346192092724859
0,330126900476863
0,340348549943822
0,347560488011183
0,334378556833167
0,333819763748018
0,339935632252685
0,33707010675527
0,337883043338514
0,329024410964009
0,32830372745196
0,328576846306828
0,329591509954864
0,330410019033155
0,329942209594818
0,326350291695843
0,328775125268404
0,332849577782173
0,325739434011405
0,317757873545506
0,32540958493164
0,318755436673247
0,315785592000183
0,318354903356622
0,321688883756688
0,315161862532463
0,314124413580141
0,320817383983235
0,316333091761472
0,31552458035222
0,311943377624174
0,310504070589149
0,318139320271411
0,309737257306569
0,309926995469336
0,312166283953348
0,311311882061244
0,308917021360599
0,307761700143889
0,305365232323585
0,309162472559261
0,305459404014472
0,30094600393725
0,299995394427379
0,30593021067297
0,30152950765961
0,304466795919231
0,296133664046004
0,296689106736965
0,298546055525457
0,294230844628156
0,289175780059359
0,294757859231866
0,293497051370413
0,293474687507919
0,291944267594839
0,284690654452972
0,28362978791181
0,289780679948154
0,286064720872589
0,279902432714698
0,273419239907097
0,276266758342975
0,27048644720784
0,274733523481068
0,274002149619504
0,271111754122363
0,267925410504147
0,270916366492535
0,268346040158088
0,269369761641852
0,264072824384309
0,261712530743988
0,257294289892036
0,255356914543902
0,253159510449126
0,252815802948706
0,248166664791577
0,249254799312818
0,245806594422061
0,247863990977263
0,246085676068916
0,238812171473922
0,232392610969943
0,241262255485824
0,240288097148047
0,236288094487508
0,234725862632663
0,233658904293221
0,231204424255567
0,233589708572839
0,228767137022448
0,230221983651448
0,228878247094036
0,223110723159915
0,216510714147915
0,222503559780629
0,219056969418155
0,217652397963269
0,215712573287156
0,21441009947502
0,215391123338324
0,216284952840952
0,211259923178525
0,211668490124698
0,209141425784518
0,207694495253555
0,205113967298974
0,208194611868945
0,203450823421082
0,206348002512345
0,202799666577834
0,202531541773207
0,20065937737986
0,198552508761938
0,196615885572027
0,198290865735563
0,194849916489769
0,196131601097163
0,195218557103977
0,197242062368031
0,192325774923824
0,191127335273873
0,191482902525041
0,19342414484027
0,18862244395815
0,187196350352612
0,187262740196169
0,185269685684103
0,182423410754934
0,189941431021924
0,185087514677531
0,185159883215526
0,181235326677896
0,182350475476564
0,180328541360405
0,184358470211559
0,17894385154502
0,17517543060113
0,176953492607027
0,17870448702502
0,174960518080806
0,176242490222797
0,172279068225808
0,174835471173849
0,174779910787344
0,175015290940557
0,167987138465711
0,171119351253765
0,167709330692158
0,169415471776823
0,164518882665751
0,168061292283723
0,166538888179322
0,167757452611112
0,169723229239543
0,165105934102375
0,164432835351433
0,164025717097062
0,163963778570589
0,163892801290713
0,156474777244356
0,162772957230115
0,16028652277404
0,159392855763253
0,158952256578767
0,162179321595156
0,157830631774953
0,164156154219388
0,157493283673932
0,15454189938579
0,151777160250515
0,156755506201479
0,154958853355661
0,158197631190093
0,153952664366244
0,155255786833846
0,155454191881974
0,155790568069636
0,155227147298081
0,153015292167401
0,146637334431082
0,148701022786747
0,148037527619399
0,14800771767098
0,145308039074991
0,150408468018499
0,142840829498725
0,148006273216964
0,148454953448315
0,146597279773311
0,144124988489138
0,143366595605145
0,140925887244392
0,148213242225862
0,146643091881133
0,143497325143483
0,142085339285606
0,141948166314935
0,140865001113153
0,144638377814007
0,147441357564851
0,146175176514658
0,138386316117476
0,143143485236941
0,141177448826995
0,138529819225429
0,139063513321395
0,14337134841311
0,138876168047327
0,138266864258735
0,136031032444088
0,137922841481193
0,136428745807508
0,141604232880011
0,141966842825039
0,140155733655243
0,134315462721531
0,133660301363206
0,131697656315327
0,137191717887678
0,135805157199352
0,137540308922605
0,13455108357437
0,134723081593959
0,130968989603602
0,13486448209388
0,130515722729815
0,130708791959039
0,133393980316788
0,132228815637565
0,126951062621133
0,134092587868816
0,129501405955492
0,132152799150535
0,128987409745297
0,132317202471256
0,129188202043598
0,129380903648651
0,125733376874756
0,128981705010093
0,130361429743618
0,129424576183379
0,1269693990781
0,128043911747294
0,122966955976185
0,125567591437956
0,123051563641399
0,124310300065594
0,126494231476464
0,125210957143484
0,121414402195559
0,12600570772725
0,123494739128406
0,123043919710339
0,118670359188221
0,126365730304094
0,119011204736428
0,119193105253656
0,120137978232966
0,120774598356044
0,119296600401031
0,122785700334096
0,119419471517855
0,122490886942166
0,119523316753775
0,119742125513211
0,115966987788498
0,116883591407586
0,117055860461798
0,117091369855799
0,11648096330256
0,116909354730198
0,114055421149307
0,116731990180517
0,116343908229276
0,113803680630061
0,107881170373463
0,115726570539401
0,113927744418455
0,111749045957501
0,113781157889285
0,116218682272474
0,111071187934143
0,111940459326743
0,108040336170687
0,109991148396689
0,106331206834091
0,112656814613272
0,109760377632925
0,110812280977776
0,110036039014172
0,110095854593928
0,10875748969188
0,109998469397224
0,104759814853951
0,110040617885248
0,104648371056442
0,108052617586906
0,107057740762319
0,10752441905042
0,105338081303022
0,103643139288675
0,101701265599917
0,10972144528148
0,103830750937098
0,100418116795
0,100945921540619
0,103662413754997
0,1017681299637
0,105296890523978
0,10224899500161
0,10288448036746
0,0994168428667236
0,104007971165961
0,098125602543693
0,100385981063207
0,0980409318519102
0,101905574162715
0,100087673971446
0,100734502799745
0,0974265686246372
0,0987266486086815
0,0979617687379675
0,101724122821632
0,0944933004713093
0,100051459649967
0,0986655962450559
0,0995449296233689
0,0956808320705718
0,0962515491404996
0,0940466028471139
0,100605444840639
0,0957824484303736
0,0975651989556969
0,0959201914755303
0,100766928443145
0,0957015401520188
0,0948413079464055
0,0975580090510123
0,0977544581399302
0,0914955885779004
0,0944799753031001
0,0915734305246287
0,0962063032136444
0,0933740400433851
0,0938602540573908
0,0953357573508328
0,0967689250777979
0,092001755242762
0,0970322103244253
0,0925376923406286
0,0926709937201032
0,0922702408101457
0,100340132402207
0,093756068658256
0,0947224430109655
0,0923520768317606
0,0978675868153717
0,0931428361321457
0,0938011305571746
0,0919182410289796
0,0954974717505181
0,0901706825323097
0,0937169214805868
0,0938419217293771
0,0949220096508253
0,0915737518041582
0,0945007555696857
0,0915009928013061
0,0931676862803052
0,0898317400119848
0,0903663709455915
0,0894393673799219
0,0915483952691665
0,0899801996144012
0,0950161960669372
0,0925742749181917
0,0957609441911127
0,088057899977834
0,0912754934451521
0,0897560416857743
0,0934971547864589
0,0885640419453038
0,0895318393997825
0,0892927339237581
0,0923032849222262
0,0923983204504315
0,0932623941451918
0,0867268090423294
0,0925293339712654
0,0908689652356328
0,0906522968070993
0,0883712926491862
0,0906561832264383
0,0867275131877007
0,0920468157454575
0,0882696785384971
0,0897243340040392
0,0881321859221537
0,0926777220753933
0,0909877519518354
0,0927692803092569
0,0874724237895145
0,0926765209282411
0,0892681663154809
0,0917022378879897
0,0895815275711918
0,092803269725375
0,0881004380219916
0,0919423756442256
0,0884940656696936
0,0915207434397238
0,0881112902710606
0,0891093888352674
0,0905094910613513
0,0899433222738044
0,088608462819418
0,0941086596985125
0,0881174241268139
0,0912439438644206
0,0880009043762045
0,0887693370831913
0,0873207879595536
0,0911120105999607
0,0879319610753005
0,0917180620346756
0,089991754843636
0,0915041453390089
0,0877164320010851
0,0936463240716519
0,0912480221088171
0,0905571984161146
0,0858674772553672
0,0909007366262123
0,0887560531315588
0,0885399790221067
0,0857042533620683
0,0923265189104029
0,0882062641222306
0,089435832651812
0,0873785502881717
0,089616338078954
0,0853474902462253
0,0888409291664111
0,0868820997731157
0,09214850149137
0,0853947718150931
0,0891716156670592
0,0877279908285498
0,090933730044376
0,0886393069658564
0,0924505890250687
0,0880427788715892
0,0876378914309273
0,0869266632765945
0,0889231012996205
0,0875605540965618
0,092741179688033
0,0889878583513732
0,0918599980725674
0,0871935488278881
0,0924152623512568
0,0883578451971837
0,091836589320731
0,0889136534720903
0,0945109335364385
0,0891578694875162
0,0890760935706487
0,0860268694861954
0,0911398237553635
0,0865748051667011
0,0898187797909801
0,0912186930579222
0,0895193772018082
0,0881369359964649
0,0908463732403093
0,0853754409826881
0,0883891831876462
0,0873666755126439
0,0887972900837058
0,0875470204623754
0,0917909190267223
0,0879014861583384
0,0912745247204802
0,0872847498257049
0,0895695049218049
0,0880727448407039
0,0920346861010092
0,0871591648669905
0,0899898387157617
0,0864151749846457
0,0909583038642054
0,0877453178318214
0,089270063875617
0,0860496345253828
0,0910729649971247
0,0894375321111317
0,089166655845496
0,0833104388857948
0,0914148277831322
0,0848452928343588
0,0873362119839066
0,0859970953986022
0,0895098467953703
0,0851830269438325
0,0865474135474684
0,0849175068583606
0,0893137932882639
0,0864563691111841
0,090379005696136
0,0868468726793366
0,0920501402970122
0,0858184044166676
0,0889221533598767
0,0875565772047018
0,091259734617903
0,0865900903424208
0,0916114356579417
0,0890613706411131
0,090528997763757
0,0880534533776702
0,0910111091926504
0,0879252622915728
0,0917722913359148
0,0883474024950722
0,0913728673687572
0,0881116224845017
0,0929347202598256
0,0870577891614064
0,0896428134993691
0,0850840221138768
0,0902939571328448
0,0861409388672925
0,0921537300802903
0,0877839691213235
0,0916111499655128
0,0871306781364668
0,0897225721844758
0,0878960409595273
0,0903476202032253
0,087049587437574
0,0912045401997422
0,0868392920924374
0,09270192428493
0,0859456885293256
0,0887458331217001
0,089795229097253
0,0933667163191965
0,0873286338525919
0,0892441293520521
0,0865727499843787
0,089400274706615
0,0881591284001974
0,0931894099127136
0,0869418270030406
0,0923252490503591
0,0892615352942529
0,092443700856244
0,0894052408146124
0,0942857915373929
0,0879765731049001
0,0913717478962554
0,0860713497838181
0,0914484512136197
0,0893930985853487
0,0924439018889965
0,0884737870877204
0,0919360498822062
0,0880092670722521
0,0943676030911672
0,0901319695194115
0,0918960704242407
0,0897496245633198
0,0938961702119285
0,0883860935327221
0,0925693243753247
0,0900809191881733
0,0925866380019619
0,092243733570615
0,0951706207550179
0,0904748458922926
0,095195370836027
0,0879699917115274
0,0942249177361623
0,0935263720054542
0,0966232967706464
0,0899307447989068
0,101053377420543
0,0928575558057397
0,0984198601099249
0,0959367144071177
0,102709989096373
0,0938649992132511
0,0994613935737258
0,0943362380471656
0,102804444571995
0,100959366666131
0,109266428100055
0,0987919738819326
0,100135644748271
0,0915314456999499
0,103418317856922
0,101122431945277
0,10507258561789
0,0927926822578892
0,104841725911901
0,10101673684882
0,100742703658064
0,0963640988363194
0,107690430073069
0,101924439855883
0,111975514722484
0,0969754728991948
0,112775801799199
0,0952163594715795
0,105089717644501
0,0970758535915082
0,101159401873342
0,0983512529712146
0,105798044449216
0,0916209264066332
0,101410131953028
0,0944163380813704
0,103708440443898
0,0943305134774369
0,107932278981068
0,0902283599581137
0,110088931270792
0,0928151732321847
0,106240125947535
0,0898503813151741
0,108756458635585
0,0884920157050405
0,116349986609587
0,0939831259722827
0,119123886825841
0,0907600238497617
0,116089006925562
0,0832236164734446
0,116010465204138
0,0912230332901195
0,132774518330485
0,0907234968087785
0,122033625387487
0,0827996896782545
0,130482554086215
0,0943586168530069
0,125952938663211
0,0856390497574893
0,127073919522171
0,0963213288043425
0,116480993046645
0,0958156201500141
0,116411945502097
0,106940485844047
0,10067635930497
0,11027584689764
0,101496190699386
0,112060064816233
0,0990057003361201
0,11431280508121
0,100833508150316
0,115237817969136
0,102953715948583
0,109111099595664
0,107740384882045
0,105825643110114
0,110856125879192
0,104726385445171
0,112287733645142
0,105739651956213
0,112657886659533
0,107203348697161
0,106554591450335
0,107856686094269
0,10540128381107
0,10888891241579
0,108195715488451
0,109419017282171
0,10853134831137
0,105113479983445
0,105983662134979
0,10571893373789
0,109169386960232
0,107154157106465
0,10795169572222
0,107001175618709
0,109819782634322
0,107326037197742
0,108382853570123
0,107806885633655
0,10978148507859
0,109568803144148
0,112520458203898
0,109849992667515
0,111713787707004
0,111685622384718
0,111295360437516
0,109942967655368
0,110341462529617
0,112101723638624
0,113707881525896
0,112811426296047
0,114853402437837
0,110546434305606
0,112379995579772
0,109262665355369
0,114122021714981
0,11498606863299
0,114385127934497
0,11232441492156
0,116504680134367
0,114457289471402
0,115583824650939
0,115506742075861
0,116628594430548
0,112659126586307
0,117457584797719
0,116001677959411
0,115952338355902
0,116951495367589
0,118309048633695
0,11491240011547
0,120331477558965
0,116201439654379
0,115629087606589
0,115766222693021
0,118378146711662
0,118158720194769
0,11898411174061
0,116109991802645
0,121613586468542
0,119483050398651
0,118979302014565
0,118692615081072
0,119426234385077
0,117473079110857
0,121535088333386
0,118340441835647
0,121839671717345
0,119513509719148
0,123992038834919
0,120577061509294
0,121986344941436
0,120120457026077
0,121996720007747
0,121102151711501
0,123969670351134
0,121359991858775
0,122726966989613
0,122172994543544
0,125824217612464
0,124498743084724
0,125249428873286
0,121728247656275
0,126558688916285
0,122522420770901
0,126660578850719
0,123846132778006
0,12982454677607
0,125622710444301
0,129585994946694
0,127623728223518
0,129137802694383
0,124436261249704
0,129889171083585
0,13002389139034
0,131198747457913
0,126017609010217
0,129953745414004
0,128470833044394
0,129323984582332
0,128581752531057
0,131773862674812
0,129990021807561
0,129740270090078
0,128014299825067
0,133957106985914
0,130534022686844
0,134708245825561
0,130528743507999
0,132730217229517
0,132460571178115
0,138516036861808
0,13104548442587
0,135026682139161
0,132306293687984
0,134565595401563
0,131405968581267
0,136036526540274
0,13038224588657
0,137081555535187
0,132744073529271
0,134021971721947
0,134770387247966
0,137750990242349
0,135124606319885
0,138005194001364
0,132402694592805
0,136493175833089
0,135721556878357
0,139574786113408
0,135506502572448
0,137575889053699
0,136765092309444
0,136499197012935
0,136181274092181
0,138718516840487
0,13576672329962
0,139762399298497
0,137239122953762
0,136844118439568
0,137343853258256
0,140181742697928
0,138881496657035
0,140024237510638
0,137807628881742
0,14168103091834
0,139896230488361
0,142839781973108
0,139314398004938
0,140535302683757
0,137894768128239
0,142768995452582
0,137442757988147
0,146613918369965
0,139865237661149
0,144030026162359
0,141362916058398
0,144294972495309
0,142420757005017
0,143720201683997
0,14113900639154
0,143765178388311
0,142353432476892
0,146600662203463
0,14126679734749
0,143397505673015
0,142456119615052
0,144327313648972
0,143487417933588
0,1449084106681
0,140672672590155
0,146352069044952
0,143065951636925
0,145586860709592
0,139461408137928
0,145468731099353
0,143481512353822
0,143899503556014
0,142500050099757
0,146221399917692
0,143659984039675
0,145971296280238
0,142655305752631
0,144640449518264
0,142214710422082
0,147963415333916
0,143500700284288
0,142547591014561
0,143005989720244
0,14560463680974
0,145459551199007
0,144090420701697
0,140330064174735
0,14750940132706
0,142306397109074
0,145620655061113
0,140282608574152
0,1451390047462
0,145144762896665
0,14346801344801
0,142386400476995
0,143374907182787
0,141990011431778
0,143153582820147
0,140410951821489
0,143338781360315
0,142291139534243
0,146319397386738
0,143769510736649
0,144261097502608
0,144571266405634
0,144589279639844
0,142212831820829
0,145060426221939
0,138817330982977
0,144622158362671
0,141415100966293
0,143873766902864
0,138966998862767
0,142695282588226
0,137621426313712
0,145293534695785
0,141347563366532
0,143763396961235
0,137436793463424
0,144913332285049
0,14044015195838
0,140963392242419
0,139302043415144
0,144490244442996
0,13960657667328
0,142198773510683
0,138573227102203
0,144793417569231
0,138849189230822
0,142225402717006
0,139654026451902
0,143383921767408
0,137187333310899
0,141918190125773
0,137219648977108
0,138447996455125
0,137450589481753
0,139295316778107
0,133734848696543
0,140790562876869
0,135473443355758
0,139075910521662
0,136111325410607
0,13915779029699
0,135760486318055
0,139110253778574
0,13768553866538
0,141518168597006
0,133423226451276
0,136725325414145
0,134250055182616
0,137997222928242
0,133736598301593
0,136773301753523
0,132596179770502
0,135627247918283
0,132697618333825
0,136060821205442
0,133795735735564
0,137099765253296
0,132562179567653
0,135967915188587
0,13185828709609
0,134766790582827
0,129863399538162
0,133883565226764
0,127478503514894
0,134776669919832
0,13006214415957
0,135739703241218
0,127445062199583
0,131335486028681
0,13270778970262
0,132923655539486
0,127866570333021
0,130445637964783
0,128765473066706
0,131564720259438
0,126620122854765
0,128345575286775
0,127625054086661
0,129010483859537
0,127988071450767
0,127071958568679
0,12541992492648
0,127024493592095
0,124804571359345
0,12873170793592
0,123014862909128
0,128565168630344
0,123763786887418
0,126690876742492
0,124295765877099
0,123990532630221
0,122762026188246
0,124647211362629
0,124411669933493
0,122955435843997
0,128500429131656
0,123436648525211
0,120693813877065
0,123102917149645
0,116675089668127
0,12299244338339
0,12029479853274
0,120121816711789
0,117184781008107
0,121169355746837
0,117798422575458
0,119449074275885
0,117040903852662
0,119704620194401
0,116662108432399
0,11845088111028
0,115196042556517
0,11887573902878
0,114294108392206
0,117118749091928
0,114509658126755
0,116430478742734
0,115492020442222
0,11652903119942
0,113961643572029
0,116316082453396
0,110796028664407
0,124612139499773
0,112478407206619
0,1172538370608
0,110720914970535
0,117298215046399
0,108567632201229
0,115812898020112
0,108826034980105
0,115559783120471
0,109210640592966
0,113693428288072
0,111224931018845
0,115160100441687
0,110053117046075
0,11460003845017
0,107054165009079
0,111940772796688
0,110616531098077
0,109257600064929
0,106445483384861
0,111723821609558
0,107004753372223
0,108362002140098
0,107106517911241
0,109888805645942
0,103718629833004
0,114202451278631
0,107411717811625
0,109299492347038
0,105337075297858
0,107993365759292
0,104016006181665
0,107800006197475
0,103312030829272
0,106171620653006
0,101200333738799
0,108048682876928
0,106682959859471
0,105807686938042
0,101999671525249
0,10728344844653
0,0992959295845974
0,107090489182644
0,100670742262326
0,105829401798572
0,0986488414780484
0,103616979608274
0,0992661267742787
0,104086399644216
0,102404920346083
0,109595162790638
0,0987524429219705
0,100100640479302
0,116218529892715
0,0997514550081666
0,103920893842282
0,101350888384954
0,10104352628051
0,102632306327746
0,0985655936918075
0,102719447794147
0,101175175136314
0,10016386995963
0,0991923632009273
0,0974756373872899
0,0964961354204927
0,101185423005652
0,0979170843760706
0,102483166746099
0,0988204881819343
0,100226752525633
0,100775245229801
0,0998062130994109
0,100835858087495
0,109380152604181
0,103445345531314
0,0998275559130363
0,102322787010615
0,0877991702558333
0,113419673012711
0,104019454009942
0,0958564999080643
0,101165090050735
0,0949305275167404
0,0980542955751704
0,0948611763799443
0,0993945375140802
0,0961775360768869
0,107214011993033
0,0918887448750728
0,107298919681494
0,0939773401040618
0,100455681123318
0,0944488027398872
0,0989966166881697
0,0933438970531576
0,0978050518114872
0,0936386900478625
0,0976307201234782
0,098007937731502
0,0943866542873841
0,094370883778639
0,0937658177890372
0,0959285144762995
0,105298996664712
0,0933762701091915
0,0972389883287252
0,0944936799191208
0,0963096462323395
0,0934377861560827
0,118216732724233
0,0906653061419382
0,104008989032709
0,0904711477134598
0,100038279414464
0,0942401120114721
0,0985501598346762
0,0920550715276622
0,0994310261834318
0,0928755213351172
0,0992945611463435
0,0937624604501222
0,0968999453856936
0,0936519208408249
0,0970331805293922
0,0928984376272988
0,0967894519042437
0,0949731013069679
0,0947037146546583
0,0984741946092864
0,0914784682479968
0,100536695725336
0,11699913792096
0,0983576718590798
0,108526285771136
0,0971551706189036
0,0987759588064191
0,0925987744271919
0,100283102549941
0,0905306280642713
0,102644058762553
0,0914194197687238
0,103251755605093
0,092594333513988
0,102297595618488
0,0902176265438077
0,103153863334731
0,0881595678377309
0,10229753721087
0,0882672281752194
0,103943609726302
0,0875333764295169
0,106813843146953
0,0877746204190368
0,108621541453056
0,0921156135895824
0,109494677603822
0,0813715462601125
0,121538546110645
0,12235935302409
0,0958931358924715
0,10857540796433
0,0929951721492202
0,101529456436652
0,0958453161911831
0,0946989544208683
0,102078390908136
0,0974467068359148
0,0982085123750815
0,096484751479839
0,100549857606386
0,102294699557279
0,0955315635062661
0,091866780199979
0,128858109312442
0,100185971062117
0,103366057381773
0,099536346317878
0,0946522776798795
0,125198353490429
0,100036096206737
0,104384266525794
0,10292708380247
0,099931597530656
0,102845398779471
0,0989800133797373
0,0998671362793082
0,0999936498149678
0,108074310423795
0,097539938574163
0,108629543254291
0,0937900643390308
0,107857849749227
0,101333050960108
0,112646970983497
0,113683874470382
0,102084196002228
0,105141713105685
0,110009578086771
0,101639956106622
0,10828829506954
0,103270314012456
0,104663123083322
0,108354958218813
0,122038341999579
0,0988690587178283
0,120430764678899
0,115960577946449
0,105254219228625
0,110330586234095
0,11184414620482
0,11405401374047
0,109414032251499
0,095961413996643
0,150257024796593
0,100305773128556
0,13942015950288
0,101199957270817
0,12770214281074
0,101180885303206
0,122420607199397
0,0953814086685657
0,134639961099383
0,106305394715615
0,120577416659327
0,104054523800976
0,124866297475928
0,122877504736477
0,11977207085574
0,117982599328851
0,116315925423578
0,11150478399702
0,12591290087427
0,125929445214042
0,101176367835521
0,14362997494002
0,14448036861432
0,135892672642576
0,13240611666453
0,101561143410567
0,171899595632479
0,124005473264535
0,13247630815728
0,121546986499412
0,129896032550128
0,126649446819304
0,116674121963366
0,154990084311874
0,139239601380797
0,124490324070774
0,144886708621838
0,114281965285446
0,155050946400081
0,13813052371942
0,140663862350727
0,12781151539211
0,151366537652566
0,118114202954554
0,1786716408392
0,161443124456565
0,138616577014434
0,180004494422313
0,150713381208069
0,16550931284221
0,153455514270674
0,15695376184449
0,155771619188023
0,172970106780666
0,160429792176173
0,151959417778602
0,159661795877303
0,199459314976955
0,149299595629116
0,17634867327385
0,162909727429407
0,156788652925409
0,193203220989589
0,221091388605647
0,195517192482493
0,184869498691487
0,169730917206229
0,211159820982216
0,185583343555291
0,184497753851847
0,188819100379115
0,191384467681169
0,1970505502727
0,187868258882107
0,211119275918385
0,202207880819654
0,203223152367608
0,212512520390968
0,199571811246287
0,225776367389144
0,244941432288306
0,272318209253878
0,211683821784866
0,279177703576204
0,249368388566459
0,239530699805416
0,243770800819289
0,235392111612466
0,261126887955076
0,252751585186114
0,259011193156146
0,253307545059644
0,286549647874455
0,291579065182118
0,262844625702563
0,317168674144724
0,276056741488682
0,30733738635308
0,225240130321366
0,502346879017414
0,329871805670253
0,326665346408146
0,334834289236199
0,299929733705396
0,436113376584524
0,345314860782645
0,351563415693083
0,361745572118541
0,360283659479604
0,366171480648071
0,386550926261009
0,383515399695455
0,400189599908713
0,406357374102662
0,398484792844979
0,40736508976812
0,502516002304475
0,460863875691463
0,47454697511118
0,432426315192204
0,460919328704391
0,47105079343122
0,467092746380768
0,477516507226345
0,486825516008482
0,448504044893329
0,593918868239218
0,504307964302236
0,533283290904277
0,498103697242447
0,590947986410901
0,510450869697816
0,597341301865542
0,590192684089265
0,56754436479113
0,587486327892699
0,566505656576439
0,606111962436875
0,570803660755507
0,646359393848384
0,640600347086784
0,628152052396774
0,636643882898363
0,632013559488583
0,653670532670349
0,647742771666864
0,684485718767513
0,65627958305506
0,730094315425514
0,67198212963112
0,921199061128128
0,754334717854106
0,68411164772313
0,719505142915253
0,68337328474197
0,761421386697512
0,732121756411367
0,750729817361868
0,775263220627971
0,713992697360696
0,734086015931166
0,730121112950182
0,746166750507408
0,719564279782431
0,764392866020091
0,731896070355954
0,784200314996129
0,773951691531081
0,729599183827556
0,921138855871382
0,742527638366513
0,747059647149945
0,744281603721957
0,725979789147833
0,732808464662116
0,742544650582759
0,694782959911669
0,776653064176541
0,701534060232292
0,73571213946029
0,689879766752736
0,713880555293981
0,736515743670003
0,679370547701404
0,688978561324004
0,654597818307495
0,66505145425711
0,642596215266876
0,635848288007677
0,748141786499329
0,631057274596358
0,625869619485756
0,60694262605078
0,615452979162321
0,600244844097173
0,584926346736013
0,569537692410118
0,595687596587655
0,566830524115248
0,575393226682079
0,558802134563609
0,548704599572218
0,532452839870685
0,535700624872144
0,527541728248085
0,51043654442319
0,520494981773244
0,493566202644936
0,502828849432429
0,490915960752212
0,488036576165736
0,483480334002742
0,481874004860942
0,485179409972809
0,467488462892958
0,463248523562682
0,464518382632886
0,45255163041095
0,453585985958076
0,441706879951332
0,44516193288052
0,438180303869955
0,434841206204448
0,426722449560897
0,430773784751142
0,417678643745159
0,425524320184579
0,409894880291077
0,417323686005896
0,398862299586092
0,425537797958441
0,381715190190717
0,464023344302925
0,441473113422164
0,388069348310492
0,408158105062653
0,378059186523511
0,396746880582719
0,362801556276743
0,425632468766966
0,42042563040129
0,380784342382364
0,381867494016805
0,370928667470298
0,377618736354311
0,3891865457764
0,350249464819611
0,382848260630083
0,339634949050813
0,362805127306637
0,463512897997881
0,346214499327491
0,463522365090496
0,364853129329615
0,359982195166298
0,32799602994182
0,41363132271952
0,333245707306065
0,357074460714403
0,330804660175773
0,38187035524828
0,357162249091363
0,3279481891709
0,341804995915443
0,324541787455443
0,342410717448686
0,362422155449467
0,32914741561353
0,316942678173814
0,370529318753749
0,323476149098141
0,356598565695837
0,380957071034367
0,349829515721237
0,310635502643701
0,313739977367966
0,316154620052652
0,283928526210004
0,386486184371317
0,311612787292217
0,317648536777939
0,309299452415548
0,289282747268675
0,310591916381003
0,304185274816202
0,324875805158966
0,275209228280449
0,350198218298199
0,278109735531574
0,300460937262272
0,31280988628181
0,30674847911791
0,34564520109756
0,29687046750381
0,284964762856848
0,297015044881902
0,343385401222263
0,284606762015118
0,303833519522316
0,280616630151756
0,270484838940086
0,31016330618669
0,278548307084814
0,283224946984608
0,303181877085009
0,269997819680944
0,337988913716586
0,317674999545818
0,327347346719654
0,292451232935764
0,267335457763307
0,279230773889629
0,267548066719473
0,280567528324483
0,262110337659903
0,278430143931841
0,300057688055795
0,234405111112518
0,330812838048432
0,277690924916092
0,269700519678564
0,271221565738976
0,266911806634263
0,271278908109878
0,297650238908221
0,292412862506511
0,295278514033675
0,265996079103465
0,306930691248158
0,264483576638338
0,282856206380131
0,264674612311715
0,283303834869538
0,270731700521537
0,294340246322395
0,276241736639939
0,282506729508116
0,276880252806702
0,290925169330507
0,270753870160561
0,337644796986668
0,260393174392676
0,327822411502326
0,294344946268805
0,341572922623485
0,313760909594986
0,291709104562933
0,305256164928682
0,299975491572449
0,303546098077315
0,308900349729101
0,290684818957471
0,361413871284691
0,298014961814269
0,318162287485937
0,298429033411885
0,318953862705724
0,30122215389374
0,344875909773195
0,327436522070086
0,340408196462617
0,391610670546534
0,320042693055194
0,339258610616662
0,304118437833161
0,327677035272922
0,326377568275886
0,316630065315952
0,325886333050344
0,305717952904265
0,347489787400688
0,325421423586957
0,324102814476891
0,327091428023735
0,321050126802672
0,325529670266147
0,32492010816653
0,326606357476342
0,330239970924147
0,322610981054133
0,339924401441213
0,295274325605003
0,392999858275685
0,347033060632187
0,329625483194947
0,341244581823868
0,331251493647813
0,346392034761967
0,3235575021532
0,340805792404645
0,346698394182503
0,332128552794978
0,349780683441076
0,333211961239537
0,347710135634402
0,336483588413204
0,373990379499697
0,338859009828635
0,349768493534407
0,34438338082742
0,327449689578388
0,418008772110969
0,337065855934234
0,3728600322673
0,344873038436948
0,353260030286718
0,343752108758512
0,350962707661262
0,347570105654299
0,354170632243021
0,345519517644228
0,34891311869209
0,350390689511222
0,342986024300932
0,349584695914086
0,337217069597908
0,366241623401608
0,352801403655221
0,348916886749457
0,340603423577396
0,345952063164363
0,337742967180186
0,355955722172433
0,363027457136211
0,339628191026587
0,35640293427765
0,341294336188759
0,354990319192341
0,359381667241408
0,338405568653033
0,346322352138252
0,344858548153627
0,338825508711874
0,349498423631034
0,332854218439426
0,375222133412511
0,34568392497194
0,351773350481912
0,342924425553151
0,35203111690081
0,348793796856494
0,354151892490211
0,346885477245038
0,358402094111814
0,349486089456368
0,357764539109465
0,358216341185146
0,35997581172722
0,369811867819387
0,364340735352239
0,36871811249792
0,358313156677017
0,354477476580866
0,3591106027388
0,349413324363923
0,363598417786571
0,348823914693809
0,352457313110528
0,342657165256996
0,355501310429004
0,336050250118048
0,377182199407309
0,347715817315533
0,340132575615798
0,345043702390554
0,326089403778345
0,341824871504373
0,330847535588126
0,333982178582717
0,331679443549612
0,342576234283856
0,33012767899512
0,328422235438408
0,32788434436624
0,328321266630549
0,331403609287989
0,33036673187395
0,32954081034292
0,323438103531844
0,326743610418481
0,324731492356049
0,323181210361583
0,323026201990271
0,325816672034477
0,320788134030879
0,329876817062063
0,341819260234202
0,333817034337484
0,337780126475409
0,319672875655605
0,336533085002289
0,32145203661801
0,331970160292674
0,319312279851805
0,321690874938431
0,316702010089277
0,327798187415325
0,322170886424108
0,32269556239991
0,322803767554636
0,323112695551413
0,320908292025155
0,323761845464941
0,318827942969011
0,321719873259246
0,318149138287203
0,317926141379037
0,318002619985364
0,324648581506737
0,321291862357637
0,313534665576276
0,320835779617049
0,320441219716297
0,319522144389595
0,318001187743493
0,322547331096167
0,317469042261453
0,315688246435437
0,318087292770614
0,312407342646312
0,319076323949998
0,317960962184933
0,314861632476102
0,311405779947037
0,31449676713114
0,313671274252479
0,315326798815125
0,31268100509214
0,311577837912037
0,30899068592396
0,308321706458997
0,305808924415183
0,307465602045966
0,307583982367337
0,302335364670552
0,301555460987238
0,303768568954578
0,300692588609511
0,298971847995837
0,303394153166331
0,300161000068944
0,300036973475436
0,300136032818348
0,298430317659343
0,296666744900127
0,300425569212779
0,298137499767104
0,298460674024457
0,296867613192836
0,298048604246159
0,29576544359503
0,295775606053372
0,298415228219069
0,299077328460866
0,298666564755811
0,299606204562731
0,300121619167716
0,30125397244874
0,301392985000963
0,301729913452248
0,301203953820937
0,305827663275566
0,305683349005853
0,303058334725602
0,305018872992159
0,304771582094648
0,305904733178673
0,306398053590683
0,30373986305702
0,304495707447229
0,305249438373504
0,305220324968006
0,306241009397863
0,309024898915174
0,308599611676544
0,304320682779748
0,300841301767376
0,303698090822477
0,304847618537734
0,30319486887234
0,306029464812999
0,301812497965868
0,300216305884444
0,303713933954187
0,299254532590446
0,298739794210438
0,301717055479454
0,300267203815585
0,297471847498937
0,298480772183662
0,299731776024452
0,294535203166329
0,296802304305231
0,295780113781586
0,293590539785579
0,292200174258968
0,291528929138337
0,293019825152798
0,292384463155105
0,295739696942588
0,290859351355951
0,289455484215856
0,29252957646859
0,292650406432745
0,292647088581485
0,289987238410814
0,289576163168755
0,290332539798199
0,290896803959593
0,291350736062918
0,291222900164778
0,288845528537696
0,289487313765699
0,286774652149936
0,28442557172279
0,284658333957911
0,284976031447695
0,282189593790835
0,282060353365886
0,279794245762351
0,280021883619254
0,277316762746654
0,277182176297913
0,277608117262695
0,276918679115515
0,278583832105779
0,274964208093495
0,273905788680331
0,274032420809324
0,272225088031283
0,273732586024044
0,270893707556817
0,273221870741236
0,273298387988232
0,273218685132355
0,272209354159976
0,272278561801687
0,271231823290541
0,270318770621943
0,268215873547685
0,267926314020082
0,266194431389239
0,263758691097274
0,26438426350648
0,264021160828987
0,261707100153348
0,261689477429855
0,257944988915928
0,260406291204798
0,260421999317461
0,258647209411258
0,257708155622491
0,260220137130261
0,260974978012112
0,262781211505128
0,265682233786181
0,267631540342805
0,268350235635769
0,270230966947687
0,274864745408536
0,278348732472474
0,283502420447134
0,289032231868153
0,293927676645727
0,300560326368855
0,305358413435703
0,310604737621799
0,318166975842208
0,323667120436792
0,329465704317217
0,340211289443673
0,343876601230037
0,352252798540926
0,361943911910864
0,365147984472694
0,370508217252858
0,377827470893166
0,386585513179312
0,393445857493335
0,397000372888774
0,400635792496688
0,404419271521368
0,407248492389671
0,409600901988407
0,410283934910298
0,412516411318273
0,41076963857529
0,411679475837124
0,410775844859618
0,410250414884401
0,412030272314797
0,408849073904467
0,407184512681003
0,408652719786751
0,403964814158844
0,405355689026568
0,403305689527237
0,402103769889829
0,402406656951007
0,403551225525026
0,404115459017261
0,406195037535539
0,407381100613949
0,406672030613105
0,407751589331404
0,411613300612826
0,413966298633713
0,415052307946716
0,420857354025837
0,423972688773773
0,42416632655953
0,429519995223469
0,435275413145686
0,438497789875951
0,447449877905912
0,451095753191292
0,457931664909089
0,468627610130733
0,471806854477058
0,477491490319112
0,48216281596439
0,487223172874255
0,491546156754662
0,490526165782917
0,492157843732247
0,4902910702725
0,490427502828902
0,49188301580863
0,486246901877549
0,482980669898659
0,484467309299744
0,485343961243896
0,478772781100668
0,473514038855192
0,475531221262136
0,475511139510145
0,475646555033639
0,478011349264463
0,483848258124167
0,489214011859842
0,492731046575029
0,501527200795129
0,506578052266994
0,512587982056725
0,518765866107099
0,529069914582015
0,535501888381317
0,540743448637937
0,542887417884112
0,548439782912236
0,55313345297457
0,563710876312733
0,568992516286844
0,571972680019553
0,57681134244493
0,586920694562072
0,599235870701257
0,602079686077337
0,608904191064492
0,619554545271536
0,63000104223652
0,649605719980342
0,661125631600592
0,668604166657801
0,673028466441876
0,686182040153008
0,695763406661017
0,700914952360029
0,706992473721894
0,714975216883213
0,721429191941525
0,725346708404381
0,722893938741569
0,732689309542316
0,733960923339093
0,730375068248434
0,730015650229423
0,722848439360272
0,719413395976782
0,711813027635215
0,698801627453938
0,696919544736374
0,693400307970862
0,684169610295724
0,682071157234954
0,684831670152954
0,675867111146102
0,680951811377034
0,677757715464655
0,67196483536474
0,677790912321644
0,679074506437324
0,682903424568739
0,683656097911768
0,685367733864881
0,692007923168887
0,700490695659313
0,712870508026628
0,715299691422879
0,717459760902914
0,724676830321657
0,72886616947984
0,736341342980953
0,740957612557008
0,741356782525632
0,741564703264059
0,736996288265246
0,750977260014324
0,748971205037284
0,741945425169743
0,745984014196656
0,744968194889592
0,742474249067932
0,740265126549109
0,743313789423299
0,745509939768994
0,735261478946513
0,728625197468591
0,728759128108059
0,728318147750522
0,726739622201565
0,720715390961087
0,713533593622871
0,716580068252799
0,715197544129597
0,708435111841621
0,702498373513861
0,698279885696588
0,692952688317832
0,682970885526804
0,672709587853299
0,665506253599366
0,647783299295701
0,629795141625944
0,619368520648672
0,602157986452722
0,583369746504779
0,570103747985409
0,549341435169482
0,537474384882812
0,517087958211679
0,502511479255318
0,489527931631357
0,478997694915585
0,471822869848191
0,460007129712567
0,455872374559722
0,46136037158551
0,456590364262358
0,457148766493942
0,46041754534497
0,456665360372438
0,456475911575087
0,462215445723838
0,462607633621074
0,458525792324441
0,455001352127018
0,454835005434342
0,450738918937293
0,44862036324305
0,445228057632153
0,441782205164289
0,435212283124557
0,430168997480528
0,424787300850304
0,421045750839361
0,41217322490544
0,407310918120542
0,401543700667362
0,396221532995184
0,388446496466657
0,385696434870397
0,379980022708762
0,37197828611931
0,361625771800687
0,364236220888947
0,358672717341083
0,353670814799281
0,345627039919267
0,344637125115793
0,344149410033793
0,340128919919893
0,339776404550388
0,331168629532029
0,32602770532186
0,33291278429649
0,332292864979955
0,330229034925373
0,32779750243082
0,330593684289133
0,330574143456477
0,32779480452906
0,327906018044353
0,328542891223748
0,33120744487776
0,328060599799961
0,33501367642427
0,332489035422049
0,331785678037775
0,333769822499957
0,334656931746809
0,336531408434388
0,337602383308001
0,342881864122267
0,346624877509058
0,348499638333335
0,346012597999148
0,345824017249103
0,350911741914308
0,354021052147586
0,353666243108951
0,352542205326215
0,354698777909969
0,353816165593537
0,355212316693174
0,353717060691503
0,354600718766339
0,357718730832266
0,358033513660202
0,361799951409759
0,363508116131909
0,363055122898151
0,367810639306402
0,370316208048116
0,367298879000419
0,368166967802634
0,370693086331778
0,375931170578027
0,372313426568931
0,375983560224878
0,386051345429093
0,390094155358354
0,38315015035242
0,390397486381574
0,390033461411504
0,386862722963138
0,393228051001942
0,401234525607262
0,404214471211953
0,401542718191364
0,401723471472113
0,406607040486878
0,408573784958057
0,412202237030305
0,408362862548281
0,410480876476329
0,422361519527814
0,422313394574901
0,421361793804606
0,42903346245225
0,42880218787078
0,42709441993593
0,433649758514628
0,440539676953492
0,448670444800897
0,445653003631337
0,450833388633671
0,462896041778444
0,452646516960916
0,461310973344813
0,470809798199713
0,478581530118989
0,481437091031729
0,494478296880194
0,494027903179975
0,495961584563137
0,493817443333902
0,505695136398554
0,500198980799954
0,497767644485323
0,50451987941915
0,507744049204982
0,502163164115851
0,501694658121054
0,507381114892938
0,506291403361564
0,510629815647573
0,520331509143558
0,522233130093929
0,520732583693983
0,516538639089474
0,524482432193806
0,538066840200709
0,525784542230342
0,531899075286739
0,538370347329571
0,533562923197369
0,533176446517062
0,544470939581833
0,542886365187063
0,538777953885265
0,548166878966522
0,565148986176666
0,566646200752013
0,558234794579614
0,554780093572753
0,565789642110997
0,574802492541539
0,570613166724897
0,577817608161695
0,577296158923149
0,589604296978905
0,587280779996634
0,584429605682275
0,591971489657263
0,593171417669408
0,601677811656577
0,601557771212398
0,611961909982647
0,603790222033308
0,60852713078942
0,61469978232389
0,628955494695815
0,633255181269761
0,627647262702676
0,622007522118146
0,620737831964047
0,622724107590955
0,63210961604481
0,635577794488538
0,660108012379293
0,646745475467993
0,638571896263714
0,654099048452709
0,653892466519592
0,670057157645176
0,657721488277011
0,645331084601615
0,657411094127276
0,669582979121847
0,679131901307145
0,683403664210065
0,681356886418077
0,686667542622775
0,700268742710681
0,71590446308276
0,679313455091028
0,688118162562585
0,722770325909761
0,72236627843858
0,708283096882655
0,726198064497555
0,713130779657501
0,698628101242844
0,728388288057983
0,725356861557168
0,743049781423523
0,747217711693757
0,765268444045853
0,773322796598669
0,764111367640337
0,75845158008584
0,761681604031834
0,766802565213398
0,786648333509817
0,761997737903104
0,77565228106899
0,773318334985925
0,812473187586102
0,77675995606149
0,801137183395691
0,805311953288871
0,799593924768543
0,832202006737052
0,83976121450541
0,832012203082346
0,8339964681603
0,825187131320147
0,856096341413452
0,882836590994368
0,906939549580788
0,852715097510978
0,860474989441156
0,842507207395825
0,881009189068343
0,913901816169032
0,887153536496529
0,866711042630996
0,916373604555402
0,909320700166208
0,907491637120617
0,928841915709884
0,881167563645316
0,939591177226111
0,906649620607879
0,925737987203964
0,91963006417536
0,933451830462824
0,980528060365629
0,925381778585719
0,988279626438216
0,954478476323231
0,937025056898522
0,979502936546426
0,943433660284013
1,0139053295452
1,00572731449111
0,97789214411709
1,07661403779849
1,01154062243363
0,93089668105652
0,934975816886504
1,00470526128353
1,0187083759992
0,998031206386586
1,04467968692699
1,09974382533602
1,02303141861238
1,02997316073585
0,943360584750723
0,984823593907714
1,02742017725465
1,05644566252872
1,03491465886003
1,00804219066706
1,03403584446714
1,00498545712642
0,965857146384949
1,12455965510098
1,163047256626
1,08684561282505
1,00690714706796
1,04814768091789
0,991893646822309
1,11448284737376
1,07994775331815
1,18271319116551
1,07338978855371
1,08400044604062
1,02642975005725
1,05975787975719
1,06306787370995
1,24567072304433
1,08353537379014
1,05723100447088
1,14685828454839
1,23398530786364
1,02334454727939
1,20801622358063
1,20733703928961
1,11802802797654
1,10310564026796
1,21164945045956
1,03187948381697
1,10416466540185
1,10627313742841
1,13674121232206
1,25830417641129
1,39999019598136
1,08456772869823
1,29946915889034
1,20016177183268
1,15168304728261
1,18366848898748
1,13282589140861
1,31891333142798
1,31176106559881
1,23020555729166
1,45981855641779
1,46898296403547
5
1,33704159894599
1,5490975270687
1,0317799602406
1,26034864756936
1,09973716128675
1,14216325775711
1,045214198394
1,45428957298028
1,21343936208665
1,44990230015701
1,48907186919752
1,37524576905252
2,00174617138275
5
1,44779435919887
1,30629856040855
1,19945601218075
1,67800264217929
1,18880673496119
1,0477419149291
1,11652458434866
5
1,15247507426057
1,18145887559081
1,00492534922906
1,76466390509517
1,46694245000951
1,47408503357486
5
5
1,16992497894142
1,19135742800662
1,19798149337578
1,19808638520826
1,28157223970945
1,37751634873427
1,13826448414301
1,64078014120768
2,0786407035
5
1,2832981621284
1,87658892154856
1,68262929898929
1,00810513813197
1,82634554465529
5
1,31370185980061
0,990222093706115
1,57865195763641
5
5
5
1,19763703735844
1,00350552795572
1,40044465052604
5
0,819229122134157
1,10975654926048
0,802073070262325
1,54954428385653
5
5
0,830943671637464
5
5
1,56660425011501
