3596
4000,36533379555
650,420452594757
1
2
2
0,0694260452096195
0,0593643212994082
0,0700370031887961
0,0551246798918531
0,0722388514328442
0,0603381521256982
0,0610584657208283
0,0628624662012342
0,0750396048446599
0,05449593175393
0,0724759569563886
0,0596230258549449
0,0691828833689291
0,0605807671640074
0,0718717158871329
0,0636694607055383
0,065373544890643
0,0626424382391403
0,0685828092972018
0,0533202204446098
0,0718453223905101
0,0633539993744103
0,0699466393894179
0,0573710019972501
0,0629836906230296
0,0584605880341994
0,0812113554361292
0,0598934187799931
0,0725089367291638
0,0662818459734505
0,0642193576887349
0,0579057208097494
0,067368453399813
0,0537040746101077
0,0745282806662795
0,0505646723908792
0,065707821107876
0,0618885537160978
0,0620176531504895
0,0603357707562101
0,0632887099181637
0,0496096944490821
0,0631640542446273
0,0523238156734265
0,0748072524778387
0,0650289874087409
0,0680108363769412
0,0549670749001709
0,0713266429332322
0,063603280385376
0,0655250607663107
0,0478867871759883
0,0766203155931727
0,0682940367817138
0,071729855848755
0,0689206291679973
0,0696362473867013
0,0559868566103076
0,0720071018621784
0,0551237677879817
0,0825590574294787
0,0648728659241905
0,0675108271274861
0,0521846494436227
0,0662067008356469
0,0523313068055751
0,068729801505088
0,0572719680728037
0,0650236994474111
0,0587981689047225
0,0567035552596655
0,0709938764392422
0,0814189390439621
0,0585728190800935
0,0722388787063566
0,0644092438312091
0,0654704718583881
0,0534352121391111
0,0608249172852716
0,0692016894055349
0,0722748857179046
0,0635793167895253
0,0679480166029145
0,0542282610518411
0,072338187299962
0,0697664591672377
0,053346814547911
0,0697306191967627
0,0751502182090812
0,0622667026105973
0,0624534714609856
0,0571336276527037
0,0607353605749687
0,0529607901990906
0,0604967134878132
0,0535891354539395
0,0569297712187324
0,0669063048720397
0,0560547568982864
0,060911658358564
0,0509870411813719
0,0679171602932186
0,0966197756873888
0,0478718114944303
0,118410968925513
0,0526402765927002
0,0656178185605447
0,0830535889844041
0,0712673664115746
0,0562716346797473
0,0617423911527452
0,0525956096087173
0,063330087805375
0,0629937738499463
0,0447668514390699
0,0692395569678084
0,0839497713820512
0,0655012298153535
0,0587764943070008
0,0567379275703792
0,0342368598866928
0,0845562871950032
0,088363677329143
0,0710207932133509
0,0664460048654242
0,0522638101862762
0,0416260723627005
0,0914687413218756
0,0788606845875902
0,0561170668531663
0,0566975800848518
0,0598177245717683
0,0488334660526799
0,0488072280191533
0,0939064255901886
0,056534496708865
0,0605707762426418
0,029655561586896
0,0904092448993996
0,0901356685017216
0,0664277949736464
0,0681003950474199
0,0433281561860061
0,0527467156337399
0,0953543970863359
0,0705762267438941
0,0620815894284301
0,0759077809657196
0,064470149892174
0,0607333864272805
0,0584632914472608
0,050978979484051
0,072971398194078
0,0582500463107958
0,013897129179095
0,117761076596498
0,0746099038361347
0,0858240351220494
0,104143735698331
0,0554567260505507
0,0697210958015415
0,0516529066753717
0,0685286465318993
0,0477218157649942
0,0695394658081076
0,0340255663308518
0,0709189892754813
0,069731919649444
0,0577687937398691
0,0566925286864198
0,0983299494763582
0,0594847791720709
0,0424339164600619
0,120097812216321
0,0684732745141742
0,0484995015939377
0,0833349376849572
0,0672114886431218
0,0417832811076365
0,0564773244942334
0,0764539133293734
0,0543480810476204
0,0636353652966696
0,0451551204295881
0,0561136966852752
0,0735506706877398
0,0639664408178872
0,0582516148626719
0,0564267247541164
0,0344467575265266
0,0659990551327889
0,102051966708085
0,0909791597261432
0,0599071049220163
0,0575902798342142
0,0215186411513471
0,0974902493547467
0,0651126614937275
0,0638395050235529
0,0515909455151757
0,0574394298940729
0,049222530599732
0,0542422178586122
0,0583781181431708
0,0515610514202294
0,0303520409905295
0,0985446555763752
0,0710849062997326
0,064309696221665
0,04530945831427
0,0626704136794202
0,0305373942961002
0,120110332756127
0,0706161262249354
0,0755291711129246
0,0480211731636622
0,0509657426698976
0,0670604377316166
0,069792463935465
0,0535930294201263
0,0635425095019692
0,0503381154527336
0,0617638788193734
0,0476348770412065
0,0558463324307393
0,0503263876283743
0,0611303671032085
0,0518516289918125
0,0535125533118969
0,0478144067557892
0,0702070889943434
0,0503158439410981
0,0559304656727108
0,0489097739717651
0,0442033313098091
0,0604933840165076
0,0772151593712339
0,0549227302321256
0,0649124700660831
0,046440562024563
0,0530662769348107
0,052650632729485
0,0520295912242406
0,0547098167298144
0,0510400422686524
0,0442999066330276
0,0893397143359335
0,0524196771193952
0,0677430218785031
0,0320348594264136
0,0855641228881274
0,0546272123988202
0,0689305148337052
0,0458697701493554
0,0732874839406663
0,0388590137718044
0,0659110464610308
0,0777819199263513
0,0790305600775425
0,0463072803327198
0,0781759605620782
0,0543971520034517
0,0652557598792833
0,037790911316827
0,0545694074992618
0,12001617287308
0,0662553243409457
0,0418974553834957
0,11896608050784
0,0617965342733454
0,0818034413298587
0,0457724211312355
0,0319345538018169
0,139992295033314
0,118203726639167
0,0599969869654758
0,0615805820181356
0,0766110794240105
0,0587190312758076
0,0696242069511977
0,057155866857398
0,0778517818284328
0,0901932134611783
0,0956467445370824
0,112944967239297
0,0345121160713446
0,107469421538417
0,0704971888779544
0,0706436708753014
0,0545662292187412
0,0744566401756257
0,0514786348625416
0,0850304639521312
0,0573020268467028
0,0928709211339542
0,0547930240199044
0,0693703277347505
0,0848064478754945
0,0805698684672393
0,0516262594631286
0,0722885574537343
0,0702904977794526
0,0668864195869356
0,0620845534789402
0,0647017329887363
0,0742430335131053
0,0555029546899888
0,047634827814227
0,126283324543814
0,0645394713528002
0,0783359563863235
0,0889737484730751
0,0755766756775185
0,058487384920227
0,0736163491301459
0,0644720888309384
0,0705705432494762
0,0628047813256138
0,0550729245499353
0,0904118662779698
0,0717550635446433
0,066583722710118
0,0726116091047818
0,0643164612575836
0,0674544177735173
0,0653045331161923
0,0722338874880276
0,0707916967354595
0,0763558465575341
0,0531679210723212
0,0897221550888632
0,0993527841000806
0,0572332648334122
0,115225081432826
0,102225007439836
0,0847831672025421
0,0803211515444613
0,0736165719652809
0,0845869156305643
0,0667936550271775
0,086664793143954
0,0675902174832373
0,0808636309259026
0,0952860137207108
0,093266538737202
0,0742267588123803
0,0917273443212832
0,106724564718578
0,145549733312409
0,100370225691596
0,0943943857137797
0,0533477283743816
0,14419336411237
0,0878374143568834
0,119385010436693
0,113934984982157
0,093155938489595
0,10102574089793
0,0968263057517817
0,0993027361984843
0,094945341326581
0,109444609295256
0,102488742217941
0,108775791348277
0,104872606835458
0,113385347581705
0,100351677230687
0,105761473781184
0,153819626256909
0,120705231765512
0,12619210910459
0,112579198540047
0,102641439286299
0,153449932971501
0,131266992040775
0,188259270188719
0,140434681282031
0,146926313059252
0,175063036694738
0,12847314880819
0,148055014031513
0,128783221908271
0,146725614259139
0,13457344194556
0,149339304397163
0,13868143636252
0,14958848394347
0,152896992567255
0,166335945128818
0,15183160441547
0,164628425649608
0,154305972899399
0,186614762075299
0,15672615207695
0,178011281521222
0,143714233972398
0,203506852988664
0,200170440228261
0,241610346736349
0,172480664187038
0,194081855062226
0,17399538187157
0,195173097234158
0,177755757683871
0,200705601485447
0,182188461558895
0,196246743873786
0,22559122691767
0,2136895172473
0,220018213681693
0,229838644662371
0,190122618055967
0,250815761716822
0,205959500637985
0,227542258955322
0,232318460794262
0,233838667560602
0,201420980219714
0,27253740609015
0,232950969440687
0,264189089112729
0,251598323097147
0,247377851971993
0,228889507017079
0,245598912367843
0,245351184384649
0,247162994182616
0,252523742422092
0,267330156575343
0,266157211758579
0,2867467459765
0,26395467532127
0,273732070555221
0,275696566256202
0,271315940418584
0,265614856604453
0,298428268545394
0,264139427909424
0,293226961109475
0,258623623255569
0,331464654936233
0,296522955778938
0,337043528379489
0,307892307339858
0,303377132587364
0,296651737058075
0,315105124960658
0,318552933943441
0,323862165677718
0,31135504894152
0,344546032553284
0,307928478639652
0,328539791962517
0,339472769342101
0,355151773145368
0,330584050877847
0,354205610571914
0,335961963610441
0,342456623384715
0,334069359384949
0,365472919597511
0,358873025692178
0,42440168459243
0,360262876393102
0,418159866942589
0,392625589015299
0,387940324804763
0,387978279107184
0,404752755067185
0,368899986565282
0,400870424741316
0,391835333338013
0,398174075313143
0,387939110514902
0,412628429437568
0,39174680632968
0,425143549533531
0,423369919191551
0,44756721257854
0,433085856869549
0,444862016400401
0,432750632487372
0,442106130069963
0,448325938689228
0,456065526966563
0,46199625967661
0,465473914440979
0,459390234570309
0,489265202366871
0,450945297234796
0,488980820910276
0,483375508880823
0,513942618430148
0,472142778229868
0,492843480397358
0,484058521324228
0,525332642076913
0,488593003334033
0,511631333217737
0,496848330565974
0,522933876115404
0,492534450224725
0,544396060098916
0,520764172408541
0,569730126370655
0,502771008786557
0,559342490253137
0,521448317103041
0,57447261253901
0,512694180342851
0,569280891495725
0,539266111067508
0,589955076497581
0,542882563419319
0,557313703328239
0,566428718452184
0,61041351469971
0,571049047406218
0,584286263700447
0,5678263655927
0,626005868452647
0,569745977027754
0,607217207548118
0,582334078546525
0,609552986560823
0,622000811440883
0,637656868187538
0,635091180212038
0,648935510196032
0,603636228302422
0,644622752565487
0,611185356015904
0,662676477984591
0,621439897096735
0,695593471188185
0,660302333347866
0,668309607236701
0,635048404429772
0,728220038742815
0,662237061458447
0,695135666370121
0,669474161846398
0,707473496700931
0,695213221921916
0,733720015791479
0,701341188708799
0,756119894135901
0,678443328552464
0,768713374779401
0,724261274228708
0,746401029418365
0,684309997702584
0,744768877084661
0,726899637622704
0,771216967064762
0,714923034898341
0,77905038693623
0,718916691761454
0,783460363387155
0,726195059915423
0,792261737964625
0,713494260702244
0,78807749560885
0,786412535497673
0,778758932015824
0,779229976056976
0,783556321997263
0,770377519100949
0,794325075637577
0,786785886229464
0,808764865434976
0,801762924369761
0,851968109183856
0,812007142672356
0,851049621196636
0,819867853374321
0,859303608004699
0,801734948646095
0,890929114244523
0,81999651297392
0,918655967323913
0,82973989884856
0,897519817902154
0,849825582366397
0,870688652202405
0,860392935777563
0,88275210894119
0,850331786290365
0,903550241470499
0,865966655613162
0,936741935827789
0,85007164903517
0,952622723146379
0,887394224475419
0,941282286942742
0,904966252261116
0,95325645432721
0,881870202018333
0,943955553806002
0,890937327249639
0,95811021671332
0,909369240516792
0,972047316354947
0,879460141164178
0,937427557783912
0,924335174122517
1,03967190340823
0,957869829838269
1,09244295553585
0,950550369745951
1,04182520801719
0,914327084436555
1,01867710652344
0,992659588817437
1,04682512387726
0,961482013830074
0,977025907573939
0,957707503334834
1,02197606153084
0,95890520496553
1,08221715436133
0,941443833736761
1,0463187293574
1,04117863169702
1,06970890364185
1,03634437680988
1,03871177615112
0,974988757030378
1,02519511410735
0,947861322045006
1,06394022258593
1,00338335459057
1,09472499201449
1,00391604599759
1,03131153746235
1,03681181493339
1,11243453114672
1,04860253468763
1,04996136477826
1,05270256385264
1,06266117247272
1,03671954823237
1,05769048005612
1,07429649902501
1,14327615665563
1,09824036578276
1,16151221396628
1,01921312170486
1,18057845164885
1,07917467907816
1,15053768061077
1,0716095231897
1,08969960277593
1,09201571457998
1,22071261675946
1,0850756591184
1,10770762819572
1,1439790688524
1,19067402716872
1,06444522636666
1,18032750496971
1,08149052084212
1,22500877259564
1,07772404325288
1,16719620868461
1,13317919837982
1,18680914307296
1,15350826073527
1,16934323900496
1,08827825623604
1,20489738621394
1,14509307535468
1,16454615530073
1,15622298954202
1,15769880591604
1,0893125072453
1,0841576549919
1,09159457870544
1,16839518812012
1,08489359644385
1,19208021084238
1,20113969557178
1,23028013303214
1,14577462542469
1,20942740419817
1,15362825638473
1,32122520051291
1,14390533336807
1,25561104595265
1,15726546465124
1,22577841417019
1,14493558306168
1,19504392697203
1,21169718923611
1,26318323060839
1,10626796922166
1,16262215904834
1,11892589732195
1,23187102410173
1,16788977858244
1,26254812011766
1,11698005653304
1,204738087454
1,13788859992661
1,26322382674902
1,19320016273261
1,28817556775438
1,15909678837709
1,24214474366926
1,19955354311008
1,25349462443315
1,19319013415206
1,20860719951415
1,2330166838026
1,24376941375141
1,2128341184076
1,30885854957896
1,24090289727943
1,31458510278056
1,17946459608281
1,21253930898253
1,14978581129375
1,2221463709328
1,16097158223239
1,25622920874499
1,18887000323717
1,21219276315172
1,10698672133433
1,18424041079852
1,14925402401994
1,28452465384225
1,21131741112723
1,30537619680277
1,21124453504442
1,23705193919669
1,20295069467662
1,26648473368692
1,22135536490154
1,26949875155191
1,15453805341739
1,30876199441041
1,19432308778297
1,22572009917116
1,17933422375348
1,23106088766214
1,14730193361417
1,26453244919888
1,20389324184452
1,2114733094373
1,13428099408437
1,29749298323731
1,22218297230227
1,21710237857817
1,17632518955738
1,2292923757192
1,16484440121865
1,24523386718627
1,20201974738748
1,27440735132207
1,26663216902308
1,25496976974157
1,20085192268277
1,27014764688654
1,24173031500082
1,22157681846119
1,12996046879365
1,17368432585184
1,21022019935146
1,22937315720087
1,14818146135784
1,16359765490568
1,22771125898002
1,30951988141018
1,18727140799324
1,24556496732107
1,17580960483207
1,27261086019052
1,18710612497522
1,14475021213735
1,20281692847382
1,24342662053305
1,20678044524333
1,19827981389615
1,17802698896905
1,27138194899008
1,17965315344597
1,18474730228473
1,16700306162794
1,19167152798571
1,14675029726105
1,25458122873825
1,20567895829349
1,31130390868793
1,21229902257864
1,26277798810181
1,19968729598286
1,20414484032284
1,17441989312805
1,17855283842848
1,16224492278492
1,24323008882877
1,14740916106638
1,17949470879891
1,19884558677199
1,18535465119087
1,15409491454051
1,18187279324658
1,1447888729866
1,19053455321541
1,09791074184358
1,24949593604358
1,13105338881804
1,18906552929919
1,14076443091577
1,17952896944438
1,08112305657083
1,2019583050553
1,10045179429572
1,15043185491474
1,14356420721051
1,13266780704041
1,10175247329148
1,16083337895335
1,11009460779499
1,1100988244727
1,07301826831115
1,13940493734436
1,13124116024442
1,18239290748292
1,0920901861212
1,0869940745849
1,10312208892409
1,10505127070642
1,08843373786143
1,16124961940642
1,0804203122155
1,12949252792493
1,08466077751574
1,09637571042993
1,07779697632804
1,09348026978847
1,07752024359555
1,10833816881014
1,09330474257527
1,11868631058608
1,06141439078388
1,06066647565935
1,07011958679147
1,08160731019864
1,06863329508557
1,10120218434144
1,05882709628562
1,06675104843803
1,05924208354261
1,08739541117189
1,02974684584127
1,05036284266027
1,07599335030548
1,04182213230837
1,0163692122608
1,07340246135707
1,01139759088255
1,01253254409751
1,02431983046039
1,02902103254092
0,99835235358766
1,02072292018866
0,978675967572279
1,01507901328328
1,01913030624558
1,01728293429626
0,988048231093842
0,99656044683585
0,95820855571406
0,983475453833541
0,943156994397107
0,975461870887932
0,963572161976373
0,949930354390641
0,94209331154137
0,975953021965765
0,945877027548975
0,956588833606884
0,944429410582568
0,954189775239449
0,924055947165696
0,949490111468638
0,922180698975934
0,939623374023905
0,943571756143535
0,931740414336716
0,90927644916234
0,932724394358372
0,900002540394214
0,9368565428799
0,916773333395856
0,897784936193885
0,875490204706421
0,915818458465846
0,880552839679878
0,897191296765766
0,868129363044919
0,874038920136758
0,861304036522879
0,886606716229679
0,855565751769246
0,8466388487018
0,843581502106087
0,865781727362656
0,836767964064686
0,844549524739452
0,827890156882959
0,849817058737968
0,828119037981158
0,812992947739969
0,824297467544651
0,822807698523344
0,810844885903959
0,830882565800853
0,806168661056065
0,798046052378895
0,781619369228843
0,809800742835719
0,787008483625797
0,787610580973131
0,783110789175271
0,79787155032407
0,767012903685029
0,759930931976926
0,766853222395271
0,778090904718382
0,7429435643959
0,77457397249189
0,755232148636466
0,763459620628779
0,742777769327921
0,766206644531162
0,754597384423489
0,747268221946319
0,730965286381108
0,742220053756261
0,723061184218584
0,712662163912955
0,710500301408093
0,721717481890292
0,712436282155179
0,716661879264566
0,702114212306258
0,689543634052132
0,718035318302476
0,71994392678757
0,693845283318705
0,686706775006923
0,689009609530609
0,687391354697254
0,667038757106919
0,681365620777504
0,67326208517502
0,678190141027901
0,674826822419833
0,673698901563325
0,65559833677005
0,657666126997272
0,631105519554132
0,659449994795467
0,6403458355373
0,647430698733872
0,652296971803602
0,65138891868996
0,631846545975776
0,633754102039919
0,62515408579867
0,628596167154701
0,613155017976241
0,61416272257151
0,611876511665976
0,625692423518745
0,612248447104985
0,615432859803222
0,600932461868562
0,606252889707349
0,596053114083767
0,599869905424982
0,589209637462075
0,597100948380954
0,586463123567556
0,583803035490274
0,578788655686532
0,591660526663245
0,579603131301591
0,586085753315106
0,569861698066691
0,573920904209132
0,57379001315062
0,566725272529158
0,556325581059843
0,556766233556045
0,547470426285837
0,551787495129172
0,546863149202652
0,548949464724221
0,541928593789821
0,546447710847149
0,540735399628318
0,548240178996152
0,538512599254285
0,524775002824618
0,527041725651399
0,531983806973311
0,531565960426974
0,531656511495501
0,513060975447908
0,518207193721929
0,516483120992289
0,515664077394712
0,507877631318771
0,505908434653578
0,507391361406071
0,507430980504979
0,497960493556712
0,504604845135428
0,497866107537168
0,497931629133352
0,491553572690406
0,492872920737841
0,487761935036866
0,474383276450194
0,475941794229682
0,478750030069379
0,475963347100541
0,475694460253566
0,461953289262725
0,461592865348384
0,468796066803128
0,46996548643147
0,466339382022802
0,466693359022249
0,465026806887645
0,463024188053896
0,45499929292603
0,457091394759051
0,444218217739927
0,447217094249581
0,446315717248129
0,443501157142297
0,447077779460816
0,441246967343996
0,435952709835054
0,437593645476773
0,437697236023607
0,436470305546947
0,42530323933333
0,429471077532436
0,426203473165899
0,430769406624519
0,427153607606889
0,420631732251111
0,415276934311846
0,418758715575978
0,414919696540475
0,41574110043668
0,414608849258567
0,409648115772071
0,412817441575988
0,416203744339547
0,406382068378513
0,405247014952439
0,396302738459096
0,401201256572297
0,396805250612779
0,403221374877617
0,404845992077589
0,398647695814494
0,399537328867447
0,40446363700576
0,397757911441559
0,399046507342914
0,398432694198132
0,39715247603047
0,3902762102027
0,39262344231313
0,38818887659187
0,391145953289405
0,39500191165585
0,391137221092108
0,387479451410999
0,388781777400448
0,388627475881171
0,396503469272811
0,392603215315342
0,391240987039711
0,392741610157274
0,391753736994087
0,392602666023947
0,398064434304244
0,405943539395368
0,402816131872446
0,394145790047066
0,397253332094736
0,398450417514282
0,408997973101824
0,407441552413382
0,405562703001287
0,410889690298943
0,401970125092579
0,406818460796539
0,417475937526875
0,409468778071755
0,411735796544184
0,416524961758003
0,415966202804836
0,41411984482257
0,417239141470931
0,417132404283639
0,418191220741222
0,421092426848978
0,424041422282831
0,419282894735452
0,423136092704628
0,427027148345685
0,426870343622489
0,430063209587323
0,437652181136854
0,431543252620225
0,436248802669439
0,436839564006534
0,441757175996103
0,453899346430748
0,45387925933803
0,449731772043904
0,455558888055901
0,456625144963941
0,465207739212235
0,458073204556492
0,457359065655566
0,467998449052167
0,471910279439321
0,473874742845836
0,479143194985754
0,474049265269119
0,483308950338231
0,485631486477006
0,478457563497268
0,486164695599339
0,486143519023632
0,481284552793671
0,486322264284005
0,492351596491603
0,482475282044046
0,481853267608079
0,4882563157056
0,493805651209085
0,494633585601332
0,485391815108257
0,486789529877575
0,493615420763641
0,497717870822343
0,489966716412706
0,491550849054702
0,486985279710798
0,480338727717393
0,480378762808774
0,478899106958131
0,489393732673979
0,487183402049819
0,486954748992747
0,485308537274178
0,486658990772842
0,486565018429369
0,494061714876703
0,490197540915221
0,486044911015546
0,493638387094227
0,483536778209172
0,477500701324535
0,478670752893633
0,479219215830812
0,48465248646795
0,482285369091837
0,481407439442965
0,490919933598745
0,487118789194254
0,492741628015177
0,490730057761015
0,486466637973932
0,487850022291321
0,497489979831552
0,492381928376278
0,489683743487062
0,491595650896896
0,481958178849491
0,485433067011571
0,492544100081369
0,490895572778812
0,487885081204189
0,488548353036925
0,485774587327468
0,491323347935574
0,486175531455346
0,48262207107242
0,485660756860059
0,482642633352633
0,48313747532163
0,483458841090777
0,477520700318788
0,479850824570174
0,481668700914524
0,469426612241665
0,46841140584966
0,471585851112677
0,466164447730628
0,461867955615781
0,466542068589462
0,465483607568348
0,457658875660588
0,467810544051756
0,458040179951465
0,447606908589353
0,450191451682402
0,452677493842746
0,444881869153753
0,437341558498472
0,441465203864618
0,441715950328535
0,435492235381025
0,430578715352745
0,42413607965328
0,424150376182412
0,418944116845
0,41397128334851
0,418556574941225
0,417774215210274
0,411539851683191
0,404628480427509
0,400838295678224
0,399913787800441
0,397030096304451
0,396958970907904
0,388649265794172
0,382219904263609
0,386591145499483
0,394473725106715
0,379650047078581
0,377586596093229
0,38030261395985
0,375075433352927
0,377640941370141
0,377999380335208
0,373515955806715
0,366804048096623
0,362723517762491
0,365319587505719
0,364416584351328
0,372950393519441
0,367703499763081
0,357385866401954
0,353979675707573
0,354811592470946
0,353571111216142
0,35473594891814
0,351719097971023
0,349180862645449
0,339731273747585
0,34306721409643
0,344980994927112
0,343971212100151
0,345787296315592
0,345184891918579
0,339997152900805
0,341112960330491
0,338299010210443
0,334417242889167
0,331507303760087
0,334773364985409
0,332736264681391
0,329104048609344
0,325683643521733
0,329097003760227
0,326006627197786
0,320389310311167
0,32130522505902
0,321038961788953
0,320782818891685
0,319926581975202
0,314978695338346
0,31470696739223
0,311802513274441
0,314334025177261
0,309314151872876
0,307696102665597
0,306721517540392
0,308986192734336
0,309281372758695
0,307246552833079
0,302188339590777
0,305706002408508
0,306873266791652
0,305482924445747
0,298225362788867
0,299452178969471
0,294469734314751
0,294319602569964
0,298908575112475
0,301588610181262
0,295849034017094
0,296882020362354
0,300292807312529
0,296095219674008
0,290716254996354
0,291870845370619
0,291410282866958
0,290111185598943
0,288138388042395
0,296015729985784
0,288099440928552
0,285607196442946
0,286055976772382
0,290728918289853
0,286654715698929
0,288383894596048
0,283472636733381
0,280691196939913
0,2786035616027
0,279286776767392
0,27729173434
0,280308588203491
0,276718012018094
0,27580403278546
0,277502690399337
0,27962363561086
0,273403391962833
0,266967121485717
0,266906688018461
0,27631860174799
0,273726339770493
0,270531897247303
0,267932901960619
0,271575000951271
0,267169633204839
0,267529403723805
0,264618263342752
0,269475155218595
0,27001701044502
0,269647986162874
0,26439189952452
0,265024677460552
0,266111418385465
0,266082133937481
0,264098997640123
0,259552781157815
0,25910791439772
0,2628565621331
0,264236514969488
0,264026710757751
0,255800675892021
0,26136751919213
0,260931838724968
0,259539338712943
0,259784258458819
0,263126539673397
0,255578761115099
0,259463213650229
0,257703100826537
0,255113560618816
0,257259901692125
0,259733823970299
0,257308295170974
0,256039124144194
0,255332970528977
0,259146340299908
0,256869796049517
0,258109905014111
0,253262043130743
0,251927735158039
0,250457810903724
0,251659973230622
0,248445668278578
0,248807970324295
0,246830351898211
0,252575609024802
0,248048318255939
0,248325147475545
0,24607849497251
0,248732747456785
0,244865224825737
0,246537167624674
0,246921867461661
0,248900669780627
0,244664033252176
0,24063207244064
0,238922846597984
0,244156713475015
0,241586924241829
0,240467684793722
0,241166122850594
0,242283344648028
0,238449617718059
0,239441537140973
0,233088790212992
0,238848176329287
0,235068232022826
0,237758653027944
0,238947578651083
0,236623847431327
0,233487518813264
0,234888702364759
0,229849277505125
0,233385253941724
0,232082030378745
0,229688020594141
0,227514687042424
0,230276027848007
0,228233600928462
0,230103857295179
0,227220557473569
0,229036301208062
0,224909094043366
0,226427403429545
0,224114825966117
0,225103867285164
0,222690637746325
0,219853111482969
0,217414612367057
0,226549546812717
0,222463149423961
0,219046807107735
0,222375670087518
0,220744381648728
0,213616347276799
0,217456322877301
0,213688079164651
0,214014854237239
0,21191079974548
0,212007565262736
0,209450701553277
0,213548394185853
0,211279244911883
0,214156013912516
0,207774428380021
0,208452693941855
0,206362676885097
0,209523971851011
0,206018938642752
0,204681627326941
0,204570374577736
0,20384250030324
0,199301906763102
0,201606196937921
0,198621245735166
0,20056469071076
0,197721534568618
0,199102467673474
0,194510859378012
0,196038003970316
0,191711974020934
0,19511654533321
0,190309639970201
0,192700071368564
0,190685436425025
0,193218662259283
0,18963659868086
0,191785956662784
0,189725422940683
0,192940508844839
0,186667167918109
0,186906220990126
0,185101374597155
0,186075548399023
0,179821581948121
0,182208121857649
0,180505629804999
0,186542258831946
0,180017453335428
0,179689335355503
0,181274367841859
0,180244473812377
0,175303881967479
0,178792402401734
0,176433732234503
0,175357064164055
0,174979047897448
0,178142706438287
0,174813123289829
0,175537846619782
0,171998733949726
0,175770628671804
0,170382155911164
0,168084796362039
0,170614882181626
0,171924192573285
0,169242616428067
0,173662966942289
0,166815432451267
0,1679923048022
0,166288872913613
0,168537749459049
0,165979492931181
0,167335621975327
0,166411604619033
0,167001548137188
0,161942704490866
0,165616911394204
0,160750593084357
0,1596721647029
0,158011279609379
0,163214986090854
0,16065005540558
0,164352031036846
0,16019312996442
0,163558963029857
0,158729856198664
0,160408811692076
0,15647678289493
0,156966794811462
0,157188993409775
0,157421064226314
0,156257552226346
0,15907519589697
0,154081772087731
0,154036029476615
0,150178590134282
0,152479342264865
0,152750948100519
0,153033617481823
0,148738789142008
0,151938421763011
0,150526448728253
0,154049922436782
0,153501148375771
0,155081689159442
0,147027050157681
0,151901127566111
0,150470769917859
0,149836132135257
0,147970929973997
0,150005823936819
0,143476967811991
0,148832346756213
0,1464999005857
0,145995024345104
0,143351404672206
0,14798060279009
0,144355999082781
0,143477045621554
0,144035984269159
0,145201241904688
0,141483243879631
0,148270411750339
0,140444440605627
0,142236561640888
0,141183383199547
0,142851171757556
0,140876537657137
0,145457753021398
0,137919752242728
0,140371645844121
0,139708300703531
0,145562142034583
0,14033386909031
0,142447047481091
0,140139036337788
0,143186142704968
0,138032962218958
0,141221837239598
0,134777174276884
0,136151944910654
0,137966330897713
0,13928494365609
0,138517252789686
0,141056050403891
0,133972944973586
0,137827133006164
0,135368620277962
0,13651652935956
0,133720296187944
0,136274119137671
0,13320118130162
0,135337258410569
0,134977269042911
0,136137069827331
0,132317062022365
0,136907268847708
0,131903713309516
0,133960962187448
0,129592542041142
0,133435726435425
0,129506973261121
0,127679856306735
0,125099531853496
0,134457230723689
0,128737778857318
0,131060156224171
0,126688093415757
0,129473958511948
0,126776549476166
0,130642484286061
0,126664396543427
0,13194976579642
0,126035646084168
0,126958937604017
0,128210486333825
0,1263465475674
0,126793109518809
0,131836387226175
0,12799397811225
0,12741897185751
0,122633073999984
0,12757616792896
0,124808023528541
0,127885232515363
0,123090902314273
0,125049055415816
0,122070632555727
0,127049533379763
0,12235653905136
0,126909554084786
0,122269027013966
0,127233611762613
0,121783665656898
0,121264536516128
0,121009981559024
0,124657936444702
0,120968673020083
0,124067486407871
0,120183744258862
0,120010062956261
0,11727792254398
0,119942364840852
0,116208106185096
0,118703245846637
0,117502705997035
0,116922995978183
0,116770406995533
0,12035526856195
0,11412357930932
0,118485112731408
0,114488203854744
0,114656283715942
0,113668903686948
0,115198679017811
0,111071245314965
0,11632733034183
0,108434991569309
0,111951555830447
0,110398826880566
0,11151440033302
0,107733816542805
0,114025954917291
0,109775560731133
0,108123802429984
0,105748948916171
0,111210345042131
0,106564029335033
0,10761932066924
0,103622860188678
0,10880621416826
0,10891814505224
0,107352375352972
0,102578303265314
0,10872811527114
0,10660172081722
0,106281691403325
0,101543574816601
0,104857592172089
0,102030064114043
0,104725688134087
0,101087512343638
0,105023670796235
0,102501956902637
0,10471785222788
0,101317208657628
0,103012364179101
0,10072745354961
0,103224145382639
0,096743841210023
0,100141638546785
0,101480567268536
0,102286866606391
0,0979313444779323
0,102829778115032
0,0952224251313471
0,097280872579175
0,0969649859293892
0,0992183155607324
0,0960277128102352
0,0972150680753237
0,0952492774217824
0,0982957563385945
0,0955362315843232
0,0963170222449361
0,0949550050991169
0,0971248094814579
0,0939325916731421
0,096272944536242
0,0933316487169459
0,0965797468038747
0,0911460268171928
0,0921943668100823
0,0918133108579526
0,0947388909268618
0,0887025269986822
0,0909018182489436
0,0891067770220398
0,0913459217812044
0,0859056868892391
0,0938500830437052
0,087592483627767
0,0901974866339608
0,0890997865008929
0,090874239199591
0,0882230389629292
0,0920350296578407
0,0866909903322241
0,0909720774101041
0,0852960763166894
0,090837999577261
0,0861021870718061
0,0905107779387054
0,0846913188914643
0,0894000380917474
0,0839309980843756
0,088100781579466
0,0866209588315986
0,0885033663994411
0,0840665980293831
0,0877951590756819
0,0824045385108065
0,0877201989471433
0,0851520385455158
0,0864748528778035
0,0833393119298091
0,0870184269643771
0,0808494103126364
0,0878456050949081
0,0821522830894624
0,086361970897654
0,0836811821663313
0,0871832550942118
0,086320265651215
0,0902085937969214
0,0846031117299341
0,0901850800544972
0,0877376199229793
0,0927666531266798
0,0852838778156243
0,0924958769207305
0,0850777509589478
0,0928781710581841
0,0908974534646535
0,0975849662293577
0,0893240152208748
0,087761826749511
0,0808764643134984
0,0875720493126877
0,0859280890385565
0,092679927593822
0,0803565557835657
0,0881288602219285
0,088403484583896
0,0870960926454491
0,0826809473297702
0,0938515349581082
0,0858461703708296
0,0965255290274246
0,0797587520432222
0,0966631445609534
0,0796476039790831
0,0879957240923976
0,0827702679727036
0,0897310007367234
0,0845468979169262
0,0896910098710034
0,0756820437368753
0,0828797632981838
0,0785447402687291
0,0844853634557965
0,0790880357584851
0,0897602749416092
0,0760376063919556
0,0873813042105031
0,0787360606728602
0,0868720406275971
0,0717671744275263
0,0867106578035364
0,074012924450585
0,0945852888101355
0,0779716464082146
0,0964533129395573
0,0723147666687179
0,0927691127258444
0,0641691171392418
0,0903002359917216
0,0733888335911111
0,106021335867962
0,0706152048980898
0,0965530967559896
0,0625788074329699
0,104081852600028
0,0750131454278957
0,0976437218827852
0,0656035506210028
0,100628747401134
0,0782757937828738
0,0890085152843289
0,0741540144061711
0,0939192878177776
0,0805619445800158
0,0759363633039789
0,0825954610517764
0,0764547600329376
0,0877802769346078
0,0768758000625988
0,0896762050185081
0,0753969508268599
0,086570992646124
0,080468769799393
0,0806825345282423
0,0795432253495143
0,0758003186569665
0,0825246254717802
0,0779879172067801
0,0830043935113276
0,0759406043957214
0,0815716723579861
0,0789587061303986
0,0803854593632726
0,0789378523103931
0,0762198523850867
0,0788456486483321
0,0768823866770646
0,0766531692252303
0,0777214677513199
0,0733813520867787
0,07706875373581
0,0750080393120411
0,0777059234771038
0,075037251113789
0,0802159014861102
0,0751485440245166
0,0765247607231362
0,0752472359567359
0,0775224809810407
0,0757385682801507
0,0798228016208115
0,0775554560573431
0,0783457179540354
0,0774511923803989
0,0792400195912481
0,0764162784114528
0,0755565014197177
0,0767917172994121
0,0766757042064897
0,0772104612092685
0,0773990855262777
0,0752927801665974
0,0781219208439875
0,0755574437804554
0,0770805859819293
0,0757121858367028
0,0786481785944637
0,0773085864824746
0,0784897118094394
0,0760116009411536
0,0782281209983754
0,075710168367126
0,0774160143980204
0,0771376907248758
0,0784693507839316
0,0754160999507852
0,0788149374933533
0,0790984273392055
0,0767126493383944
0,0776305345760752
0,0801633483461737
0,0747164839849766
0,0792701091108327
0,0791294345548293
0,0786962090723646
0,0770683011050761
0,0800130265048636
0,0769900188717217
0,0781826787554412
0,0777383264372223
0,0793688124449043
0,077116510519348
0,0794417236862238
0,078112276609242
0,0787908902442278
0,076057903505389
0,0794287598878261
0,0772195626466518
0,0787306438336708
0,0770470428993566
0,0796847121222186
0,0797702589797829
0,0781594911178481
0,0762931381412533
0,0776418138156374
0,0797427882644872
0,0803400789235611
0,0789834888136614
0,0816371250604886
0,0778204458107157
0,0804269435952668
0,0804182864304248
0,0795549119907551
0,0775167433579817
0,0809941062901409
0,0791755916676401
0,0837685552967941
0,0811779471234921
0,0810322939706529
0,0790149751073593
0,0843193174259406
0,079712441733684
0,0825080123156264
0,0792130419650035
0,08371182306675
0,0803334004054186
0,0801929203128681
0,0802805239018276
0,0814282812021577
0,0819461855821266
0,0845232648767324
0,0813598327939074
0,0835715312388097
0,0818360195258015
0,0826104675144982
0,0815201133829747
0,0846682618533195
0,0803172818053215
0,0846887861661017
0,0841448434925798
0,0843486709159896
0,0842621270414421
0,0857798771174998
0,0810140597927133
0,0860860137687882
0,0841815336784882
0,0853725325892536
0,0839144736327665
0,0863033943979498
0,0833696262484422
0,0839729765529001
0,0825200523218407
0,0819398500098791
0,0816422031741254
0,0869680333465477
0,0856647471934567
0,0854995863441844
0,0824272751556114
0,0862649431010173
0,0833791530381593
0,086801781537234
0,0836797659318765
0,0869030159373494
0,0855054159737247
0,084567391211896
0,0835869827971226
0,0874851697308635
0,0848675894811096
0,0873925665639922
0,0841224859532799
0,0868734089496864
0,0852119665316644
0,0879160892710796
0,0863681263166655
0,0898853604531374
0,0865900748751948
0,0918352930070926
0,086421146675463
0,0890061097749238
0,0856768985369549
0,0892912912544357
0,0865339362726613
0,0906513585675027
0,0880216526966718
0,0917345224560905
0,0883836561685661
0,0890355142315371
0,0876368971856639
0,0886890100129353
0,0872930616448098
0,0904533476385097
0,0870549321389213
0,0895429516254287
0,0852349197461403
0,0912754299104629
0,0895197803598595
0,0887730187993937
0,0891945319692917
0,0904728889249178
0,0863159049303046
0,0886105434919596
0,0849728841407152
0,0867447261975366
0,0852243843879736
0,0892359696706888
0,0862798270237862
0,0887836879239579
0,0880913086797531
0,0897082326114204
0,0880125554387337
0,0869577237386451
0,0864403354577074
0,0875756857530543
0,0848560907259805
0,0879924723254489
0,0860151078407891
0,0881119271540806
0,0837785376406573
0,0854771495074315
0,0852248823244076
0,0877086541358433
0,083570869705666
0,0853576094132869
0,0841697222982668
0,0863363156887318
0,0854540511533029
0,0841365489432258
0,0846752827399388
0,0859148152479528
0,0817552306633261
0,0864353714387805
0,0848012766294001
0,0863587088824862
0,0843135980513456
0,0865435097767846
0,0824164259208488
0,0859424039648433
0,0834699596515591
0,086472306187318
0,0840254232119322
0,087159571913555
0,0837151498537208
0,0850237382785764
0,0806218353258194
0,0854607474138701
0,0831486400132588
0,0856319717107729
0,0811051777814791
0,0867470700080826
0,0812768442740028
0,0852308527113454
0,082076426057921
0,0851498249267248
0,0816695944997129
0,0826292221094192
0,0809999810291942
0,0849632346209599
0,0806777675165418
0,0837117337755347
0,078078089055962
0,0852975666878463
0,0790599426059595
0,0836436776674153
0,0795936945265749
0,0846405121963365
0,0791575133498376
0,0856351171896455
0,0833141779956023
0,0829344490498554
0,0818549765721638
0,0834675654189354
0,0822510747668738
0,0818404115079344
0,0796703174363683
0,0852205231560504
0,0796839963076568
0,0831762275003858
0,0797908706107757
0,0797742218121755
0,0812566755661521
0,082364993803938
0,0799331173664011
0,0820011873528214
0,0817710857977992
0,0849665933646996
0,0781932002750355
0,0826240234948888
0,0793424800168642
0,0815460323801515
0,0779949658678271
0,080724932857777
0,0771945729044242
0,0805620299161889
0,080377375386689
0,0820191285166146
0,077928183902376
0,0820087169096708
0,0778400745409969
0,0805063439825288
0,077999827001428
0,0806239499788566
0,0781670626943548
0,0813034507056738
0,0785489509980536
0,0794012212665222
0,0762314384978911
0,080635204392993
0,0763051739922486
0,0796082096389895
0,0770037853320323
0,0776596135451024
0,0755772195884573
0,0771489672211799
0,0764303478298714
0,0771340826704187
0,0748717679634317
0,0785775830379975
0,0772890008970935
0,0777444076503054
0,075823672704958
0,0773036552915261
0,0730610232508345
0,074350788345791
0,0749752388093508
0,0766393643716752
0,0712316951307407
0,0743028229483025
0,0733161219301937
0,075952226366716
0,0709941262862761
0,0730761365242098
0,071324168371956
0,0743084696404264
0,0741109712729842
0,0724401282366546
0,077553354727227
0,0743580289366067
0,0709759066415911
0,0689466301458758
0,0695856942973407
0,0719777129657305
0,0694733970866449
0,0703130627694415
0,0697819434222406
0,0729587301259235
0,0685262545274401
0,070806296197157
0,0675569069747134
0,0697768613295341
0,0693997882934246
0,068019168799645
0,0671296512418911
0,0687360234238323
0,0685756687607804
0,0700992348575346
0,066128346065172
0,0690028321258383
0,067508697473719
0,0681669422279731
0,0665764541307777
0,0666052362809352
0,06562758112724
0,0757574290875368
0,0665423713161846
0,0691000271968237
0,0665677813797396
0,0721809301829891
0,0621509284607747
0,0681810441099836
0,0635140625109031
0,0697227102929503
0,0626684442468677
0,0664760927006859
0,0665481381437446
0,0684530792064162
0,0644552530004724
0,0689015887510255
0,0651092788788795
0,0660059136450402
0,0645396268408832
0,0674798658480217
0,0629369071549515
0,065775361050096
0,0628743518999654
0,0647130033924424
0,0628283472673575
0,066400412117494
0,0611175543178214
0,0712773454529236
0,063714171097175
0,068229087830799
0,0611830325933184
0,0642984183856058
0,0607036233077455
0,0620462367466305
0,0630067361903147
0,0636505631314435
0,0587427150252818
0,0650688901207462
0,0637598536226301
0,0626713090835429
0,0620232426970346
0,0648835583274359
0,058105250435415
0,0662755850351598
0,0587111183346003
0,0615852234603326
0,0567152219094601
0,0598277328663325
0,0576577148530785
0,0634695817375094
0,0602272623516819
0,0679684264417007
0,0582891794536005
0,0612007276308372
0,0767716884240837
0,0605116701753307
0,0612141892415459
0,0604877637330685
0,0607769153940925
0,060981201848287
0,0594250830383683
0,0630663865354558
0,0596009482014708
0,0605867881972518
0,0617684368703055
0,0591999919057094
0,0585182512516921
0,0602207901898122
0,0579644067772569
0,0614898503850885
0,0592687089741187
0,0596357836763978
0,0612746555100332
0,0600424917103696
0,0635238896763772
0,0710412240042216
0,0622804987084675
0,0628637769064124
0,0647735396461847
0,0508346156552059
0,0742223080191303
0,0657140567464998
0,0589037663464315
0,0590407860776527
0,0583782371186018
0,0615925177207743
0,0568374257313097
0,0614717704158856
0,0582407832659889
0,0676923443454019
0,0572756658314473
0,0661236933501746
0,0555236381124742
0,0619211533392207
0,054938997297397
0,0624226916679513
0,0559694288472169
0,0619023672293923
0,0561612925414145
0,0594490710410542
0,0597196915297216
0,0582819885092145
0,0599249452060646
0,0580135469591567
0,0579578284793389
0,0664829830585029
0,0557235203588811
0,0603820218993489
0,0573097737675094
0,0593537223892703
0,0556671858431886
0,0814256040413652
0,0539073607022958
0,0656994180379211
0,0543016620285477
0,0602412282438003
0,0568294815884948
0,0602738494708878
0,0551310850366995
0,0600423397093222
0,0573861151739453
0,061109161723608
0,0551380221348308
0,0602833772079453
0,0575856387687566
0,0593107525062026
0,0543203532204419
0,0602667875899602
0,0576915092601276
0,0586154806326639
0,0616642949123823
0,0561303155030738
0,0624184922022008
0,0791525023953624
0,0618222869778964
0,0715764550874678
0,0625904830528692
0,062010960164533
0,0551363566308801
0,0620176961004942
0,0547701373012756
0,0668944439482021
0,0541687444463257
0,062277160833122
0,0537659896869637
0,0641422469846793
0,0527621039934386
0,0640471974406728
0,0545004538662471
0,0668888887933668
0,0527993253831136
0,066298179552012
0,0511428878969751
0,068739932117562
0,0495187021346053
0,072696976556707
0,0558310988975274
0,0738055460778697
0,0439844922296181
0,0891411357621114
0,0810986255975312
0,0603861404577884
0,0703120372955559
0,0557727573494967
0,063614413893034
0,0590019064522374
0,0595047673824649
0,065293526733332
0,0610536783211093
0,0590640018926302
0,0616598249467098
0,0632893534005266
0,0640017202029996
0,0572358893241551
0,0548278911676485
0,0909533629468853
0,0630974294682076
0,0658733480645703
0,0607369638657977
0,0587167981140644
0,0829079091314301
0,0632148876079023
0,067341564421046
0,0648838832508886
0,059395486821005
0,0623919880118655
0,0618003514057535
0,0629048703248828
0,063867459788018
0,0689699700723709
0,061250812773997
0,0696046337968432
0,0554116706912497
0,0694335039137122
0,0607233177937999
0,0733416344026311
0,0755889918890622
0,0623982893546533
0,068936981114953
0,0671112082891934
0,0631351581145189
0,0683639921874479
0,0638947954979027
0,0651338184588023
0,0678506015301636
0,0814760029166733
0,05989399249
0,0802313121007428
0,0749319597110506
0,0629260129461154
0,0735021341291949
0,071720165126025
0,0763237010588044
0,0654958726055299
0,0622376000898286
0,10560753767863
0,0601931541165837
0,0991580268848005
0,0607114310473844
0,0829701716843326
0,0592848927980231
0,0812305069610422
0,0511152600661066
0,0908233961162698
0,0630044627852365
0,0803443073931815
0,0621570844114427
0,0820158047221115
0,078504084068844
0,0730387097144575
0,0733079761768431
0,0732600816219991
0,0678029296786763
0,0805195258508421
0,0780382616420151
0,0588151281073819
0,0975115970796068
0,0977792566262982
0,0924291298065332
0,0855731877239327
0,0591969141876636
0,120302169128184
0,0723821314082741
0,0841089220421966
0,0705522334960752
0,0807702143148788
0,0755290186458716
0,0692503405552304
0,101130302509899
0,0901635078819478
0,0727486442661862
0,0926112912129115
0,0632627298158869
0,100264374700354
0,0839458189269324
0,0843016940323494
0,0741521047154257
0,0924698116699138
0,0653868179557031
0,126247681572258
0,0990551189297328
0,0864466634449304
0,115042397842032
0,0913862065037035
0,10268464740053
0,0918297110743646
0,091619495680976
0,0914867371129443
0,111602328549576
0,0972617897312234
0,0880274488633676
0,0959695802822957
0,127744244794486
0,0825215113029912
0,109229902546709
0,0945568839663034
0,0946664321984375
0,122533959266569
0,152303251722931
0,124800662395153
0,111215095045945
0,0986716007660654
0,136381278671464
0,108771058203157
0,106887713014451
0,109384436104203
0,108596153536127
0,115783810575197
0,10780377663613
0,12724542971822
0,112610073035246
0,118456322210829
0,122647291783417
0,108917698274975
0,131556988382896
0,147971059678076
0,178060818621942
0,1129192056389
0,180145263474339
0,145784140329786
0,137645026183707
0,13297062193801
0,127435167177629
0,148753727251328
0,135914661979456
0,141836617146891
0,131985930192557
0,163902739003607
0,163758508795616
0,139132000564618
0,178923007615665
0,140236565613358
0,170924716054825
0,0991595710976104
0,378802040722626
0,178265364743232
0,185651945708793
0,180465212037381
0,155161020467959
0,265243887494696
0,187652093866495
0,194885101466359
0,201238509192311
0,194095494305156
0,205995955959386
0,219521428348669
0,217932238180031
0,239935778780956
0,233711069413355
0,223543759654594
0,237554289043184
0,325419564682751
0,292984344084171
0,289241257212432
0,25236856102314
0,283701621672624
0,287581240936629
0,281519560764127
0,290195091441228
0,300786170215395
0,26551206761325
0,390185735622507
0,299450045508235
0,337062244385754
0,304115636159923
0,386023340112405
0,305381005646412
0,396348160317026
0,386263696293688
0,369896976543177
0,372324953636722
0,364718382618448
0,390642628982248
0,362191587601538
0,438341032572319
0,41536000373613
0,398275251505667
0,414643994606997
0,403870700262082
0,431350734768905
0,415694498795023
0,438775611599492
0,410038707691383
0,491104354614777
0,43104212309047
0,663317040826333
0,494906648688931
0,439265521855529
0,468369622370347
0,440187178768103
0,506606351677608
0,459263838795021
0,486864487701266
0,502573106448785
0,454132325919814
0,469659926619477
0,454368987068952
0,478653055537811
0,458116413803784
0,494329885691477
0,451303479593381
0,500016000556246
0,461859708258637
0,455321803744358
0,581278213457558
0,470802155469336
0,479655914109896
0,470538940380459
0,464112594808282
0,456108340326621
0,4647698630696
0,444600959303314
0,492550126203947
0,44201931336075
0,462013142522287
0,426992463568796
0,455170943942825
0,476699795558997
0,427339966911465
0,434541706502452
0,411473194515224
0,428699370871199
0,407186468966212
0,394522578204926
0,498420573504054
0,404591739451568
0,405375113708561
0,399264067523933
0,399638199038937
0,399338168468246
0,39537175353472
0,383008355505785
0,402364654842413
0,376980866320987
0,395590417826239
0,372401475801589
0,382658994378717
0,367767637721581
0,370783023807798
0,374510160196031
0,363582762145942
0,368164910825165
0,363173953230876
0,365896207775898
0,36389024343876
0,364334852406385
0,362982179890945
0,368924090584924
0,367576464175981
0,354830608649986
0,363739909430744
0,357958712958974
0,358389452955346
0,362952652533527
0,362323020446507
0,358640524282478
0,3559510499543
0,358805582965457
0,356467329455805
0,361187567129441
0,353013215655409
0,359504385063111
0,348950701339995
0,360867928790496
0,335259731011278
0,362585057502155
0,32307860672079
0,39715336217888
0,385865582032488
0,332287490378853
0,351458101427907
0,328129459392969
0,350799088720569
0,317080110937419
0,380788387806187
0,368145395697602
0,330154104438916
0,336776479075035
0,326978534888213
0,329902619317278
0,344676552102673
0,305656243693609
0,342417741027025
0,299571747703866
0,337650802328459
0,408869823603277
0,301945801743858
0,416821284257119
0,31990610344658
0,322624813307425
0,294625154532183
0,371504756870499
0,293706875009495
0,320355714936695
0,292809359615511
0,345791113815554
0,319583072855547
0,295326555289849
0,30265491506049
0,286389065760042
0,307443331784818
0,327293306773553
0,290151533626598
0,282820437458094
0,344861396399057
0,295254870249891
0,326676375670015
0,347883355235931
0,314379848827002
0,273167417753247
0,271919902413185
0,27923563219078
0,252493267510539
0,344808090588458
0,270881675439978
0,277103100615546
0,269711668667029
0,249054703727227
0,267598955442512
0,263873090896656
0,281035019308478
0,236162122605032
0,310887634207315
0,236363097313388
0,258539600738117
0,263148583311122
0,269555909499257
0,297388654879344
0,254895045374102
0,242929432313048
0,250991794982539
0,294393114138176
0,238847816218359
0,263771924246364
0,229580066186165
0,220964747131914
0,258994383925132
0,230868993928365
0,238225391997773
0,255962614747592
0,223006368195413
0,286932812279872
0,273676392198897
0,275000732383439
0,241841087714928
0,217331771234762
0,224364695624386
0,220507253972381
0,227968350598042
0,21414020375412
0,229309288508685
0,251441088882366
0,187790044909773
0,288410948973618
0,22741827928567
0,222282125620072
0,227079571304198
0,227995531311089
0,22871368439961
0,251787505456081
0,264898784701953
0,25646445544033
0,230411711616707
0,276910116957644
0,228850772625474
0,255168882978806
0,238094760410974
0,260922638333836
0,246312984633345
0,275679993129719
0,262043604430566
0,264735213901409
0,265662188462558
0,282227761920457
0,267140628521876
0,341483721023681
0,265798595385625
0,336821952670342
0,302995618498701
0,3641367819039
0,336166188161679
0,315046149324346
0,330451237363547
0,326605443267959
0,33755258861613
0,344509642131131
0,326530189038125
0,395115825113848
0,340764449841384
0,369403662621786
0,347425605230812
0,370488272919857
0,353335643837062
0,402480327705246
0,380857214980547
0,40284095585522
0,446386575124653
0,38470302672405
0,399946243959153
0,373874177626914
0,396412526542533
0,396703903515
0,388998578676721
0,396589662432447
0,380485453668793
0,421984437307362
0,397520810214454
0,396355024979277
0,401536221691471
0,403716415338363
0,406696416131689
0,406631882167965
0,406873273638524
0,416994707992089
0,411102001854282
0,432959666958054
0,388250108247066
0,489326089070092
0,444808665603143
0,424643224773286
0,442721447030322
0,438787745682474
0,446703584605895
0,436428424770086
0,454097311414441
0,462059424601015
0,445159835196422
0,463699192511324
0,450070829111317
0,467460316100428
0,452446757520586
0,499980290085051
0,459031267558512
0,477781263770271
0,468156172224493
0,465827810769974
0,543999992157703
0,468301092238
0,506953150765104
0,472681614558206
0,485713337129637
0,481472238671296
0,488278626021786
0,485721993729602
0,494987795729773
0,485606468762954
0,500843408526922
0,497295314547589
0,486455410357835
0,498376306976273
0,484384025405725
0,518060220899892
0,49585189328547
0,492417845734739
0,483124358527081
0,487778114858911
0,485479150614909
0,503998211125217
0,51288865847622
0,483242691016925
0,496440312737411
0,48447241503823
0,500381720844657
0,506029399344248
0,487104335662523
0,485995611902057
0,489754532608315
0,484397931916541
0,494796818703382
0,484844036266977
0,52229110071489
0,495693091570768
0,503336344165159
0,492210872895773
0,510512671883764
0,500984974125545
0,509571325076968
0,499015287022
0,515076785104978
0,5098711617044
0,516855946098924
0,520221096070181
0,521041995532718
0,525674445309386
0,524504642593308
0,530952911376802
0,520335459605833
0,5177982191157
0,520657957177135
0,499717031885217
0,519309585069265
0,505855052066784
0,509994977138635
0,495162427017279
0,505253747723653
0,481675188602214
0,524786396524628
0,487776542050216
0,487665610150299
0,486484979975647
0,46714678215364
0,477938123701118
0,462614778089478
0,47033358974574
0,461032481396306
0,466200825573983
0,458348796096615
0,457752305853243
0,455058695356141
0,454542483209468
0,452386874748664
0,454268829030275
0,452707556718126
0,452821105872324
0,447258726240909
0,443667685467227
0,451897357563656
0,442924532088838
0,44853088631046
0,442320358491774
0,450788271560401
0,465996014440956
0,458525055020095
0,456437461827315
0,437604176576418
0,4536123300889
0,43726082198811
0,447572124503664
0,434700557175863
0,443943730921703
0,44082026776936
0,444936140160375
0,437892793351486
0,443221130524885
0,439892791275364
0,444866912536872
0,439045822693643
0,443469072628592
0,436135910197367
0,442896086207788
0,436201246033752
0,43663592008981
0,44127469310947
0,446257879828606
0,446466760224242
0,437569664870545
0,442145833215
0,437229337644576
0,441547810380824
0,44335454449668
0,443283845406745
0,441856846422542
0,438626516724784
0,437328507364379
0,434470788328575
0,438452868422699
0,437582376098921
0,437315163875788
0,434342724149985
0,436001872934883
0,429336141221112
0,431900999590922
0,424436927995196
0,422633559479352
0,420284251068949
0,416256395459261
0,416062716159952
0,412394485009326
0,406884915264583
0,403011108822646
0,400659196648831
0,398480279016255
0,398629061421274
0,398349863015359
0,393247316116283
0,389521740596759
0,389557060326039
0,389502194944982
0,387275149737458
0,387598826476042
0,386691109612868
0,384761893426638
0,383324172281206
0,382648259522057
0,38238961849369
0,381090919029226
0,380291855736924
0,378433282211723
0,38242621287633
0,385236409495049
0,384510846803704
0,383258573812527
0,386161200328137
0,385382420794171
0,389608697016882
0,388388836244949
0,394332094201743
0,395107035238485
0,394978731127246
0,397271394039592
0,397030379454086
0,401003771125141
0,399949198567055
0,399583718971255
0,402117222463417
0,404735439091294
0,402128616151296
0,404617956679364
0,405078054023344
0,406224420853321
0,406726721657756
0,403488378835374
0,402494128321779
0,407301548151136
0,403359888623164
0,404690062818164
0,401269585164258
0,399829496630773
0,400336900850526
0,398556979966139
0,398560071342572
0,395747870273898
0,393021940914312
0,394619246555219
0,390421499955959
0,392032044852293
0,387929547162335
0,385329216740727
0,385373953301095
0,382927089979063
0,381208777728027
0,382192944315043
0,380637541128041
0,379818646593356
0,379953833561397
0,378328846310327
0,375513139713039
0,375388781679981
0,374869881538887
0,373673370599076
0,371517574494373
0,369299275265376
0,371231796116825
0,37230454696633
0,368437191808106
0,365353273282458
0,364533197927959
0,365751797732718
0,360887344789375
0,36058946043535
0,360474793934502
0,35643416572389
0,352806121416818
0,351773317814815
0,350687164481209
0,344970731469988
0,342656682276817
0,340537737002791
0,342317587980687
0,338493740661686
0,335031781681705
0,331772557122462
0,331305266482085
0,329163395229799
0,325161288560949
0,326392823634069
0,324071206879676
0,325863028052873
0,322228971703576
0,323032272164511
0,325609835231709
0,321743499596179
0,319428336242307
0,318833792097675
0,313078788392908
0,314714464262482
0,31064218752839
0,307308545351262
0,304533159471225
0,300398739751496
0,294623772689708
0,291295750722375
0,28780457716646
0,286365343724885
0,282916407194636
0,283720143439394
0,282083829621494
0,282484994964113
0,284066079004784
0,287246141627672
0,292278225326386
0,299578666061721
0,306055469723816
0,311195656744087
0,320462353261909
0,33061362351358
0,340978785980517
0,356816877668885
0,366906826509261
0,37933084925534
0,394686636754764
0,408973659163984
0,424295346808069
0,433653509502263
0,449786177937769
0,464999920312277
0,475157176157691
0,490452505897536
0,503241559078917
0,51670645824697
0,527070582280425
0,537645532972315
0,548830214278399
0,564097320974193
0,577170372365406
0,586389510331177
0,594011899778122
0,603462286926043
0,611719780683141
0,616599274341812
0,625015804838341
0,627143694455435
0,630722728322264
0,633779745622304
0,638456115198221
0,64681049528008
0,64491355834354
0,639119581698287
0,643199698415548
0,641764453074099
0,638105725410176
0,641017022079964
0,646072943443535
0,6419911958096
0,643021651860485
0,646055513242215
0,651020353385545
0,649557148181362
0,656165491202959
0,660020733063267
0,664179064663904
0,666799880689608
0,674609830470507
0,682778797176261
0,683787848041606
0,684440459809478
0,697502223405354
0,707577396513263
0,712029361960345
0,721600775784123
0,72962124196525
0,740617017856084
0,746916333402834
0,759844236698324
0,771839456920889
0,784681946093407
0,792951763441127
0,802930591252068
0,810745282792754
0,809200904062638
0,828852666377538
0,826961186305381
0,81915582406766
0,812074671250061
0,823620920455097
0,832735877103301
0,817777718392096
0,810484762480672
0,814238036200078
0,811128606029408
0,801869699633369
0,810901348807214
0,801775151528387
0,804119338401798
0,816928978545041
0,82820353689932
0,831542424360993
0,843111284280489
0,846706113101036
0,855764951110784
0,879231666785645
0,893219272397225
0,921861420313602
0,927649968138627
0,936646703580108
0,945595749430456
0,972103946563416
0,980309573535431
0,976859923824341
0,993340963077079
1,01433885120241
1,03343544715633
1,03527601390187
1,05284846056795
1,07175459584517
1,08001693622885
1,11251224918624
1,12767779176635
1,1602577344433
1,17156827094908
1,18248488835502
1,20482619565346
1,22163894531853
1,23661859512059
1,26569883413866
1,29166994083264
1,28903278387016
1,26746712043257
1,30211767863531
1,34608902710023
1,33713402569198
1,34123123013131
1,35316588194456
1,35281513169234
1,34246292120228
1,34117711287472
1,39756223302853
1,38172264697228
1,36832871895755
1,3520491756333
1,33643449884796
1,30922430878446
1,33228613454594
1,31601715805596
1,33569160313716
1,34975822714894
1,31302117111443
1,31694366424417
1,32656515817555
1,34002399969313
1,38678059804801
1,37496152830533
1,38911104711921
1,39509766652487
1,40776921811272
1,42405929472365
1,42854126551412
1,45916582283852
1,49811062744936
1,48418390157798
1,48560307829594
1,50149288809934
1,48181893492817
1,46677047710396
1,52494343380616
1,56853322221172
1,54276280127205
1,54405340842603
1,54266225355414
1,53656033375829
1,5795382630074
1,61093622304602
1,61636962150814
1,63319395316807
1,63142319537539
1,54193947367166
1,56406316834092
1,61137516723975
1,64804949804359
1,61555325835613
1,57444179765365
1,58946675828067
1,62787093584266
1,61853454511726
1,6350756785798
1,61507283596998
1,61324394036509
1,62740881258029
1,6293228116259
1,5917629400924
1,56323910414831
1,57036563237133
1,51545951516465
1,47850723851318
1,4464979342084
1,40620164523053
1,42815382660445
1,34466289287038
1,26561863256312
1,2348570238571
1,22965750683195
1,16926374190494
1,1461768720518
1,13524547758817
1,10817402902932
1,12070616381919
1,09666984199045
1,06304353696349
1,07766411211654
1,07004975760285
1,0513445741888
1,04980433038479
1,04915324655268
1,03861484607563
1,01614017214204
0,994995869338572
1,00506145707101
0,988239692597433
0,975285649128203
0,957063287641809
0,943614845623109
0,928566908712877
0,89720709297489
0,869771338495338
0,861741797388574
0,833357965211594
0,808255933558165
0,785572673069212
0,750752189270243
0,719521043039197
0,687719585116655
0,657792646601913
0,633212824682547
0,604702043690565
0,582606467177774
0,553020866143801
0,530353434071731
0,51072123592884
0,492173122566609
0,47228975142542
0,458218832462321
0,446271498235399
0,435876138445578
0,417153792815372
0,407612342520869
0,403924234562424
0,394196586524948
0,388050616985575
0,381535850300965
0,378208214288276
0,372429921667152
0,376786621154334
0,371740333321796
0,370244663977976
0,369138501598521
0,36916006898263
0,371317709998854
0,368395910770689
0,374281005067393
0,377853963302421
0,381820840865609
0,379255749981539
0,377917300195358
0,376795612717706
0,37577185830984
0,379343049109808
0,377282833515607
0,377981075950564
0,375965162959435
0,372424218864277
0,367428683863434
0,362046312762108
0,361346769710578
0,360256560824894
0,359791608157246
0,357404524002198
0,351548670208245
0,352278633069307
0,355412509155027
0,35026292397292
0,356440144292202
0,357533189757374
0,361145735499789
0,357885007973371
0,360640514653591
0,363543916669903
0,363743661024498
0,36459668536611
0,372169228570148
0,376095080371823
0,376059240606129
0,380744636742416
0,38113119316054
0,38075234955013
0,383248437215251
0,386108628567839
0,387040047119116
0,383648831169253
0,387502822306877
0,384187583579222
0,381135076442704
0,396664730007295
0,393385613848233
0,389643648950108
0,393307590778277
0,400386307241987
0,401554426362369
0,401190304057891
0,411273379088125
0,415748379476333
0,422989551298938
0,434875148820591
0,44869878721255
0,453624601129734
0,47297903388029
0,48305012495323
0,498136705846285
0,499289736826542
0,505229913653391
0,514109590590819
0,521863759541848
0,517881936709702
0,524291243316818
0,529425382867092
0,515998499575581
0,502476738254264
0,497923045508098
0,490235948551457
0,48489993272714
0,466163371392731
0,475068736984254
0,472357996276549
0,465430512583678
0,474253307928359
0,472204019957883
0,471319113120614
0,472549268401668
0,475186339340555
0,481377810693114
0,475462992941326
0,47251659837417
0,477972856529057
0,469645842349512
0,465778169606802
0,468365019590785
0,459018176993893
0,460611191668842
0,456223074720265
0,447604190714988
0,444763421055912
0,44203222593489
0,445789045576
0,444589253200522
0,435123206002587
0,431674815095783
0,437355487034331
0,438848268813226
0,435910035303325
0,426626190100146
0,433582687915768
0,434757845523866
0,423584249614793
0,413276448844808
0,413393809283561
0,415127529097921
0,421475359632146
0,422496246350623
0,413091594660343
0,410097162035143
0,409060240699091
0,415497841837516
0,411376333610381
0,412078202261815
0,40544360176997
0,412740564690698
0,426181933416349
0,411753020394894
0,402553647091336
0,403179272360053
0,408051424155869
0,414997877323768
0,407510288560336
0,398591631307856
0,405273103425721
0,413565746071019
0,403380189909548
0,402201192468708
0,408469605722159
0,401149005275151
0,397947049308653
0,400543664973726
0,393804632218339
0,396522393313004
0,402057665316608
0,40737553890724
0,406716529903281
0,412858700127707
0,405448708222329
0,401044289001308
0,412918174495205
0,412983450594191
0,414417822248815
0,411912507165514
0,410564647859939
0,41711512245732
0,431219620846827
0,433104782382851
0,429415677027032
0,445882911940354
0,439570042374442
0,4361203503743
0,452400153137552
0,440240441069031
0,437886782997654
0,456668542040489
0,46211485281445
0,474096964651458
0,465732381933373
0,473489975613557
0,48082320918528
0,48379331197756
0,510672652163627
0,522357835330968
0,52396049492119
0,531792445536972
0,51938070991607
0,554489305837123
0,577052379616145
0,557979481635027
0,584226498011134
0,576852759219619
0,580782820618728
0,619033061946843
0,645394487195277
0,62669995490582
0,65471893351023
0,654100929298527
0,640907172602773
0,670404311384767
0,678042273904041
0,655072172653451
0,693054605223737
0,659837138968556
0,633257204139122
0,672003246058278
0,687852793658226
0,6308343695233
0,648063003258361
0,660300815423022
0,657804828668304
0,634865406114799
0,628493840350624
0,648453278735691
0,673629947320412
0,662421236798716
0,65364759391677
0,64445027681617
0,644063133916734
0,675329100850765
0,676631767011565
0,629917604265313
0,593193812706411
0,60556413201618
0,62914136804019
0,613561265361276
0,612688332324352
0,607117641231195
0,60371793479136
0,629009946968813
0,626987477141402
0,59375510900188
0,587733020606953
0,591548587171439
0,607298063844259
0,587056268777479
0,5875911777843
0,601595036276754
0,656735999506931
0,63244482021178
0,608286709399644
0,627994772546054
0,649774630884028
0,617441137015213
0,648996164374511
0,662943768100736
0,621366476239467
0,607319716875117
0,664984130617589
0,632858387538387
0,658221859341811
0,672961003390057
0,650730811444977
0,674814738777738
0,661400167936201
0,661019429968445
0,647245266718406
0,642297516595095
0,666888909336387
0,675939916094561
0,680575337507893
0,652766121020757
0,745925606520938
0,670368393241579
0,652590160096444
0,614830402439303
0,631188398711085
0,626549205534843
0,655978341409723
0,701817054354303
0,736054747540133
0,69859537141998
0,700170410231759
0,812171772298472
0,767160116123168
0,749250393407015
0,764358305899235
0,80061126544778
0,869246391617836
0,797482115841629
0,860434148298293
0,798112251785058
0,808756697672134
0,78724465416195
0,807334571854657
0,927155879266402
0,954441342766032
0,779404853085084
0,87249169437028
0,724816133821434
0,848193573732048
0,766572859279687
0,76366515439807
0,812077985071385
0,732704701991837
0,661008682978496
0,799930414740261
0,777384586522385
0,913608925699274
0,830064440294912
0,740897183915573
0,600106136000497
0,783135565723919
0,822631639649733
0,780256760515819
0,88863223067301
0,897103376950283
0,708256830504794
0,806561728556341
0,807942977950361
0,981871113299437
0,936784321313734
1,21105381887483
0,749982642381175
0,866346969843931
0,975643696703286
0,721236576642746
0,971792006841633
1,41285215496282
0,682197111567289
0,828597176775491
0,660318639557087
0,712746454830442
0,406992182626706
0,926348863824787
0,905386185060759
0,935602458325353
0,78287903572208
0,748288524616679
1,58999696478043
1,0982948830124
0,742748254574579
0,952181061686504
0,827505986702249
5
1,44331254995194
0,687520759215582
0,512779339397516
0,967798613351803
0,777343919710127
0,809440948520339
0,443502557710543
0,842567586871717
