3596
4000,36533379555
650,420452594757
1
2
2
0,0765650974056512
0,0752521569816538
0,0772754808835735
0,0668750538570516
0,0826582951975734
0,0722338803849475
0,0749893115389974
0,0691885593719804
0,0791441349621965
0,0670986398398487
0,0806177219740495
0,0719253476555967
0,0768284305312988
0,0697891751953318
0,0736709609669066
0,069677925311346
0,0779510001660477
0,0616762139174248
0,0821711863637816
0,0686694561601235
0,0748774699067881
0,0700754537619185
0,0713378824701378
0,0634680977591341
0,0740302462361715
0,0690424992668867
0,0795488815012629
0,0752374265400533
0,0832460128120394
0,0693516608537358
0,0714639896059546
0,067756681662816
0,0752806436705435
0,0736046483923942
0,0819855332859132
0,0624450230042863
0,0705388571457278
0,0725395746547838
0,0713967717237112
0,0681937208126496
0,0780713939476949
0,0639539076424741
0,0734081122098659
0,0617277166422528
0,0761506573998568
0,0752342253911653
0,0768598505436819
0,0664751334307334
0,0731337761895091
0,0752862594953962
0,0822746858177018
0,0550781430597356
0,083313809766484
0,0790737231444305
0,0833259767481562
0,077017639854463
0,0806688393278374
0,0698345275582126
0,0797828312349851
0,0605680668643338
0,0968583115558749
0,0728660601938287
0,0782432788420555
0,060061938165708
0,0751076679014791
0,0600140609965143
0,0771442271699381
0,0681468663301254
0,073916206003494
0,0671997081443327
0,065749499244695
0,0856883345061844
0,084531401630109
0,0669080155982258
0,083440685285525
0,075908730318831
0,0698839495966474
0,0554036317800891
0,0647722603863598
0,0715041677543605
0,0861900445326806
0,0787937360057864
0,0763914510320874
0,0602690998757044
0,0809607973586432
0,0772500494017014
0,0654574899831752
0,0745103139730179
0,0880992799433748
0,0722613796038746
0,0673901508645433
0,0672929562693541
0,0707071787857304
0,065655577647369
0,0622839321388443
0,0635053030959768
0,0656612631895353
0,0732886329734912
0,0634788873319828
0,0734518077186231
0,0620453121717398
0,0800038738036386
0,0976078904976747
0,0633102997638382
0,112139245641689
0,0638584032672502
0,0846959214633479
0,0821914853365916
0,0877645099707261
0,065686070642041
0,0696206255781842
0,0604218086355287
0,0704752489055853
0,0714857719329565
0,0574489837148248
0,0978619525999323
0,0900865961998302
0,0691877926051541
0,0626048650194978
0,0671064183238697
0,0385716588901341
0,09431151208066
0,0908760023658853
0,0767149493554411
0,0749119611067789
0,062755229833469
0,0528695283935153
0,103630264229737
0,0917974688585906
0,0701344909620298
0,0708142404347064
0,0743274149060542
0,0530877481779858
0,0641072750699688
0,104557457965831
0,0671696600807488
0,0697894022565798
0,0408033037964828
0,0839866770364387
0,102727303250053
0,07657204083592
0,0740727765395636
0,0515640568007424
0,0625194144157134
0,104778199049293
0,0736034370228743
0,0668876718854801
0,0962834965000883
0,0735018425524582
0,0652868212350263
0,0657617225169279
0,0561802247627311
0,0800842847919969
0,0761787903824613
0,0230803883313763
0,111745476203134
0,0831438725814823
0,115214306330399
0,114865937531996
0,07473907116146
0,0804462993614203
0,0577066086751625
0,0687567101395671
0,0543200567655244
0,0753226303655255
0,0440054710589834
0,0845822701453963
0,0778304224472705
0,0657093733241256
0,0641833220187532
0,114289165417079
0,0685773715773932
0,0563639931377559
0,124534793130995
0,076826202646926
0,0600631164849453
0,088969509293289
0,0792646228320193
0,0492345019419978
0,0723633745837594
0,0795126079677085
0,062330062166545
0,0725111392214657
0,0621409251200755
0,0674758619907572
0,0802749936136078
0,0724311252914628
0,0722260635929352
0,0570863077836084
0,0538710019551704
0,0788320852802516
0,117015462943458
0,0956195753011804
0,0765523745166564
0,0681678586758434
0,0390143365254253
0,116966725590754
0,0771463757610101
0,0739173138457605
0,0555825417470925
0,0640499039163918
0,0688090459026248
0,057072029366894
0,066898372473751
0,0568496264148589
0,0442255615781425
0,108563108379422
0,0715616990167013
0,0769857352901217
0,0519767408226672
0,068282533840323
0,0408305221392455
0,12234085469566
0,0858250287655496
0,0821457917051383
0,0583585510571742
0,0681623154532795
0,0798776023581049
0,0810562369228619
0,0596943523901945
0,0684744540761529
0,0581546592426728
0,0687290317259478
0,0528230872627259
0,0583762530357794
0,0608108853605653
0,0690417586743158
0,0608362139019243
0,066886098985034
0,0605827137254644
0,0816022882206903
0,063366235482862
0,0688073703995547
0,0590141181538432
0,0513944374943345
0,0692583883742438
0,0761908035600375
0,0720102746534591
0,0668630058519775
0,0623851436478916
0,0614341126579049
0,0671442618147731
0,058269327941592
0,0628800960054875
0,0541695014504542
0,0566054755594224
0,101219416031409
0,0661370623476364
0,07789360213353
0,043716341637422
0,098367278941044
0,0673432431710742
0,0746495828151478
0,0541180944189008
0,0779587282095364
0,0523127106803168
0,0760679646309306
0,0818442142100373
0,0803943545097074
0,0509726121082029
0,0952270251010284
0,0594258999545986
0,0794997154676296
0,0442656944111745
0,0639372273379395
0,134924200676463
0,0745995513697794
0,0441531289187176
0,142522894755266
0,0782712851682136
0,0951337654969707
0,0488889207255646
0,0408764223631737
0,138510389450163
0,138587639451553
0,0657099926458913
0,081139673619157
0,0809784006994452
0,0691156681684438
0,0699613031017585
0,064730388067476
0,0915777461666964
0,0867319330478978
0,108790913451745
0,126302388420827
0,0551619731256386
0,111720877488089
0,0749235732423667
0,091223877941181
0,0638069278289702
0,0828533300318571
0,0584260513322463
0,0979360636696522
0,0701433211388543
0,101356595480092
0,0609925720317326
0,0788720454417249
0,0881347170241537
0,0870765136451317
0,0624408419498822
0,0868617385888617
0,0807788868258172
0,0824544189859064
0,0680943598865676
0,0716492493926459
0,0837304787668397
0,0697982429679582
0,0638922156288164
0,135190390924684
0,074702433453748
0,094571912355309
0,0890743568371531
0,0845047968140187
0,0693286922850616
0,0759298210024558
0,0748530417289995
0,0852241705619149
0,0653625064382547
0,0667429132082734
0,102816307358225
0,0815554367009745
0,0762514672265552
0,0856382922206695
0,076732744343131
0,0819927209556499
0,0823913049716061
0,0848588327711775
0,0844658821816922
0,0859756059037519
0,0654381063899906
0,097013528790154
0,10285764776964
0,0763175225393713
0,128183841095918
0,117178926489432
0,0984260115228412
0,0914261787539999
0,0831108120990117
0,0915608650186759
0,0808693848360383
0,100290900481945
0,0807161761765388
0,0934515694990974
0,113419269753015
0,0975148151103948
0,0869289141102649
0,0966163304583913
0,129269401832854
0,150849430559291
0,10556327972805
0,111320564662398
0,0699437259482768
0,152167090516
0,0911418690272574
0,151001624915629
0,122672438659093
0,112761534432583
0,110064717755997
0,106520260497176
0,105855131344362
0,110013298331236
0,120260251753305
0,119763796431586
0,118077318402857
0,12308036539121
0,130448749833754
0,115837214470559
0,128059591228428
0,166835854017682
0,137061711057608
0,137057472117167
0,129183653448041
0,124180578036757
0,173013234916164
0,147328441430048
0,193614951347505
0,15724564194231
0,173125608841382
0,19208816537385
0,153551012456289
0,167121759292266
0,154178624424255
0,169905422201739
0,156061983907882
0,173771407794958
0,167743297523293
0,16863132363891
0,180059021125375
0,183416437664185
0,184790228747987
0,184710895545932
0,175909720096666
0,214266254562087
0,186938465329034
0,204575055878254
0,170718952723921
0,226140982331808
0,233055955752312
0,267450473451308
0,205317139274296
0,226626823379049
0,205388736577045
0,227573258089032
0,207067846801976
0,236398723200306
0,217575395087116
0,236992900953316
0,265272607239485
0,261127761513381
0,26696379153116
0,266224884911177
0,23198205640167
0,277890324802905
0,246722918121055
0,28146271945894
0,277839728620821
0,277440441643166
0,237933039107745
0,324702056628018
0,278543643490855
0,304422051771472
0,289360352466034
0,288514128024005
0,268911135982996
0,301090746130253
0,28935983212247
0,302860270914859
0,307074585273432
0,320508519510008
0,324972578992766
0,329091550006257
0,316761186425891
0,334897997443239
0,340349203450529
0,334651834979829
0,332822591899401
0,3651720300905
0,330490615428706
0,370529844495098
0,315611272130492
0,406271006715368
0,360771364735822
0,409342377987556
0,364682458574382
0,384640392452549
0,366147715435332
0,377593435165462
0,382193069162406
0,387351936722739
0,374866993623863
0,41242553466565
0,398302869674419
0,409173320084821
0,397304361283269
0,423686148599776
0,416950349675073
0,42728252013442
0,418005631293878
0,433740583354588
0,42506288790347
0,46050853616453
0,418237266324514
0,517903423664617
0,458527088782294
0,499746185002489
0,4705415404511
0,473924867506198
0,469286349352547
0,505467885107972
0,456206528546897
0,501166051146745
0,506719518437223
0,504153357147912
0,471164855097443
0,514162507025299
0,489135895643593
0,538306297541109
0,518863541792485
0,527758259956096
0,530081072962238
0,573304555977449
0,529504724417652
0,537187358132187
0,537532573724147
0,570077340761134
0,545888977185184
0,587653716546658
0,573169596400342
0,556949248587149
0,565328769082495
0,597204273738289
0,564651783208281
0,609195154287156
0,595126984838914
0,616168878167001
0,596426291234254
0,633456595953621
0,61187043387894
0,634288654697318
0,602094592320608
0,638250670831407
0,576452341476481
0,66644041896085
0,621967125904411
0,724600749798815
0,627651871820609
0,69464497466999
0,620561471938043
0,702357511545562
0,655986898438949
0,698064648621873
0,665705110201804
0,714771258847879
0,672600234878602
0,729948194251801
0,694125228988368
0,768397748386247
0,660963372638036
0,73987904846467
0,705859760965165
0,713293945886393
0,749925035267145
0,776752327491953
0,755612602186207
0,778795003221826
0,745274250132898
0,811011146208584
0,754067745309592
0,827572507829497
0,777676160800152
0,838033666331865
0,744366411981826
0,802503562525883
0,776938759416098
0,824651272431695
0,757676373546088
0,803352608127491
0,804044484840632
0,835998953370249
0,785775132135575
0,87039779658503
0,816445302274551
0,865614954854668
0,845800052772261
0,888216871199434
0,850367665933142
0,873383350134527
0,861606079705589
0,938229623873884
0,849941979042406
0,914765606856137
0,854800063873415
0,90564253463185
0,834640037643735
0,991904520793924
0,923647704140775
0,962232738301444
0,841731992924082
0,9699730176249
0,910523577034951
0,947923589815952
0,912995717429744
1,01563977454371
0,954219422079799
0,949878118445876
0,885319465570484
1,02422990482372
0,908400993997034
1,0415103972294
0,928961254228492
1,03345444883614
0,901227312938985
1,0786909441042
1,00375849404997
1,06269377175151
0,983876041267145
1,14841332680933
1,00202789254248
1,05212583308852
1,07584432152962
1,18993954355357
0,999842641316057
1,10848866315302
1,02727825133798
1,12993452906818
1,02396873581324
1,10070319642325
1,03900701386218
1,27277941574711
0,971828144224769
1,14064945062175
1,08767832489087
1,25625861175975
1,03886196270531
1,1436795963311
1,06866164865499
1,20903407190601
1,06080041144956
1,18043973599608
1,13399009308014
1,28441285957241
1,14080174734791
1,19991967840858
1,11870182907367
1,21580779794997
1,09789078732981
1,27166966834903
1,14048784673053
1,2466600735816
1,16173383266816
1,26787443359713
1,15380650965135
1,28599638966385
1,1726385268977
1,29179627592288
1,15858770044433
1,18373937025732
1,21142002243365
1,41346306628678
1,14557074086165
1,35693885938259
1,09704694951909
1,35049231884686
1,11650663203538
1,30032959156832
1,21030103177586
1,17949036531477
1,18199089151612
1,2469132421473
1,17021818365389
1,45427134806172
1,25026963246197
1,35723310060371
1,30830940596221
1,40000665108922
1,19504132709074
1,3997083746594
1,26482130802732
1,44369039729835
1,26073607283111
1,44649592796819
1,18866014606122
1,35415634854205
1,25276080656086
1,28709753807453
1,23250745145376
1,37217422804135
1,40316594713321
1,52520673416358
1,28885059103509
1,40384476618381
1,47515706918306
1,43789073553992
1,41422576829248
1,58974941699102
1,26309282120366
1,4219781727655
1,36208496824201
1,41132870555091
1,29797943936439
1,64465217427024
1,24712987986181
1,58871916518764
1,24184470030153
1,38779856061308
1,31677198781764
1,49662982310682
1,30426374865572
1,47251049421263
1,3810246767721
1,40412419390216
1,26995717317428
1,60883894093079
1,28795038309367
1,52877053780687
1,3454374045671
1,47695831763527
1,35437317940834
1,52907373736242
1,45845390091962
1,59563201981705
1,34499578470508
1,51224061398393
1,34749752662868
1,56177826936541
1,41223208013866
1,64723251290864
1,54569080344534
1,69602720439132
1,35558097848676
1,41292577252417
1,40215672215011
1,53512031689479
1,39677141346208
1,5773767956888
1,30633353379519
1,39909098332706
1,36792453611509
1,55976764816689
1,35801324697633
1,53884790634456
1,60483591639036
1,74004916916657
1,47555376697424
1,54940049149617
1,50114536355591
1,56513483980261
1,35972395780577
1,54411923766786
1,35360431335952
1,46935129929343
1,39972925312605
1,73551676812041
1,39335878252404
1,79328421492549
1,32528561814155
1,53432999103669
1,43426627338467
1,65952388296058
1,4301608646931
1,56739352155769
1,45555866157156
1,45731943537115
1,54334764775782
1,47530097085231
1,46659296181689
1,54442083233866
1,54496158643808
1,73629092738286
1,44848936858463
1,48551251163674
1,53315622639442
1,65000183005335
1,37367889613584
1,59967501188634
1,4887879058455
1,52057733889744
1,31687645460808
1,58539786141395
1,52282161369171
1,60770039421509
1,39107461943982
1,50446705150822
1,5989163420762
1,60713717811039
1,53173400821116
1,53290349724092
1,54517161561326
1,57491769818891
1,47450158855834
1,53011663154462
1,47278063604673
1,66949410020222
1,53663940081952
1,45802231726006
1,40747321315765
1,65078522395699
1,51548049985359
1,42664039639123
1,4427919162505
1,48849542788776
1,4044397161659
1,74047020125345
1,4373813444247
1,64190673242191
1,48081704407886
1,76637925157929
1,60317009541274
1,60548550862713
1,5228162745817
1,44852242515064
1,41046647863452
1,47560769731229
1,50648367834284
1,51253233882957
1,49780216228711
1,44990108257204
1,4229752502462
1,65503632262516
1,40410825723341
1,58061840585963
1,42349522345683
1,50628487519241
1,52048620316946
1,63272256987309
1,4007464291247
1,67326280445388
1,42333795997611
1,47584344202777
1,44565100107845
1,48299539681702
1,40161222361738
1,63213797912104
1,4611162716286
1,53242771788665
1,48311792379101
1,48001151507145
1,42066780052289
1,50763281392686
1,43663725201348
1,44381411537541
1,37507012398148
1,62827575888772
1,35576458509161
1,61632192322173
1,36250460211773
1,39694934304321
1,42867687302645
1,51538361807939
1,37093318168112
1,51731249178275
1,42788467020039
1,38490138801543
1,38036348752405
1,43440235500516
1,43490525626529
1,44991619888626
1,44774004659058
1,46227587604191
1,40653392085166
1,48366228401735
1,42927865936205
1,42226429095534
1,3571008445456
1,49101602145851
1,3390091104674
1,55306136889406
1,39569016493683
1,38276051053468
1,37007280927095
1,50880722472163
1,38734974390977
1,47124641130362
1,31002085639519
1,34477137375289
1,36570294329036
1,42151692582792
1,36722108255342
1,3533022179439
1,34871790194781
1,35058519736025
1,27296801117592
1,41394896403889
1,39423902503992
1,36873555544256
1,32022295938454
1,37063542255151
1,26282782555381
1,34567318023446
1,25839277907712
1,32109823462262
1,35065423357974
1,33053891263527
1,27966162951355
1,27891850868763
1,20995747089989
1,22876068499945
1,25395004700462
1,28855094593715
1,24080537224513
1,37828878375791
1,22939575253174
1,33785720894615
1,26120241023666
1,21678024182384
1,22915028000574
1,32439332508068
1,25146772663704
1,21745891315372
1,21092374259009
1,21563068223763
1,1855036564713
1,23006045919864
1,22945734738639
1,24897860029119
1,21078454580396
1,19834991207719
1,14549571425254
1,22509152165351
1,18654902493681
1,20457288208245
1,14418782624299
1,1690994691829
1,19681405607767
1,22183882642074
1,14256332244901
1,19141118235199
1,10369684889396
1,18167234180197
1,09884347293891
1,12946499167882
1,0846836925585
1,1298144443076
1,10984068598683
1,15638638361144
1,11441350253264
1,12558589391973
1,08111758746598
1,12773283289741
1,06774976224878
1,07409799839467
1,03965299462002
1,11520430445596
1,10909911615857
1,11745111948403
1,01111196494331
1,05026410553684
1,01235577264344
1,06408858246148
1,05046101365098
1,08480368739022
1,01510786196163
1,03280645675861
1,00174997116665
1,04678752254014
0,996128508231725
1,02924016082903
0,975642067618289
1,02138109934091
0,985877367129103
1,00377537149453
0,955660033276879
0,991022089858631
0,935670451231949
0,939017957268112
0,946522555869229
0,972854420091258
0,953353538716146
0,974648959198395
0,934045991476194
0,939496893103204
0,912944413174207
0,91759575753613
0,906503385664736
0,923731709452394
0,90373514465625
0,928740053700049
0,8903143392091
0,908180842483902
0,879765376294023
0,873308939260411
0,853412793948641
0,87422487426205
0,854646944315243
0,873601019118527
0,869770350795719
0,843597733488766
0,851188380146951
0,878480588202747
0,833898293104878
0,840262118079298
0,83612299643111
0,870853399954612
0,827344361237299
0,842782674724302
0,834506688454869
0,84852739041291
0,821179088129505
0,809467098238055
0,813358458458921
0,808456263745953
0,780109325998713
0,789829157706768
0,747360775540251
0,794833723468357
0,767420165219717
0,778986258449989
0,759396141117637
0,769962093018008
0,748978464242418
0,767537776255396
0,750412335008943
0,780995036493975
0,730915184597969
0,736446182009648
0,72767576624946
0,740640817268117
0,737720166402908
0,736984356457859
0,72761299034471
0,728797524878309
0,724853379294896
0,716734970290163
0,700280761704728
0,719065799621821
0,708896152104216
0,705489488534214
0,690773225223652
0,691986914509071
0,685540111887255
0,697277197882114
0,671797697894183
0,690455594654604
0,678730178395756
0,656510607571022
0,650341931673864
0,671078536173344
0,661716038210337
0,661425703151468
0,651038165486445
0,654383071861282
0,640237599443598
0,648547394100674
0,648487414671334
0,645571474869648
0,62846603632708
0,630450208578354
0,634982000466636
0,620338733958396
0,618714181095392
0,631478091714354
0,621069230424801
0,617498723544556
0,600486914834438
0,612099691370782
0,596884226854313
0,594135805886064
0,580181130239411
0,59151521989342
0,570798711651512
0,582494452251171
0,577048663477546
0,57121457368212
0,567515315172773
0,581417731110093
0,567329860147995
0,558168934674005
0,556240306384974
0,555477507161796
0,545551219928235
0,551386360995573
0,541801138042999
0,560066231329195
0,542581481652574
0,546860223745154
0,534092597972778
0,538313184014759
0,531780587723626
0,542382258659962
0,531948080686182
0,526221717635126
0,510212004016238
0,523563505069598
0,521073338876333
0,514291592650276
0,507115590889307
0,51101607064247
0,492563949757449
0,501925323678768
0,499789103450633
0,50171892550614
0,494839399243552
0,501431933680781
0,49496737595143
0,491368289447369
0,479638184137896
0,481064964268147
0,4814828019456
0,484301435316964
0,467173261508851
0,470284409766435
0,472995730306025
0,480129096353501
0,468398085358465
0,472374278234804
0,470426525419086
0,46660304340938
0,458359783849659
0,460584781227369
0,451795825082167
0,456004430456709
0,4500991213091
0,456970608351562
0,4516216653924
0,452074658332629
0,439516993575653
0,451866755693932
0,45398422202035
0,453711188241013
0,438025818554198
0,45135114204629
0,451885248828979
0,446167246078505
0,450145808702982
0,457247947195842
0,440912486156927
0,452814763496001
0,449173766519356
0,449134341256085
0,450190654652152
0,454513903618696
0,449459828529456
0,459381323930296
0,444855859780069
0,457714710843619
0,45834168403258
0,457406024600165
0,454243135648726
0,461264848693496
0,463889403929769
0,465401952935658
0,461386021982701
0,462809332180318
0,466172445615204
0,477110626091391
0,471078378331275
0,482406964222496
0,473705645009576
0,472426519389614
0,476946095076755
0,47830156157266
0,481790279985422
0,486182601491688
0,483615508769867
0,493395306513667
0,48595342721061
0,501046538511037
0,49199042053382
0,497070501155357
0,50129944715115
0,495540731194621
0,4915868502413
0,506822739016792
0,505869870266878
0,505111160546368
0,511214433854636
0,521938278264711
0,515167757651875
0,520913937863813
0,527503078501575
0,529575265144039
0,52734148652831
0,536141755053369
0,526240900878189
0,538106416516137
0,546494156244427
0,552989679194309
0,551961119153552
0,546428603214217
0,549530262501277
0,573249291073846
0,568600690445706
0,571281780570768
0,561840711954947
0,579478017439901
0,57789236068645
0,563634084661078
0,557402790109713
0,572635671285134
0,581058670257384
0,578834819927672
0,575763724361375
0,570135208113514
0,560658168135774
0,575838326090998
0,566223203815194
0,57711765869219
0,580876936278057
0,575378270316012
0,562426056229608
0,559716127672449
0,568404016344165
0,563305096759764
0,567032845307468
0,579298720981187
0,55897932231795
0,564240404649015
0,568686030562324
0,572425317213394
0,565523714210463
0,56275881472399
0,564569841779649
0,56657735925866
0,562842171505584
0,563546934712887
0,564499265154111
0,571982904389405
0,565196283308323
0,574901562900601
0,566390996198865
0,563730581485395
0,573589651091514
0,568774662038587
0,568542540396799
0,561744572219296
0,567187330035294
0,575787072701595
0,570121107332714
0,564511027942934
0,566955438106761
0,571015194233966
0,568450152628392
0,563093170033502
0,567124865523427
0,571482969808421
0,561749964157692
0,561451191287309
0,563534443017229
0,573419989910761
0,559854045662176
0,56438638141089
0,563386908470577
0,551411232709157
0,553788390221995
0,556273488387251
0,544686009798777
0,546657916899478
0,552026436670937
0,545070429104399
0,549650405287257
0,550415166635522
0,539155743149332
0,539951234446835
0,528122012616812
0,528626678582368
0,523242453026323
0,519195658135266
0,522633050206142
0,518325747162274
0,513058870948134
0,516862922351002
0,497083074181312
0,496024004937131
0,492928487145116
0,490931687371988
0,486179506482873
0,484763470859006
0,477645546997648
0,483593202899013
0,477351181107333
0,463803521185569
0,465667346969065
0,467040299044741
0,463777001873657
0,45800082486455
0,453410214250696
0,451502300821947
0,447100698148635
0,443193879726435
0,436011826771992
0,434383761767767
0,437624649414467
0,432837773628944
0,419789706463124
0,423862971046079
0,428113167851738
0,419116179011671
0,417013304059612
0,413730293412222
0,412082908503593
0,408669174674735
0,402080172620545
0,405357252324369
0,403281504171242
0,39637675530553
0,395442679690687
0,398759502113284
0,39247255814386
0,392047828395313
0,395128698998937
0,385755898093839
0,386797902542963
0,384537396941544
0,378593738064326
0,377656042201876
0,375968318600741
0,376349642313044
0,374337507630267
0,368508343314351
0,373305817863394
0,369084407674676
0,365845542954356
0,370147028853136
0,3663662397646
0,362467791184385
0,362197687950335
0,355454153063923
0,352433736056608
0,356727739898949
0,351569451453005
0,349222077859215
0,353155824589257
0,35257567449135
0,342413614119891
0,345443301284385
0,346255246474437
0,347849278136658
0,346200255919984
0,336446389657863
0,336613002654725
0,336125938414565
0,334701442390997
0,335600536356589
0,335193104967281
0,330150745502187
0,331097063578416
0,334825520449709
0,331631959980883
0,328235658647765
0,327610252921023
0,325633652013193
0,32708158096873
0,325099202619851
0,320004079326782
0,320115632080406
0,323717975270124
0,320988927542433
0,317842952236998
0,320127631408307
0,314648477551694
0,311515953420033
0,311320613624454
0,307864805725858
0,309295951899347
0,311782599473253
0,310023743095056
0,304051302475153
0,305070407150615
0,304423718353169
0,302251961853881
0,304727365245633
0,305818359297913
0,30110853191098
0,298986699497923
0,298019114205385
0,301082800677874
0,29662608816503
0,297106751881319
0,29909059310478
0,29956708734707
0,297790760945411
0,294551610282248
0,290175866249193
0,29220035130995
0,293776593758161
0,290110314255745
0,286428369802746
0,290599318963166
0,288383736085822
0,288817313659984
0,28664951399644
0,285079147433615
0,28749163457163
0,288247491100008
0,285774259650512
0,281561030865024
0,281205448443803
0,283291856575326
0,276928255960253
0,279152132902508
0,281235335393947
0,283219319474692
0,282507854138233
0,279561946438428
0,279192210085393
0,280484587081354
0,276474656567498
0,275108155244682
0,277736176215421
0,278001599980759
0,279102178365209
0,27966809609178
0,27431332273219
0,275402829134065
0,273993871493428
0,276728477494916
0,277922019480212
0,27620904693355
0,274689750682471
0,273512417060464
0,2721107850222
0,273789132614593
0,270654922693518
0,272417011774151
0,268123318188138
0,268801797029496
0,26648519145039
0,265723459730119
0,265835352311689
0,270813630625403
0,26682343397888
0,261692681276152
0,261756666016645
0,26796001601648
0,264185008656288
0,26345082258926
0,259987339728195
0,258868780790084
0,25984524609239
0,260246092191125
0,257474611597588
0,258535160960534
0,2595001068544
0,256395623877638
0,253269962428781
0,258364370370548
0,252495180668235
0,254464245873693
0,251527492444699
0,251991796624686
0,253643863815806
0,250985269471693
0,248084377024828
0,252675022123711
0,246218320475033
0,245879790174548
0,246519376023134
0,243907777963458
0,24431230771341
0,242360904542784
0,242505730098951
0,245950073277743
0,243877130091953
0,244086234007825
0,240947368129461
0,239351042023641
0,239120996813863
0,240943142889463
0,236050247546532
0,237258346844331
0,233274639177449
0,23021802738561
0,234026711450639
0,237193891316381
0,23462708805425
0,230640904444967
0,231638732981858
0,229576301001708
0,223978255276164
0,229607527321746
0,228700085656449
0,228072602118821
0,223511477395589
0,227274882201049
0,225032848245666
0,222633456818007
0,224004091280714
0,224282130392775
0,218983579152425
0,220384366832366
0,215549148195513
0,216866395898166
0,217158004316896
0,215348623471639
0,214531980984356
0,214985556065504
0,211221598530228
0,216706257507583
0,21061081810715
0,20895057113153
0,210515372722041
0,206990793560088
0,207212750970435
0,209091917549106
0,204289412789198
0,204060510710891
0,199054832994179
0,20077890445694
0,199542309056243
0,198936232438055
0,197870279694076
0,201801282655932
0,195810962697834
0,19948049711281
0,194854269163111
0,193421014007858
0,192079441302661
0,188420836715157
0,187650763676879
0,19246223221211
0,190124696496511
0,193247506373394
0,191647508505425
0,189461470313406
0,188241273385125
0,189159582826337
0,183492666002044
0,187985649767019
0,185611167518451
0,183185183470242
0,181512706893855
0,183001335623551
0,182099491508315
0,183418175692095
0,180357950123531
0,179641866267279
0,176695990425228
0,179662000773688
0,177174072015489
0,17865625465375
0,178000792904849
0,177935911873568
0,171981858739226
0,176315676808076
0,173631991397445
0,173375179404223
0,174406422968737
0,173684833685955
0,172074996960368
0,1747006327143
0,169620210424819
0,170030332411451
0,167509432273643
0,169352578650909
0,165872133542198
0,169315537242798
0,165821695644011
0,169041773482684
0,166954522061092
0,16879082402305
0,163599386315851
0,164131152503117
0,165067237163071
0,166000614904316
0,162202618670887
0,164423954398519
0,162286427880754
0,163579890262457
0,161612555268714
0,163255089345884
0,160533488569469
0,159359118348675
0,156901070103686
0,158279175147485
0,15514078465746
0,156991956397108
0,154810841078461
0,159655994865245
0,1598172646762
0,160265188831164
0,155142248305694
0,157643699822768
0,156222923216736
0,157491593251287
0,154063688567954
0,154149651769897
0,153979765444216
0,155484823666072
0,154690203039112
0,154066676559965
0,149391910603791
0,156537117283568
0,151822221002153
0,152064001708156
0,152089095361688
0,151211148068321
0,149877298583807
0,152987057386193
0,148282165369211
0,150158405284125
0,147643674028038
0,149470676592998
0,147112050627575
0,149161468383014
0,147075996054496
0,149647915792859
0,149942425376242
0,150164289629947
0,148716739108893
0,148363056918419
0,143648336380653
0,145067142589705
0,142203817168295
0,148372893559092
0,14416956077215
0,14598338316754
0,146963361948162
0,144479447752349
0,142453137768012
0,147005082606599
0,142359533506689
0,145048868086483
0,141299849832754
0,145511751981685
0,141059525933351
0,141501154957283
0,141997794174744
0,142319732500532
0,141190503484078
0,141391638273553
0,139072766934288
0,142139980789596
0,138806605521913
0,138699472785108
0,137730483888673
0,139831961850053
0,138448087571444
0,137531584756369
0,133599916476784
0,13991609991338
0,136094669326416
0,138731000440912
0,136727170339361
0,139367011199768
0,135974889864338
0,135583525702398
0,131819739180733
0,135504163257313
0,133200250026964
0,135283987635933
0,134986530189678
0,134267016012878
0,133052142434765
0,138235987092877
0,134443339470582
0,131624733009764
0,129344212179468
0,134027010382522
0,13077842557144
0,131556688591661
0,129199376161864
0,131151535343875
0,131122984008331
0,132156230290305
0,130999240409468
0,131042901674217
0,128752841756986
0,133082651690093
0,12816365244889
0,127417995997702
0,125839018975668
0,130143491206949
0,12718967056153
0,129317829251237
0,129378939443671
0,126530948541139
0,123358237261847
0,127783197376443
0,125460104383452
0,126496353319601
0,12167286737995
0,121320957412392
0,121990990522895
0,124268949285732
0,122185766970074
0,122088438845211
0,123218756782551
0,123334414546724
0,121485774443215
0,122472754513764
0,117147145912989
0,121080278654561
0,117119344812813
0,121033835499581
0,117667688711062
0,118408102288676
0,116080895863277
0,119818422225534
0,117898152715885
0,117077644836154
0,116001918442334
0,122243521511825
0,113561088515757
0,114175985880622
0,110903148504266
0,114033826291464
0,112172415923757
0,112945490831513
0,109245297412439
0,11140595930892
0,112227973867241
0,113758682088883
0,108665625076999
0,111162507678148
0,108626150660206
0,111472145354717
0,108578239041352
0,111768297450267
0,108636764467931
0,111912809028581
0,106626237513932
0,109804328204909
0,108166673609158
0,107911045367942
0,10385777106198
0,108617041742804
0,106087715631483
0,109555284337784
0,104629299863739
0,105616509042551
0,105534019991503
0,103927748084755
0,100728561329837
0,10652985150651
0,102605913737
0,104671955602686
0,101105844869467
0,102780853388891
0,101831434626745
0,103939080169335
0,0993684955713728
0,102611335019911
0,100692987966514
0,101580261215568
0,0979309522001033
0,100164082725623
0,0972917437656325
0,0988530595813956
0,0986121157324141
0,10168811359583
0,0971478551115719
0,0976126376918721
0,0943507321140695
0,097904350955295
0,0963134184418181
0,0997456744183755
0,0960508269239022
0,0981351416184928
0,0970962923422473
0,0975627069270115
0,095068427009678
0,0980591628173813
0,0932745437301901
0,0963399052809241
0,093635911990636
0,0957205775521489
0,0942372362699766
0,0978207935058798
0,0908307433109831
0,0929847832946835
0,0930860276870768
0,0925306530671266
0,0942443915678176
0,0959485846438608
0,0891230814040279
0,0918802962396833
0,0904004324893134
0,0951785883773067
0,0914213725279765
0,0926049923880607
0,0900116911591136
0,0941414242367764
0,091995895823567
0,0930173720339399
0,0893262978709008
0,0928551269414392
0,090374035035825
0,092764387495178
0,0888164556309096
0,0959072246905475
0,0918191313415788
0,0955853855721629
0,0920496390527516
0,0984275961712239
0,0934641572216362
0,0977860780629756
0,0923767699817277
0,0978038738536475
0,0980277198264728
0,104137014578436
0,0969597731271177
0,0920974270000925
0,0859064698935786
0,0942079275386716
0,0906568207856031
0,0997226257308394
0,0875359423915462
0,0969183048411527
0,100234945103558
0,0961639319827005
0,0917067077120972
0,103244001415355
0,0925190906836023
0,100760694700523
0,0898849270708885
0,100076030360903
0,0907557941881284
0,0958202309122221
0,089034068914832
0,0924327008827324
0,0913929033308753
0,0955990666990971
0,0857553593958901
0,0912279205274481
0,0844064350780272
0,0937868278838452
0,0897521060853236
0,0928759659882932
0,0837781087738542
0,0937041593011219
0,0863202643515646
0,0915420509980974
0,0830478174704561
0,0922768301187126
0,0813857187736346
0,0950792718153748
0,0848975764451115
0,0996325027384863
0,082451732716154
0,0980845965608734
0,0765070026741658
0,0940500837004809
0,0840019816828092
0,109695436290256
0,0847712301219124
0,100891695676528
0,0743764763901227
0,102768945262955
0,0871540464000257
0,10020716850851
0,0772798880679417
0,0983701852988081
0,0868480547971578
0,0933104484800252
0,0805105248756326
0,0964064122871621
0,0886848320535291
0,0856782010258407
0,0912368308324654
0,085190803979345
0,093059505519664
0,0853951981144038
0,0946475804725797
0,0873310104110432
0,0923224130095624
0,0881705182032033
0,086715320728282
0,0865618127844173
0,0830602139470118
0,0896344029644669
0,0823764349057119
0,087485999520888
0,0816751528890865
0,0891060163827039
0,0865747549341672
0,0843862461545687
0,0858288335324077
0,0851600675796937
0,081252994793348
0,0845698259958903
0,0816246805855093
0,0849625080025348
0,0835003354131839
0,0838411872634849
0,0832617571402246
0,0828190421995757
0,0831801410928649
0,0861728371896408
0,0813331420464276
0,0835252464974793
0,0815473260703706
0,0838890859464161
0,0837735740781992
0,0846416589122653
0,0811141785972826
0,0849053859418958
0,0832404454466539
0,0859773756445556
0,0835320246761268
0,0827089079690453
0,0826744367829789
0,0846316566038336
0,0835735939507545
0,084887609621254
0,0825944383355715
0,087377624710368
0,0840073072653234
0,0833935749422401
0,0831568879088343
0,0846310359879651
0,0853559547100123
0,0854193018349158
0,0835609525918152
0,0869971690884896
0,0840092884254492
0,0844127096256123
0,0835024789202657
0,084048728818595
0,081895493556855
0,0858565296089711
0,0853238812339984
0,0844757106428713
0,0841176616173685
0,087425643611388
0,0814009279407935
0,0862650664403508
0,0855884916938775
0,0851846263545989
0,0835737320403158
0,0860138552375032
0,0834259461810783
0,0854210606300432
0,0842167072069473
0,0884463323221883
0,0849050383906513
0,0858168845004858
0,0843974351504632
0,0864529569880639
0,0838337023505464
0,0864188924376037
0,0853181216758848
0,0856727789423367
0,0849689560422576
0,0867405718118914
0,0834380148080155
0,0856236911565732
0,0848655963678958
0,0863346630439321
0,0847452629413509
0,0882284586398488
0,0846317284742266
0,0860139833136035
0,0853789706055559
0,0857060217837953
0,0849204045333199
0,0884331089373445
0,0856865821926689
0,0881111125478717
0,0879502779839433
0,0876190092234448
0,086501406815124
0,0890133370139011
0,0873989931693217
0,089940195359363
0,087564737378327
0,0883336153845772
0,0859397090881037
0,0910854472086547
0,0904569986614753
0,0886270656627256
0,0843969418877288
0,0901076188973325
0,0871692428700819
0,0887438078912054
0,088856671902164
0,0923209738724281
0,0884416759625639
0,0903036632096069
0,0892623853528375
0,09271991873207
0,0864269200739392
0,0916053399384142
0,0910338278353392
0,0900579388644933
0,0919271844094017
0,092741089458385
0,0900893787331087
0,0925337661060884
0,0892403316654473
0,0932708448018817
0,0910497216586769
0,0938419551146679
0,0912677724532924
0,09166775289032
0,0901492755989046
0,0921492507204752
0,0907212029047056
0,0926909794921571
0,0918769467927393
0,0919462848839982
0,0890397458800763
0,092046521842925
0,0897686141645994
0,094088921208107
0,0910407995821666
0,094208852756328
0,0931778574183426
0,0941476951785115
0,0886837552495658
0,0940329600886788
0,0917835794884709
0,0923742926880668
0,0919403878824832
0,0947000348228257
0,09374191899862
0,0950422654712888
0,095820224933164
0,097627344891034
0,0952187303149878
0,0938081487508101
0,0914106642136603
0,0972938645064325
0,0929461285647815
0,0952085589669113
0,0924759758663417
0,0972569885312551
0,0946361495450302
0,0996531060684682
0,0930783676172639
0,0979065743300191
0,0954661698868448
0,0983054802663315
0,0961079593962884
0,0968322890680297
0,0946206988651174
0,0962426814985265
0,0936471756989778
0,0992409912297422
0,096072757445609
0,0962858581359417
0,0943083363516397
0,0985136653743514
0,0956430812837957
0,0959625414577505
0,0918481928415791
0,0965384784279941
0,093016284293134
0,0942381187647648
0,0926995594446377
0,0974222499175249
0,0923949777921436
0,0948748940825729
0,0937908848638544
0,0959385893595374
0,0934845625561746
0,0957327527142506
0,0926399685209593
0,0940336342159046
0,0904455768383485
0,0952372181578433
0,0922473411163573
0,094262431258272
0,09176566186017
0,0934760872202494
0,0919957249873495
0,0926966896325911
0,089774361423453
0,0947212282327525
0,0906043450667914
0,0938481083256784
0,0915669156729437
0,0942281075986943
0,0906875952532207
0,093212317179269
0,0916271337937517
0,0924465934407663
0,0893596129518759
0,0926066335263936
0,0885779147925725
0,0932005302238309
0,0904832541916792
0,093925778532066
0,0908050913523418
0,090271829744573
0,088307098815421
0,0913146890177603
0,0868716630253344
0,0921900870866592
0,0913420766482092
0,0934032524135879
0,0882854479851142
0,0919613881815853
0,0903149687907709
0,0911975079998278
0,0879274833631856
0,0915059535507398
0,0881384893611714
0,0889864847988166
0,0868190514373914
0,0910954929714805
0,087883464135897
0,0883030090299293
0,0883719514754814
0,0912415376878144
0,0840757217549473
0,0873749037976786
0,0886401414239426
0,0911238679644071
0,0858964799333548
0,0901983909099503
0,0897824962062048
0,0908153325975867
0,0864894544094481
0,0887212197404275
0,0860658807376538
0,0870023241035266
0,0860864697402506
0,0908020142226312
0,0858296044547268
0,0874746321316126
0,0858432811640188
0,0881847924431394
0,0873236025198245
0,0896728563262452
0,0865183265908591
0,0890171790116306
0,0869472847221409
0,0900970938981871
0,084768411314806
0,0864640137520936
0,0847469029606689
0,089096996051513
0,0862268508902754
0,0875936782890469
0,0842754401198518
0,0865137543336414
0,0860198661294575
0,0885771653454781
0,0844006028166094
0,086740318899649
0,0833781576095574
0,0860155252395305
0,083638946541739
0,0863684327146055
0,0843942026262785
0,0854613916539146
0,0827121610053845
0,0840420440810358
0,0815979925715931
0,0867512068099758
0,0815742122562041
0,0869083116952076
0,0857516684866664
0,0813978350206943
0,0818590513965004
0,0849805732003638
0,0821384684926342
0,085154369404878
0,0790609083926507
0,0839475879811982
0,0836396884629638
0,0812512847640946
0,0796071653228743
0,0826364344850523
0,07853912509522
0,0797462216480876
0,0800040914870616
0,0787832413959116
0,0773223445369714
0,0832311469688978
0,0781511256450023
0,0790143681908519
0,0762898721843156
0,0782517572513691
0,0769786957082081
0,0808901773012062
0,0780867319616437
0,081103438538081
0,0831151892492569
0,0785251149740147
0,0787960358203581
0,0774151705433468
0,0756455364564241
0,0764634492102272
0,0742750592570665
0,0745434491862952
0,0738119030187822
0,075663130858089
0,0730930109583293
0,0760576469474483
0,0737506723827863
0,0749830432509602
0,0734456758960828
0,0724789744239184
0,0725563417045277
0,0755522953396825
0,0725240991499743
0,0759361493010069
0,0713007015651927
0,0713744692384229
0,0717724397570232
0,0718684914614495
0,0722075948860263
0,0712525262479424
0,0704290219841662
0,0807136200983413
0,0714428459609567
0,073419700335107
0,0708124699333941
0,0750770563880196
0,0665980412115645
0,0734552226788068
0,0696380639215335
0,0733948837758638
0,068368637142705
0,071760277560887
0,0720597333690483
0,0732635374148094
0,0673932290460271
0,0716149301681707
0,0684397973779454
0,0707275906933575
0,0699332414005122
0,0713214941592322
0,0679916033594018
0,0704292535486533
0,0697013164871431
0,0702188449469091
0,0672293312809498
0,0708630133749796
0,0653943870645938
0,0759129389488447
0,0674787163713385
0,070268285766728
0,0679850070687417
0,0672014521515051
0,0641164201824629
0,0692711689117992
0,0659412609727688
0,0684474179995749
0,0658957447749083
0,0695587243288657
0,0672926766729424
0,0673971070121916
0,0662126912653765
0,06938433978784
0,0632376778317974
0,0692363442611766
0,0636675060196131
0,0682949302540314
0,0622282388500365
0,0670266788773374
0,0617172908256475
0,0676734931083708
0,0641150714673573
0,0705200859079435
0,0621638059184882
0,0652435635585437
0,0804832453606541
0,0662861813082012
0,0647783003677036
0,0641860727770301
0,065152046587395
0,0648806130457819
0,0645649763502945
0,0650596964636374
0,0635411381244841
0,0656912347891857
0,064385905235945
0,0614361540046462
0,0637681214790098
0,0652255703980012
0,0631588796471343
0,0640122224899269
0,0634736624418808
0,0646116906998604
0,0657234888431377
0,0623930183801596
0,0661739849712989
0,0742146574579492
0,0675604041156501
0,064327462542013
0,0650036316119724
0,0559091612944621
0,0795892625851334
0,0693312135443706
0,0637985780153909
0,0647660091068173
0,0645684798760026
0,0637138157052333
0,0634372716394584
0,0651671561699643
0,0646922690131599
0,0711178144589413
0,058731899586722
0,0707757387699685
0,0593718728546271
0,0665401510664462
0,0604428064378965
0,0646803614363492
0,0601048397131174
0,0643672662461698
0,0604018015334749
0,0655932881953431
0,0605129920676458
0,0617736853614362
0,0627834996691284
0,0601078760835746
0,0628396037451074
0,0690215288982259
0,0624221539016224
0,0637081375346626
0,063651538435602
0,0618556627605546
0,0606005570541466
0,0824239155742308
0,0595064172958432
0,0683907197033367
0,0584050248137767
0,0658207082587119
0,0607735206965107
0,0669998129260218
0,0591281430041991
0,064940863370539
0,0592157846064854
0,0650513712480558
0,0583732724724466
0,0644967782323551
0,0614773427083136
0,0645588541557629
0,0578974132769098
0,065656837912036
0,059696108431851
0,0601229789951281
0,0644618639844848
0,0590005289810537
0,065269098235634
0,0828545918846613
0,0683780176889344
0,0753019205790116
0,0659563789756212
0,0635516703008391
0,0607855796333312
0,0677254811349842
0,0585718907405652
0,0692588938755661
0,057866841536281
0,0658796537146197
0,0586465933075903
0,0678412230267009
0,0589680559375139
0,0686927701469894
0,0564562869193217
0,068392448702258
0,0557324792496113
0,0688722057252924
0,0571360356520425
0,0714838715255025
0,0523846064523212
0,0782894948827651
0,0596644837445214
0,0784980719460159
0,0480084267104803
0,0944761710704772
0,086040816846058
0,0657019278401482
0,072138294957488
0,0604321442683856
0,0666491016553901
0,061911284025056
0,0616735490252404
0,0680856080534432
0,0636718799642737
0,0642244949876016
0,0641294785850914
0,0658427249884226
0,0682954962993539
0,0617079396094054
0,0587484817103241
0,093031188330414
0,0666656763796521
0,0701572788384848
0,0649094067098098
0,0620091973566922
0,0859005323037882
0,0665782059654482
0,0702728197793039
0,065090197937399
0,0661534924800127
0,0675986613950098
0,0640305954567291
0,0669264144196617
0,0682651795943419
0,0718765884663285
0,0641907469783825
0,0711800596731185
0,060541774660952
0,0730128537781811
0,0662451340583377
0,0769288256808101
0,0791560594179353
0,0672786306816316
0,0727846708299412
0,0717199708543284
0,0665344937664504
0,0716035992625327
0,0676759215493744
0,0693215948160373
0,0718944184563472
0,0834719205257841
0,0640368114094723
0,0859036838937828
0,0781919643289009
0,0680981888568581
0,0764640883783372
0,0759780581970397
0,0778355707788266
0,067468837880671
0,0672138865399235
0,107796342902227
0,0696776984730462
0,100776101400208
0,0669695399404732
0,0868504988283281
0,0651138284450602
0,0857904616191876
0,0549245878893132
0,0982957711342777
0,0678397633275191
0,0850762161833187
0,0637200278403869
0,0896753016589944
0,0836307982476495
0,0812200887538025
0,0783167632742829
0,0792080903493833
0,0721196584231211
0,0880844738048738
0,0826819041315083
0,0655386652528015
0,100916106410102
0,0995564920236029
0,0975052817389128
0,0912489777255731
0,0628386940024313
0,12688267948045
0,0783118034122979
0,0887349433694036
0,0766498649880676
0,0862444908007139
0,0811430521735357
0,0755238513210299
0,109457834039719
0,0920620866106206
0,0799327926102432
0,0986172125167231
0,068369801232456
0,107824072776076
0,0899989121923454
0,0904153291814009
0,080416010195399
0,101003333877402
0,0686888952773494
0,132789788430703
0,104392160142347
0,0969389509785243
0,118484455122196
0,0992675412771464
0,112650165735438
0,0983881421130491
0,0979523347472241
0,101633199560819
0,118358680959692
0,105408109454962
0,094390261554344
0,105125004600089
0,138365283212573
0,0937110283751873
0,119289175296196
0,104807071694133
0,102418950918425
0,133173516388351
0,159037996003692
0,135610464185591
0,120008569428265
0,108124501722143
0,145012590111264
0,119463288748439
0,119943498629338
0,120695471394703
0,120432433597274
0,125630884200489
0,1178062919955
0,137484118838922
0,127750738694259
0,131360612135743
0,131412420088127
0,123635878099596
0,142439466296553
0,16330093675822
0,187022451677577
0,130872895861974
0,195609552188312
0,165453499228662
0,155224659016705
0,148945056959858
0,141970631243515
0,164127973182675
0,155580001213416
0,159029612611996
0,148685033391598
0,184365754247521
0,17838021660397
0,163816684845351
0,200860616442133
0,162932893501306
0,188144704017684
0,129633392677104
0,376828175278734
0,202740542423364
0,220069409310151
0,204121530267691
0,189587417100211
0,298274737659258
0,223704172668899
0,225582793016367
0,234669225330656
0,233939856650602
0,241144975153638
0,26037175700274
0,25792707357961
0,281173339018964
0,273939373730464
0,269507208876522
0,27951673521657
0,366727641244653
0,338131514949649
0,340510458853698
0,307721253153728
0,342850559157893
0,348421003504641
0,341283902121465
0,34891013230132
0,358310340543888
0,330784334176783
0,456296752281027
0,37365372989737
0,40745712470362
0,381392778449407
0,469107954924994
0,389590001549843
0,490855071092554
0,465221863665282
0,449926375862962
0,452829579552313
0,457969959489087
0,472878555725918
0,452350522418455
0,514225287111759
0,501244654261758
0,492008097899517
0,512640577570861
0,510288813509943
0,517917030856006
0,521117770198048
0,548915080346622
0,52008541744996
0,602392994326164
0,521005401088235
0,716683384890766
0,61037559888556
0,551473308928469
0,568261871974277
0,539069968709529
0,606221331773667
0,576077526338677
0,595715085601663
0,61534139301832
0,565490303941334
0,587041007404136
0,562346626934142
0,580237073970389
0,560219947246602
0,590696509816317
0,544317724935893
0,614709693424576
0,566249940217558
0,600620605895893
0,670682711839771
0,579348306443193
0,568521441691965
0,567211719843373
0,559619003104919
0,561190459293703
0,569894616390434
0,538091078930216
0,587832335815274
0,534707788216059
0,555412349566446
0,52559946209077
0,544006049880933
0,557470499176336
0,512524378222733
0,521160085410944
0,50232611268578
0,51022209314618
0,487249907210455
0,485254705218194
0,576063275969883
0,484911929659652
0,485992652546314
0,474966488096211
0,469101013163579
0,470369958709075
0,456618011588403
0,458736778979425
0,471696687592657
0,445970658585534
0,464112395664637
0,447903942365189
0,443550778793865
0,435623699417926
0,441174742533997
0,431921428906203
0,435194198212258
0,435108999792837
0,422364300358655
0,440412413120846
0,420113682075016
0,423585574628719
0,42885475704801
0,428534492543555
0,432771370217274
0,419300288456387
0,425912798413328
0,419330869917594
0,417383318086261
0,420518772290481
0,413777332767091
0,412419825534468
0,416973176129383
0,421275722046227
0,411768606609273
0,419370315119423
0,410849620449205
0,415518892027866
0,410618937558311
0,420767178128127
0,399341396974991
0,420097987460991
0,382326061924899
0,474770609117941
0,443255311993755
0,4001729778365
0,407832918376701
0,390631213608738
0,409655181603729
0,373915010806202
0,450500468615887
0,428617803986259
0,393539070834869
0,389069966786033
0,384153705692292
0,392674242434878
0,400431252856134
0,369844616716354
0,404755482865782
0,356377685559128
0,394298084871862
0,466641914619325
0,381802807012436
0,467360572465366
0,380751565631024
0,375095113222746
0,345716494235786
0,43115583456578
0,34769080116758
0,380441723764573
0,345652557024738
0,397684820697989
0,377717996525482
0,349367565675735
0,363565220013701
0,345694423580716
0,363248993992634
0,389424111703786
0,345383174676154
0,340582295684242
0,396825879873983
0,345626611178802
0,378415481481437
0,381189055196654
0,364113124698732
0,326145948852518
0,329753495861867
0,329834014508905
0,300660992710937
0,403222448378024
0,323377172968071
0,331004580193161
0,314985237089453
0,297667708538885
0,312257904642205
0,308675976712685
0,326650003992906
0,28172301884245
0,363303470953838
0,284582799072641
0,308511724688672
0,308231783834393
0,321123698001269
0,334095625125947
0,297526810482764
0,279903827222105
0,294704920813707
0,336997795416409
0,276561194234006
0,309665581282464
0,269647666221784
0,261367257738206
0,299097589234095
0,26429636011114
0,273617294147877
0,288969321701921
0,258827260982827
0,329283704972341
0,30853339948827
0,307572519108835
0,275923962618485
0,249340981446671
0,261120420017161
0,254118507846097
0,265859604510076
0,245782178278458
0,273851320482685
0,280879997773259
0,225016704566318
0,328651689679635
0,261651272053388
0,259743238691955
0,260982300338793
0,262099670470689
0,26096495303395
0,289716908383821
0,300222770149298
0,291803969266325
0,267026372409885
0,316586133216864
0,270615719256302
0,292114774015935
0,272941406907221
0,297025159615707
0,282371422816454
0,314638288785937
0,300437072925883
0,311744708910309
0,311955737982691
0,323339185702942
0,314886498115365
0,385032476601931
0,308696721833297
0,390174006326284
0,350226187941838
0,4149477468008
0,384445780140583
0,36999274739714
0,382682559062078
0,380687611926629
0,392563526084642
0,398245656564681
0,381969172970607
0,458673221318718
0,389038580809115
0,421123306406855
0,403807373804283
0,432961429231435
0,407042789362921
0,47072818595126
0,442590418046764
0,487733503432668
0,513182069831689
0,446426251141116
0,467166379770661
0,441436614048246
0,462358502174978
0,460829961580488
0,444959669220692
0,469918969313992
0,441764959647219
0,492192724293715
0,461179221563013
0,465322149600283
0,473623941329838
0,477466742979744
0,473715994684947
0,476752322570951
0,476899737771481
0,486224899530959
0,483563195531969
0,500743124959822
0,452250258677442
0,567460351853955
0,513058700539038
0,501374139663249
0,512771138211508
0,503570256337667
0,515621521830902
0,508872425432329
0,52841156144535
0,53729604503431
0,520322280764734
0,536569806133535
0,517646070371735
0,5461753710381
0,535603274874186
0,576105626981841
0,529257162843578
0,559836651189082
0,54294036238211
0,527503409961339
0,627664198792918
0,553745897193322
0,583268895864727
0,556807933836897
0,570993705377426
0,561131533638665
0,57213213794379
0,564959198616096
0,574508127658292
0,565785987743844
0,570284772289836
0,57031740485463
0,569728703569951
0,57289387424819
0,562618495325657
0,599598530232996
0,566739194496625
0,573384613005319
0,565032716688316
0,566406484919524
0,561333084256301
0,581033965306701
0,581830273773438
0,561015343768056
0,574075694352947
0,5596510752861
0,590245553464013
0,583183586501346
0,5586474310921
0,566418326214101
0,566239692070881
0,565796511687849
0,571224199402837
0,562477352179002
0,609013184217771
0,575770808367088
0,58086074143215
0,573999670970556
0,582447431319879
0,57989319179619
0,590307606118886
0,581078831552734
0,597339922854269
0,593507963989759
0,597283952776754
0,59519954335194
0,596001826965164
0,612891317748501
0,606878390876044
0,60916256758955
0,594588781767004
0,59130956222506
0,590607969474658
0,573790682102859
0,594899764776456
0,58490882095771
0,583182771439143
0,570964348952149
0,577701670087808
0,550931643101365
0,604825530506248
0,558517414909526
0,553399642849766
0,555356057385532
0,537796847536542
0,547251889776621
0,528663349888749
0,535615535578805
0,529829577632575
0,53323721370659
0,521226258018325
0,521100576522986
0,513674804646011
0,509618010587124
0,515926521488757
0,521363448683789
0,509940179822675
0,514414671769987
0,50967303266293
0,506735949593783
0,508674146753002
0,505842142870264
0,50922025478207
0,503971034148444
0,515124540287386
0,524097978937145
0,521248289700245
0,519874254127776
0,499500718870568
0,520164355483504
0,503522820750987
0,514559048470706
0,497087108637605
0,507797715006817
0,498173139082829
0,507008945474175
0,502682671195761
0,504205640863131
0,49982592542294
0,502922576206431
0,501839086293809
0,50692432702757
0,497529504996081
0,498879178800691
0,495864684886534
0,501904589943292
0,494820545249097
0,506696897238962
0,509005225722599
0,496043348813906
0,499256999899011
0,502289240294386
0,500614757043685
0,502970695316889
0,501435681701378
0,498521692693925
0,49204509142637
0,494756028540571
0,494700212067896
0,497003433708566
0,4953360321195
0,494543014595312
0,490238294119033
0,49050175672531
0,485297979511071
0,493096391546669
0,481589962476648
0,48163594440511
0,476372845715735
0,474132830646148
0,467928628554027
0,464826250817991
0,461092002241758
0,456956388827823
0,453586878656867
0,452606053336591
0,445365412661313
0,445787386100503
0,44215859452551
0,436010535374725
0,436544457934506
0,440154612312731
0,436472712089731
0,4321455461669
0,434838026220567
0,436191077636669
0,433908507752309
0,429743335267567
0,429511590488822
0,430693347995963
0,431762670392282
0,432420779388689
0,428695852639725
0,428376569629078
0,433402513692819
0,435694560437465
0,439590459004041
0,436795958750824
0,440830031984311
0,440935587051436
0,442593877953232
0,44498424952796
0,446949821605784
0,450523109078643
0,45090785976163
0,452713212752234
0,454134142490728
0,456157628967655
0,455690965526107
0,453869815875684
0,457142403612953
0,461064192173772
0,461179471243188
0,462366499236019
0,460690084557304
0,457745490187303
0,457264605381518
0,457660664519972
0,453273749569844
0,455625900717539
0,453082786719384
0,452066258791494
0,452970574477603
0,45108974120532
0,445955719698022
0,446074448206561
0,447818202240383
0,443666033330939
0,441091484541827
0,441074605587259
0,439294594004082
0,437109106895108
0,433092636130681
0,43508293406539
0,433279479764129
0,430029019430558
0,427934079938461
0,425815262181204
0,426997869635828
0,425309628736881
0,423343731892981
0,42318421309081
0,422033520857181
0,421056023752001
0,42058147170707
0,416468575225212
0,415407001662822
0,416104254610406
0,41260561735976
0,415048125684979
0,412739829369025
0,409552326195613
0,40847346280874
0,407318182944608
0,403281483822178
0,402313587073376
0,39813537340426
0,399787852632765
0,394886937581876
0,392779205168873
0,391031888787508
0,384822754138946
0,382779063980421
0,380142408136021
0,377437926070547
0,374204607540229
0,372764776677322
0,370985382918418
0,36868162437536
0,371693981262103
0,368730144671044
0,368538462619789
0,365764314735402
0,366295862524247
0,367215766457216
0,364842877276306
0,363388143201505
0,362541915371359
0,357503809445606
0,358107087271892
0,353822086589052
0,348422130867109
0,345113714487562
0,3418230401349
0,33585665462059
0,3336287293197
0,329122878753067
0,327601030370266
0,32523000500247
0,326221362764804
0,323521534992789
0,325696901701177
0,328968378258185
0,3317781266287
0,338572385646872
0,343398230572986
0,350900106785354
0,361269495860849
0,373039519976802
0,3844390901249
0,399354854201207
0,417840786556943
0,430566096124405
0,448156212284061
0,463494791928996
0,480572151819598
0,497240830494748
0,511073008159143
0,528596541355858
0,54939724010307
0,561564061115094
0,577899315372691
0,599908516330327
0,609879450716933
0,623196707850967
0,640942919903325
0,650489434246511
0,664980081436211
0,675477829736452
0,691244215401352
0,703236362135486
0,708350807392603
0,720947194867239
0,724916963619449
0,734451391484158
0,740896490536875
0,747602454435645
0,739805666360526
0,750771339605632
0,757607545256285
0,753594627363863
0,749850503082909
0,752268680226152
0,753345480946052
0,753401876713889
0,756378784626455
0,755928159260344
0,758802294213276
0,759759623622471
0,76590535619559
0,765491654545998
0,766078090881068
0,777724322963892
0,778409273179675
0,785724399193901
0,791769478190118
0,796255408669864
0,800742627037035
0,805715582707512
0,815234949701324
0,821327919543233
0,829617493710421
0,838394995712973
0,855125395700271
0,865691225381497
0,87728927807942
0,883441010984109
0,903579517579684
0,915472050388997
0,925618545072789
0,943182349122893
0,9516507489718
0,955410403581222
0,964796047158186
0,980463829962682
0,977600322102089
0,979559462625438
0,970889791509819
0,958652065716169
0,968343992184071
0,963122724363107
0,961443388275338
0,940904905702815
0,94974601602372
0,953309248924769
0,952356913253957
0,957102762840219
0,956691471994904
0,966448823460687
0,986047299132333
1,00650560344554
1,01617044679876
1,01975385893779
1,03171392114254
1,04243097915225
1,06039118014092
1,09963727949572
1,08471535185763
1,10542282857601
1,1406201650347
1,17423770923756
1,18045935887796
1,1723340747039
1,18635253488659
1,20741046450113
1,22207492861963
1,26028893804811
1,27620392956474
1,30660203669457
1,29873486983021
1,32832976409694
1,35983027748751
1,38351099138918
1,41324737924423
1,41461812179681
1,44829280523725
1,47660732357576
1,48665408128901
1,51411285444598
1,49174415836016
1,52717877667262
1,57170114657909
1,55693983876739
1,58960951545489
1,61162656591656
1,61899959460917
1,60147630375362
1,59039511842301
1,57197535296779
1,55382260933341
1,62812607113274
1,61151776188667
1,57174808182473
1,55320039990199
1,53253274278153
1,57855877650355
1,58396002776327
1,53137806420906
1,59074170270568
1,56747583470171
1,55768970747271
1,59217824255906
1,60449003681649
1,59725951943688
1,63137621164563
1,6055047182592
1,60610812099919
1,59432580236679
1,70096800166672
1,68823948552547
1,67366526294201
1,75372907973675
1,6404579033038
1,64482011234746
1,71104957496796
1,77245937308899
1,75734874425113
1,72525183778548
1,7874515814197
1,84164294280763
1,8462196769629
1,78229530742199
1,74989282625309
1,81236607764416
1,90010400347579
1,87416107295358
1,81083427609174
1,79601315585804
1,84965708917757
1,84458234953805
1,81813424233205
1,80843733725195
1,85106405868658
1,78513811005814
1,83512428630352
1,78038499853326
1,77728156150068
1,7985442608852
1,75742605079476
1,70898257489491
1,73883960123542
1,67740416250116
1,63420157244859
1,6877798608689
1,65618895690725
1,577059782861
1,54486344782315
1,49089327152583
1,43992611565334
1,37881968430356
1,33777086367267
1,29060996613568
1,27065873164802
1,21232687268865
1,16835622287514
1,14131025828774
1,11991556915609
1,07358883193585
1,08002133722938
1,07578678082063
1,04204482192401
1,02663348472886
1,03672349882025
1,02642989710632
1,02011906925468
1,01397688432122
1,00899953872629
1,00046729371654
0,984728000338539
0,971642074203272
0,956038991541466
0,931707830472594
0,93304194445556
0,907003298243348
0,881066703792153
0,857700605561569
0,842174804013706
0,822989102799283
0,800452056571953
0,773455558375288
0,743794382289051
0,713119940987244
0,705585152075194
0,678259822671545
0,639239334892747
0,613314756091859
0,589408837965455
0,557488034411452
0,539101432581687
0,517403825149899
0,494437505496777
0,476258861823507
0,456997217649259
0,442049498934091
0,43083029448646
0,415784657842174
0,406585856516211
0,396254425080469
0,38763483527401
0,381274829888212
0,376941142500487
0,372280814021937
0,36544985544714
0,363337523239096
0,360307627472689
0,365662708308476
0,359202374588414
0,356111488904691
0,357063868077087
0,359283150927764
0,35902568100008
0,357969623895759
0,360966794807859
0,364816691226148
0,376638430829256
0,376158401071822
0,370200937337811
0,367984699316338
0,370639690637213
0,370301376954
0,36612571392235
0,364541817838789
0,361647943683148
0,361377920869683
0,359979578278286
0,360873787587378
0,358069733078841
0,358529027997404
0,356953333775495
0,351123678636293
0,351056198632269
0,35398951771445
0,354484937194691
0,343597278947191
0,354220291612189
0,353649636685202
0,357259128859782
0,359815751748488
0,360291556879437
0,365836909325863
0,368375099574937
0,36460583587832
0,375124849813369
0,376126725315114
0,375793425349202
0,382808662285456
0,382916521898538
0,381321601049062
0,385405420144925
0,393120013675498
0,3978016117412
0,392169166144715
0,388791431057595
0,389339646160979
0,397286250482206
0,401749864424735
0,394065429699959
0,393876091246681
0,40007219134522
0,406606390116884
0,413706950275331
0,414122510935366
0,422936973225071
0,436695423143321
0,437063453439015
0,443978633795395
0,461069565390865
0,46641163812604
0,483188639649126
0,490100113179406
0,510044518665674
0,518962197639834
0,521663498759692
0,536011888212724
0,542954214283053
0,532317592571806
0,535797064087997
0,526977034329217
0,522046236998485
0,510442024114762
0,501497006187147
0,497060931861661
0,490511076054823
0,485618564411665
0,486114440472946
0,482175428277977
0,489218252129217
0,482566900331684
0,482524444652131
0,488927653499027
0,483162491208795
0,483728441053942
0,492439700850849
0,481042525467989
0,48048269977888
0,482164986095012
0,475469628008278
0,472342904134643
0,478649221532874
0,476014141852078
0,459896178483106
0,44705672003761
0,457479100962684
0,456313429521239
0,450083169788829
0,449347030308154
0,446266363142996
0,447066302098369
0,447755401799721
0,441786654531876
0,443433380893747
0,4357651576265
0,433005129343379
0,434508232972237
0,431785218075004
0,433019115078514
0,431526933423095
0,43123796384712
0,42683187284058
0,426535982584493
0,435496601489326
0,430584304900683
0,432528355137063
0,429839427633563
0,42186558242968
0,423310177670779
0,425754987718061
0,416311821342059
0,428113569866312
0,427830188415023
0,414337338470438
0,422742276266118
0,423398737700673
0,417223763986863
0,429440045897278
0,415499617142044
0,4095450336204
0,422667956137588
0,418254189124663
0,405726628671361
0,41979629239406
0,422857526874149
0,417058648047233
0,420583351228321
0,413906136966068
0,415426703326232
0,42459995858809
0,429353544584219
0,430519194194447
0,422925947490543
0,434710786660501
0,435231131545212
0,432814265692448
0,437853455880296
0,439896062051574
0,436536077018321
0,446271764633741
0,432741432882365
0,436838439250118
0,44655394103383
0,448234923217506
0,44123861749284
0,455817409227513
0,469120847075562
0,464134111591377
0,47704920168197
0,466664286919273
0,461490907071615
0,476361222094099
0,487311356010978
0,503916488531441
0,498111716600323
0,511643124599447
0,524773874337993
0,516376113297985
0,526843177209995
0,533277908937466
0,53318205750399
0,560208890524192
0,600101645728414
0,607389351418602
0,595565396715546
0,593170776667108
0,612935166316388
0,635085575299575
0,645317373105566
0,663015363955161
0,696952912893995
0,667734055025902
0,67082716304224
0,709101939228412
0,720478905028838
0,719962332987641
0,68255770551708
0,684083146911307
0,759672034945963
0,696858184463604
0,695453692640982
0,709417514007228
0,675988678851545
0,707527786510299
0,710684023706817
0,68235046167164
0,705218045449767
0,704251332158804
0,679184216807655
0,724854876320321
0,684872987429984
0,657254262730138
0,677828873142702
0,663192938523492
0,660223014174641
0,69063592441623
0,670645690725683
0,674935223557775
0,687598325213023
0,666657525934515
0,680778852205333
0,682118949214775
0,65967701567198
0,649321304244306
0,671303903556325
0,679086610607866
0,65883870196695
0,652005526384963
0,632622973350818
0,626183573143628
0,645239811843243
0,617707905561749
0,614236955120233
0,628788861390066
0,689743082721082
0,704345814617227
0,706292209492904
0,62805760571758
0,657364173513627
0,63217299589955
0,652588882181588
0,69295794615451
0,68827941027029
0,693445746882123
0,658608817346076
0,701079232476698
0,706507293323283
0,654869390212051
0,714076882967788
0,710939026701099
0,725732291421724
0,685526363611587
0,687266629774933
0,674263188090429
0,662041516688463
0,709492926479073
0,711494115588606
0,692300088672
0,716658741084458
0,752324164798668
0,765842603689146
0,698661176573417
0,73935574226255
0,788090406957847
0,786589958445978
0,758192713791085
0,716413837731583
0,762340893217645
0,797211745628984
0,792846243092873
0,856129947575839
0,744953993756419
0,802705770461355
0,781769622170906
0,822655199471505
0,816441225480833
0,802152083493855
0,948052969440175
0,922559707268614
0,87720124122068
0,992336047006119
0,898649196835565
0,957803326629313
0,991886622312548
1,10604194738146
0,791083160876615
0,763441805731193
0,941137500803179
1,04036087099148
0,765103000119247
0,892855961941237
0,810309130359785
0,776904584569769
0,819100584432719
0,742548809320478
0,745522581089757
0,937676273283077
0,86550501075165
0,790562329674739
0,758846141903918
0,867785789891513
0,845583699366437
0,832290898369178
0,878237386734733
0,771344272669079
0,828417629612823
0,8522593817509
0,823155396507828
1,02546957063738
1,02288030093467
0,652050047807843
0,794150715459479
1,12343564568083
0,844606963627641
0,886186703046973
0,649074965014911
0,920553239684229
1,03263186753953
1,23684271577978
0,54748833461995
0,648733601935824
0,796368789417091
0,962516439971987
0,726729216159315
0,831557447065351
0,803143187261978
0,695742999675285
0,950091127103563
0,785651661282229
0,920451155675589
1,44943621009218
1,66078146228505
0,771604774195495
0,893861108459171
1,150864698071
0,626186207121229
0,616765156186321
0,697228427278171
0,80715950615058
