3596
4000,36533379555
650,420452594757
1
2
2
0,0804226952641034
0,0835756006963619
0,0862669557718892
0,0760038538490309
0,0863193289890497
0,0774162260753498
0,0756952520092213
0,0753150058908283
0,0798204986278162
0,072482413572566
0,0860547571910642
0,0750306552547986
0,0750497245363013
0,0799150480215394
0,0765538426502443
0,0724436735071891
0,0766782430497304
0,0773148047142057
0,0821479491127251
0,0736266237453786
0,0830590086684051
0,0765564210112722
0,0783851592099312
0,0796535261284799
0,0773546645465737
0,0736956191675233
0,0845628742123437
0,0751832141952395
0,076475919349995
0,0752665579634539
0,0767960873683267
0,0776852591013094
0,081187180510244
0,0800684965516608
0,0769370763974935
0,064814503009402
0,0803459962168906
0,0824924622330146
0,081987204484469
0,0751353932463612
0,0790974325843145
0,0675442071983934
0,0768888153338385
0,0727752101673193
0,0873338514914398
0,0891649532135826
0,0827454002655536
0,0742549230052012
0,0810541690731614
0,077021359148832
0,0764047619191603
0,0678990394673728
0,0861622277484482
0,0840754835236792
0,089619590243634
0,0910981112926573
0,0914284021246341
0,072759401524463
0,0809203265682823
0,0805971465502855
0,100754394651143
0,0897755415393932
0,0785792026990683
0,0719648485430372
0,0818928697928323
0,0736202330512667
0,0840275762120954
0,0721457486711219
0,0723429649497088
0,0703335289264521
0,0795981616929304
0,0854918181566818
0,0959553463941736
0,0788892109745143
0,0826996902729875
0,075184469612838
0,0745953867889063
0,0681352228201001
0,0732195906431576
0,0812925756469401
0,0906382405709684
0,0836322257074273
0,084322447147013
0,0644209081400097
0,0815919703591064
0,0883892844664919
0,0769779735061502
0,0727993497367641
0,0876865026918762
0,084208769419738
0,0819679129482263
0,0698985369338767
0,0745711980419489
0,0690936275150654
0,076647910708272
0,0728966672416058
0,0782903603929946
0,0788811400597318
0,0701312546373362
0,0778418679412751
0,0703362728361044
0,0983725265973531
0,103577267973423
0,0863308145990019
0,106967408189858
0,0809740471044882
0,0799841215737805
0,0941704475289327
0,0996245368546322
0,0685638652357201
0,074251521572197
0,0622590800839771
0,0779219652628071
0,0759630642240519
0,071429557810676
0,0935587140952975
0,101683352525723
0,0779993792753869
0,0783754797675018
0,0698957630712742
0,0637507828071431
0,102904529898001
0,104912022710574
0,0836382313075239
0,0838464036763512
0,0690074830183213
0,0667366184012538
0,10868846608739
0,0980338079004002
0,0761101170934469
0,0689663172636668
0,0768532559216156
0,0701814184906086
0,0830671127267273
0,105155824162666
0,0840759620060392
0,0762428632915053
0,0616441340469943
0,0992446041034501
0,109891828276834
0,0914620083007906
0,0781575293579924
0,0672274831650511
0,0826199266231135
0,105034001469277
0,0759313771686859
0,0809264206546969
0,0973998514642944
0,0845993889590637
0,0773720702148558
0,071385097649238
0,073427932904565
0,0935466821447132
0,0816473760667315
0,0503471644122943
0,117228494032157
0,0908207483903285
0,108571467105195
0,108420051800475
0,0868940272561555
0,0813770148468558
0,0799007154719524
0,0718873051245684
0,0669696762693624
0,0721888208692455
0,0593639702891525
0,0926776575102965
0,090670446471649
0,0756138744173257
0,0702571283002063
0,111634358110647
0,0783880353709934
0,0775360500536601
0,114056699364817
0,0821631400742971
0,0728344422385244
0,106293840383939
0,0859671346379931
0,0622198807898678
0,0841269909198457
0,0919249393148871
0,0820624418318322
0,0788299071340212
0,0743235092537466
0,0774166784785459
0,0933203147076004
0,0797096864907568
0,0767483432142602
0,0672626884898491
0,0672369119791508
0,0914988158434453
0,128048848497436
0,103018532897606
0,0854017685059426
0,0641377287116383
0,0548803622687745
0,104516629459972
0,0930740696253173
0,0816448041925096
0,0654351504280874
0,0745481111110252
0,0800234957026646
0,0702255327938616
0,0751530720104423
0,0638626801075606
0,0665110731496432
0,106518215188694
0,0955555271051629
0,0736045505602308
0,0674053711078962
0,0755372741689945
0,06039410498312
0,115214787396996
0,0948096637900887
0,0912601137414879
0,0624093588436141
0,0764703562699074
0,0938612803635797
0,088031018246202
0,0723299543096577
0,0796591576101318
0,0746870935985063
0,0727081508942354
0,0700475856579572
0,0727989038712301
0,0735194560916472
0,0767350056522852
0,0693306901038229
0,0751809723981379
0,0750033011342712
0,0908390577980568
0,074173419113995
0,0784614270221564
0,0698712365689448
0,0642555407503354
0,0854090050160646
0,0882859469674696
0,0801892213649709
0,0740609845863356
0,0663642546525424
0,0692488501151976
0,0747432981024003
0,0694462923173816
0,0758497974806424
0,064363162258649
0,070120397462569
0,0990182982335236
0,0847646251220418
0,0813833686598435
0,0649939725018139
0,0957561068119862
0,0857035238628227
0,0797608494738453
0,0684749425199982
0,0850200510223388
0,0742067722914151
0,0921988903217086
0,0992498654729419
0,0926777195682353
0,0739014178683127
0,0951463499182641
0,0691885748804793
0,0851095400840413
0,0614768885250982
0,0937246163083188
0,143004421855873
0,0952275378458106
0,0771162010264679
0,130279807615645
0,0963780402422393
0,0996345182706786
0,0656146774634586
0,0719357327951385
0,141541478778165
0,147145685257232
0,084518706972216
0,0930935935134522
0,0949468583613118
0,0853374756778173
0,0846895176378445
0,0858460779476132
0,107391834050129
0,113820747856204
0,149233163266009
0,120255112586837
0,0779169655822269
0,12206365810487
0,100422962234202
0,0984702513564769
0,0857545168069527
0,0936587120197469
0,0861050674480258
0,112419142789612
0,093388130061061
0,116092003859738
0,0822105347907317
0,108330655274878
0,103793710314568
0,11055500910491
0,0808311064413727
0,111827797693562
0,104510667775179
0,101569195943526
0,0868789239292095
0,102313239844217
0,103061418431438
0,0955709699240368
0,103100726235521
0,150053205177957
0,109704370115293
0,125354253536201
0,125787118635269
0,116155007094142
0,0954766320210393
0,11400273328265
0,102643532643425
0,119221499903729
0,095461850398616
0,113935539013022
0,136313463576573
0,122315818729587
0,113158551739206
0,122074431322506
0,118868676422922
0,117368171220031
0,11986592700302
0,127428855104391
0,124791463554255
0,132113674983734
0,113949047582827
0,157987525978229
0,152532488958566
0,138437607741093
0,180857105355595
0,173320857886746
0,155825137324951
0,146853198278737
0,151040372817046
0,160001074484373
0,149395480365499
0,162629091951493
0,158723751578759
0,178166127262432
0,185944637419329
0,168292611035183
0,171185523794455
0,188749737040774
0,222014631450369
0,24336548373932
0,214297902775775
0,194286021246062
0,172100787552546
0,247469488412178
0,208804661725672
0,25156707703492
0,224923049030301
0,232791391590594
0,216672506273693
0,231263067606726
0,224515811189662
0,235328136797941
0,239349385563802
0,250906642384383
0,24308354217738
0,257476168302649
0,266985028993751
0,257118481475839
0,275308653763575
0,311086509572704
0,287518662059442
0,289584435324651
0,282435804059629
0,293403341605541
0,326820909683432
0,329946403551921
0,357477377096853
0,338801378514126
0,361652876450628
0,368331811956382
0,342829801085204
0,332402337880828
0,334388397896836
0,35024329360334
0,351163621938962
0,3613345114685
0,358213192421978
0,368646185445148
0,379391290106727
0,386291635205533
0,379565653556186
0,387657102937643
0,392948137956465
0,416095685947269
0,399477638901483
0,405536922452306
0,398373768626431
0,455518918959493
0,47266833564459
0,499400191208204
0,42291824703166
0,448204302469101
0,42101019678995
0,449851783531955
0,433982108227399
0,453804582700244
0,438931754594657
0,475563145306338
0,501833183035663
0,488376524403722
0,506966234818416
0,487459322029239
0,467401648031347
0,505192004155553
0,48458517327578
0,519232359586491
0,521294609820577
0,533504331764571
0,48267641437561
0,542408167053019
0,518714348079035
0,549619102681462
0,521339812710554
0,544181110401319
0,511403715154105
0,529072559525972
0,538593122360277
0,553857822832971
0,58174448196853
0,591420074596389
0,568034196326652
0,593074067464883
0,571396248605083
0,576586391415228
0,567739221697549
0,62170500406431
0,587518163081027
0,5989839531874
0,592385736497717
0,62065396892166
0,576329068477524
0,699477680499756
0,636838634068768
0,687560092630778
0,610861898309716
0,635429908822534
0,611639276023419
0,65433330291901
0,630344997667594
0,67444380057376
0,66476995562898
0,684125699687066
0,632142799157576
0,67089148626236
0,651112342930011
0,680199964353427
0,690624685013423
0,700357732651281
0,672115474914714
0,714633007644236
0,661929403648765
0,713269113757658
0,686973159280688
0,775436611992881
0,734611108221703
0,798629046454914
0,702898376340988
0,773127505004697
0,729008957064023
0,779002345015118
0,733660085430486
0,758965215785004
0,773429849647366
0,79778757063802
0,770850162000584
0,807944603035025
0,7728780732098
0,830602277812891
0,771469488789055
0,797805646731726
0,795195598652973
0,836156208123369
0,778589215025237
0,836142409281293
0,805783214928969
0,859652407971498
0,797574341559715
0,849757581079926
0,851182819857154
0,921634257687701
0,827235075244674
0,923364991693575
0,863422742061859
0,899238403883451
0,798987107537117
0,89373713233923
0,835165052043824
0,904739375751686
0,872065651204402
0,930721028135663
0,908316113746423
1,00480370147647
0,865682952940954
0,960704316658912
0,885006523027982
0,919927536498655
0,914303806907562
1,0251644755494
0,920155393477374
1,00415567627061
0,924052551541157
0,962709909678418
0,989288652750812
1,04020212801652
0,936431207316129
0,995012732194504
0,978040513884124
1,07210908340585
0,961748549930823
0,986740517016836
0,96789492196
1,07582392508047
0,934783005859095
1,254755588447
1,03980993682946
1,11996329756118
1,11125015195105
1,16550552820023
0,981100528254185
1,15437353652438
1,02179828155896
1,07041738449508
0,955855234653676
1,1155843059091
1,06039276162085
1,20534501022691
1,0962792244547
1,1748195975565
1,07622118963437
1,1344876490697
1,07778562314173
1,31184483615101
1,01978177908646
1,07480157070854
1,11069314593107
1,10484995986395
1,08705504758869
1,15786787290138
1,09330163880209
1,33611110172496
1,14501274208486
1,2740590622912
1,07950273499243
1,26804696733649
1,08788052984206
1,20186408286634
1,11615990710266
1,2713227073917
1,14713133130513
1,33048841571894
1,08803486375675
1,40053433702838
1,10491909970571
1,29093540151955
1,16742982726715
1,2376373694827
1,19059758045112
1,19708248681473
1,13896952505202
1,24236784494975
1,19966668132182
1,44917736740369
1,194733446824
1,50070804862979
1,2473030792147
1,57628337346735
1,18309208666585
1,45144699426358
1,22294149384125
1,27631576009242
1,17780717265942
1,59348463168745
1,30849103199329
1,44526164305008
1,29281810028905
1,40892024707433
1,25311185040137
1,47825253241292
1,22798035116
1,55694254553707
1,219436544419
1,50598085681994
1,34610733315054
1,51491508147529
1,2928722804556
1,48622946591123
1,34861681270595
1,56534885156737
1,34139196737139
1,6086523797649
1,3491489072357
1,47900660537638
1,35351025931744
1,24232791467371
1,39199783690338
1,50777532724761
1,42280035605688
1,62473912874923
1,39801281479352
1,54746830110487
1,40263674546729
1,68398957857841
1,41781317582971
1,60271942573594
1,45357450206015
1,59984518324122
1,47907693762309
1,76737651741234
1,42445153312809
1,70381529502773
1,55087706305281
1,75069631352039
1,34835287980223
1,64035852636112
1,41772807976395
1,55978595492503
1,39209457142174
2,15355004103926
1,43239480135979
1,59167287732039
1,53095356535912
1,71057503073184
1,42811089457534
1,64412006066427
1,42505181144298
1,88727831346101
1,62302001300708
1,84519949182259
1,50621434417602
1,90849483041845
1,70570050847911
1,60730019467861
1,49225329869565
1,76593012732825
1,6029758205866
1,69885133812728
1,55027705118851
1,89267399011615
1,49511744292824
2,41912848282281
1,64597976266077
1,50868161421656
1,47016113547227
1,69633189473074
1,6526483456344
1,89421408403077
1,56457349630315
2,39700278499306
1,62513792406672
1,77109121360289
1,54802547919501
2,11249008267354
1,68661074250009
1,84969159539729
1,48894229074816
1,73775582324439
1,53835808460609
2,71988610197101
1,50539696023359
2,18684517038124
1,52749430890316
2,53843670342142
1,55091981624366
1,48671677098679
1,63350604378973
1,58524615411456
1,71745016639924
1,64170903499453
1,64365554644686
1,8296481193893
1,5615536085531
1,7661340020758
1,57492475136635
1,7843238303098
1,52657863449828
1,56036461826031
1,46863854581652
5
1,72290971948888
2,32246274329754
1,74352377368148
2,2876693533181
1,85260675100844
2,20948993888579
1,68125617507437
2,46955393361417
1,49721121908157
1,69328399647277
1,56046905794636
1,78947965588731
1,79569959195009
1,86399479671594
1,63710694249637
1,82585772135408
1,70367631631224
1,72404478937141
1,61052808631542
1,93359913559552
1,55333015908387
1,96779934675229
1,53539395065463
2,0988682489565
1,70948721788146
2,01119549590306
1,85671255542006
1,85719039206101
1,77675585051464
2,14520099062385
1,58555873117959
2,03926617651115
1,59373745813452
1,61512337234636
1,72372604170593
2,02615417456244
2,02058325723324
1,73619167424597
1,6192212926035
1,81848375385524
1,783074600947
2,11361578073562
1,67486308292775
1,90649311339613
1,47902948810916
2,1488482334589
1,62572441118481
1,77844452352342
1,53394972213542
1,8875651227894
1,5584615314393
1,7202431765155
1,94533667169022
1,7219685502037
1,89508797925728
1,74512651542962
1,83005333969388
1,7993050778134
1,6304076103001
2,07707631400951
1,63348043254616
1,82541580678058
1,91682917490342
1,76595822046671
1,78701364653279
1,88591993256132
1,55728351994597
1,90520230013183
1,56918386496059
2,01727213671917
1,83039936767581
2,00989847066777
1,89983879209929
2,44524025701494
1,61705401211537
2,04058110680934
1,58110546469033
1,77287087012879
1,51651661670864
1,82316108325369
1,65663650466644
2,13973491435905
1,82246217613882
2,0439753596037
1,79102235406503
2,32236062603721
1,6332436223716
1,97928588869557
1,53700391945603
1,91369698341489
1,80640775777407
2,16471147963602
1,69897608395671
1,70541684392898
1,78564466754636
1,74517441619715
1,82740092505191
1,96469567833903
1,54089157403758
1,88339358624972
1,54609982591195
1,72230368909857
1,64619390821014
1,84824579154742
1,81032532796143
1,86063930746307
1,65253597911597
1,76629375120135
1,56203145662424
2,21042346834447
1,85633568983887
1,83193870115593
1,47796992482364
1,86151167583031
1,85382346443564
1,63119684720542
1,80527670301846
2,0592680924022
1,52145382779487
1,93850474290661
1,66176056924927
2,24285914685033
1,71417131687762
1,90313746370165
1,65463455694191
1,71679085384801
1,53109891681249
1,70201239404297
1,76912141940622
1,72925715737356
1,59979130159919
1,73491377078753
1,52881184147178
1,91574539914819
1,50251522468184
1,77582841691376
1,53588466832332
1,81577968573518
1,64397190763346
1,90522544232984
1,66740340109861
2,07671304093608
1,77183578399079
1,69553714150377
1,64067381176171
1,63133939268061
1,65350654312848
2,68272423405067
1,57994877655911
1,97470020304454
1,54983514404283
1,76997619308009
1,703445771098
1,58915850607146
1,5187607005975
1,87850718712548
1,64790980098541
1,96266583107341
1,68348289390909
1,75944947445575
1,61377371040473
1,7319490119801
1,55540907344873
1,61166786836909
1,591555543661
1,80120588260786
1,55361495627094
1,67431650938673
1,5751692385289
2,07153390657529
1,53090079453261
1,5847232086066
1,62397744925692
1,72680016982744
1,50122267524299
1,67526789598546
1,53251428024959
1,61912958573867
1,59374974600255
1,73581181631194
1,59728947008659
1,5040245513329
1,54221909229896
1,60624181929967
1,52616945922135
1,62682551295216
1,65455913005399
1,52236610921108
1,41792438675238
1,54818721095027
1,53332790115336
1,53857328503654
1,4654180531197
1,58376434973201
1,4478066062382
1,59972287657568
1,38728272841518
1,49431883099146
1,51790701690223
1,43873467664166
1,34141128162555
1,49323095030923
1,41138480499726
1,63707123831148
1,39437716567778
1,52871293625596
1,3795682028401
1,41358723036914
1,37194087224415
1,3395243588107
1,34638456989583
1,40032777825612
1,39683349576663
1,45403871699032
1,37092543171437
1,39903178624907
1,38800500134118
1,40394565089999
1,31297160187381
1,32373173130896
1,30062921766296
1,38834012899733
1,29349052322271
1,34230683996704
1,23549259000848
1,33366687690408
1,27780999896526
1,38036428034899
1,22452495680282
1,28446709173349
1,2297162664091
1,24837096470809
1,27898815590105
1,2618323067314
1,20187175992409
1,28932643463547
1,19061462668526
1,30619175768217
1,18678151416595
1,26265660456641
1,16387388789372
1,18966367719309
1,18830870290389
1,20351537160198
1,2046357731442
1,16456533706158
1,10955192870056
1,16746714924789
1,12609348774313
1,17122313450685
1,13878623170062
1,08300570765967
1,07329912836154
1,17180559233329
1,10491119234668
1,08944249394772
1,10285531115655
1,11172111247723
1,09666008955464
1,071557043469
1,04528452871761
1,03321149941009
1,03036436523213
1,06601993771601
1,02725478559277
0,993185496052701
1,00514165686022
1,0291577083155
1,02215257337723
1,00102952839249
0,969598269550577
1,00970887796227
0,990760751112999
0,991819832262798
0,980969032906135
1,00306992171629
0,928795498007545
0,964644229011492
0,955243592948302
0,973613649548969
0,939046360132933
0,977583891271166
0,955185151790584
0,930903088915034
0,923321039747477
0,96100439825957
0,908984895669076
0,913843820251598
0,857903680043911
0,894336422862411
0,885968726995976
0,904122425359787
0,866399336161431
0,892420183934806
0,854114123766372
0,867373566868325
0,847916306724195
0,863077348993558
0,850572691486962
0,847514476495372
0,80703007245411
0,817538683085511
0,820733145351409
0,840929529976462
0,80398603773537
0,818227821770808
0,792314740765495
0,803322025395798
0,796432972272308
0,805429643528415
0,764843507091235
0,793101314624836
0,765104407809771
0,767055104843102
0,76893513104631
0,776635090449912
0,740616466448523
0,753140181611416
0,749875234929685
0,740335623166934
0,735064756281267
0,732151397499503
0,719747745192246
0,730474764051888
0,698848371025828
0,729304404898073
0,710069938763045
0,72019943964943
0,693227355115782
0,699578953576663
0,672257024070874
0,680454255591415
0,670650684278803
0,691672680626189
0,687523762393992
0,672169020094761
0,662372710201024
0,674233458169121
0,649383381879373
0,640358858320338
0,651180526891858
0,651569394633628
0,640222069623188
0,651869900312787
0,620225847130881
0,62263431575374
0,62232021064436
0,623395218674066
0,602671876412393
0,616284992888831
0,60371980267874
0,618367344618977
0,600285651985982
0,598062281083853
0,586681902224931
0,591251816345852
0,575317438864615
0,586632403692934
0,57025454381798
0,577704360811345
0,562750602761628
0,565746786008518
0,556727987069169
0,557935953625647
0,549318752451759
0,554215373583823
0,543761945215057
0,549418522526725
0,54136484394644
0,540140784573164
0,534054054118047
0,527128687210126
0,52363324502197
0,532465474007813
0,51867193659546
0,523302155562682
0,503893284250409
0,520134898170102
0,518525924300349
0,515784775182169
0,51117280012732
0,497070069083682
0,499269001682268
0,502092534511317
0,492283806792434
0,484643391552159
0,48244621494553
0,480811390735184
0,474735515114318
0,486283085452415
0,470926697578315
0,481680282884355
0,460690311665794
0,465472162266695
0,466171833031248
0,461819830489915
0,460526915851757
0,465292340651517
0,453530024252973
0,455824926147612
0,449308953562384
0,466395537373197
0,446772167395675
0,450662975337738
0,446065541472669
0,448281371265438
0,43837495789272
0,437071069097035
0,442013257899801
0,44716342733314
0,428920658021069
0,432381469587564
0,435002221800563
0,439143397675749
0,432403944208751
0,432252427111809
0,426543752265713
0,426648877868293
0,419346914024378
0,423343307934861
0,410585948123594
0,418842316231578
0,41664054400611
0,430027600139316
0,414830723262987
0,420690203225581
0,408081361726136
0,420894786671628
0,408333339578507
0,405881564709057
0,40225784951326
0,415018080481938
0,403151255767124
0,400383972221373
0,401659352554944
0,408699738915259
0,397775239533251
0,398455616952604
0,389422175286833
0,395573520776405
0,39343210486771
0,397986866558448
0,400276115026399
0,398633795163167
0,393428925959754
0,385671346925247
0,394902889810904
0,401635511474571
0,394081080267028
0,39366079251163
0,38725478950891
0,393515256792453
0,38579552339883
0,389236422555289
0,381089302612071
0,388361839339912
0,381054617109958
0,38955716249924
0,377515988049445
0,376526403928161
0,377758552211876
0,381804048415606
0,370109298591878
0,375695015105521
0,363617745120499
0,367881408175292
0,358982001609993
0,37086299211703
0,370207562655092
0,369808443878384
0,358461359077635
0,356254205991
0,35993840307935
0,359633584191309
0,3487743000206
0,358351644722523
0,35686947365498
0,350295381014033
0,348276217528317
0,350870564813036
0,344616026350921
0,348293821975923
0,341772403472289
0,336356026963612
0,342667247580457
0,341680164451613
0,334403981705471
0,338158055968122
0,335787476784518
0,334015727099404
0,323563153671103
0,336332080000312
0,333709405609688
0,339597575221823
0,3284440317849
0,330917837864872
0,329066990898215
0,33034082179927
0,325298823956127
0,330199702036379
0,320398845803888
0,329429306610539
0,325858620824136
0,320921770409593
0,321110406374852
0,325922232754143
0,315920018692579
0,319912483053758
0,31046707730937
0,320604492927617
0,31292452919488
0,313003504561345
0,310233643094541
0,317815729245845
0,30991355550367
0,309698259430773
0,312082541800235
0,311011346506468
0,304073793885036
0,307402271947122
0,301163112723547
0,298773518371052
0,297230157888034
0,2971684182455
0,291036066817919
0,291960680652291
0,292405985011773
0,296023185736552
0,285570507832386
0,28584277587384
0,287215020671126
0,286527457995832
0,282855327507399
0,281028459019414
0,27977432509518
0,278197078836007
0,267561561871731
0,273044595578288
0,264314179848041
0,264372796485357
0,273182476352143
0,267137557793028
0,258722057330468
0,258899851725814
0,255156318510239
0,26130513395638
0,257004665539969
0,254550648506435
0,253769838807246
0,250570566232278
0,239443942349986
0,247842715680022
0,243839276832755
0,246886961316159
0,241727226756291
0,242586764169534
0,235990838825471
0,241091722075215
0,236347619919776
0,23249970731003
0,232359372543351
0,233749488289212
0,232798118499711
0,231738696129628
0,222538294466372
0,22818300008975
0,231929561060762
0,224909340365543
0,222331705211262
0,225934270296163
0,218908089938418
0,220109893710795
0,220233623967126
0,221981430452635
0,213293721752053
0,21547974723318
0,215940882371586
0,213866700082588
0,209125244370606
0,211052752025538
0,206335107934277
0,208619112100957
0,208173436837425
0,205490206579072
0,20563157878214
0,203935706081333
0,199878913778315
0,203234080091271
0,202101091053502
0,198953212175194
0,194888769482323
0,199128458313846
0,198317335692451
0,199843570727725
0,197739018314415
0,195845018870995
0,19356569953794
0,197054057898252
0,192227271756158
0,196033775327462
0,191822962997435
0,186692999973592
0,18811192698511
0,18622711388679
0,189192075947708
0,187388753962758
0,184439543185848
0,183897814991441
0,184354073874774
0,188272514104132
0,181452294388561
0,183822407280393
0,181541375455328
0,178154995421131
0,174162056539637
0,176042045193033
0,17484147516277
0,179605162879181
0,173990623484065
0,180354319285776
0,174000244683296
0,176599858014353
0,169989003278981
0,169568523001237
0,172222386392492
0,170594226789785
0,169510144641937
0,171130081679694
0,169409382565953
0,169148459266202
0,164766716789237
0,16623159553705
0,168693922042046
0,165286168842006
0,162921736486897
0,165224825837208
0,162511783872838
0,165159879806616
0,163753814083011
0,163132936668367
0,161296664554989
0,162830119931353
0,162514664785589
0,162696366527308
0,157674104398046
0,157121228977592
0,159138649900676
0,15807160311865
0,154594569545301
0,154789657807628
0,159949351534016
0,154284653953863
0,152511752636917
0,154249253879695
0,151484359457425
0,153370412022871
0,152903521862046
0,152981976378999
0,153392077875887
0,15718670468188
0,154291978878751
0,153948056068588
0,149389663742318
0,147569357286199
0,152317124885683
0,151257245917509
0,149418640843035
0,147376668393041
0,149897382631604
0,150609012982289
0,146502717466569
0,144751663499534
0,145597810152953
0,14529125057098
0,143661801114439
0,14804989000026
0,145081820025389
0,145228849150742
0,147388103928078
0,14634550356554
0,145891223180189
0,142468728694681
0,140646678424791
0,141275679253117
0,142805410893725
0,142737796599072
0,144541848100032
0,140783271875484
0,142450494212421
0,139993773443624
0,136559019529772
0,138074654601762
0,140202190776769
0,139807481612956
0,137252129472453
0,13581422420511
0,13874037766888
0,136205934837557
0,1369803265637
0,138331723222405
0,140260804101385
0,135288107551516
0,135686054339829
0,135753895328238
0,13462324567342
0,135368004898478
0,131584150659895
0,131971763782262
0,130706869022451
0,13237183686631
0,130242124647175
0,132920697813736
0,129921279774325
0,129588338694671
0,130362516008678
0,128116802973253
0,130111218363791
0,126126428748117
0,130305985828952
0,128688101606258
0,126588747971171
0,12798726514646
0,125699146625909
0,124710984320473
0,126215857160703
0,128083540695273
0,127338178616702
0,124204982116892
0,126618408650235
0,124705963800291
0,123173580588734
0,123304884431101
0,12046211100432
0,121989572007911
0,119118223542232
0,118764571459828
0,120126061227067
0,121401106289299
0,119533167024578
0,123149503418773
0,120557870758109
0,116319778512208
0,120942016405689
0,12022723506911
0,118567778643641
0,116338814658588
0,116718111458315
0,117325364683163
0,119298642587997
0,118479570680002
0,118347243987316
0,114290772535617
0,117359783563935
0,116597191298649
0,116418149563744
0,11749357174622
0,111408198412673
0,113827673483244
0,114069176665127
0,112827367897134
0,113023266136785
0,111917752919508
0,110759668467931
0,111162184338812
0,111019543282687
0,112584076620651
0,11194493378471
0,107391749535859
0,108986111047719
0,10886807049578
0,109676989431617
0,10829063853782
0,10859812580138
0,110253459472569
0,109596879964615
0,106979291425876
0,10889722793876
0,109378568825105
0,106974135485894
0,104826931963594
0,102344969302068
0,103563004763042
0,106403411835471
0,106314099888342
0,106911307466573
0,105067021065781
0,105883470600275
0,105178362441035
0,100278393012291
0,104226184090768
0,106509726954261
0,105250181421748
0,103942642799411
0,103430972600655
0,103985178819732
0,102601170576751
0,102512669941599
0,103310165041691
0,104893974685591
0,102967457231918
0,100437696913955
0,101923379434214
0,103123035938801
0,103050742196446
0,103552176965411
0,100982837072593
0,104373273008095
0,101536330913009
0,101208004589732
0,10143361208473
0,103351830790527
0,100277135283689
0,0999889127993369
0,10146606560211
0,102093208710307
0,100530650473101
0,0991746935494914
0,0971906699840894
0,100952256447851
0,100374643045922
0,100229831008087
0,0971477157724028
0,100289992113351
0,10004629030275
0,10007683368747
0,0994835475633755
0,0992931527151176
0,100023419495073
0,0993837359435727
0,0972277360165753
0,10010551135441
0,0999410603048968
0,0994801749325638
0,100501809096765
0,098316865916863
0,0977220069900657
0,0977464860160249
0,0950925187980165
0,097980376877474
0,0976150805042995
0,0985071511106032
0,0984186659815049
0,101086554753788
0,0981546117770158
0,100817786131238
0,0992396961586526
0,0977671739969976
0,0947737332061522
0,095003819469009
0,0952462095046851
0,0958434724784903
0,0965186112902641
0,0986431671228254
0,097371461207478
0,0984553185392454
0,0948675018480825
0,0966726040627023
0,097510250389824
0,0979057390670617
0,0966994228371451
0,0989312712279334
0,0957655697878438
0,0979073263712712
0,0966912778079137
0,0972845592647643
0,0983191009738593
0,0985120629320856
0,0936681146870191
0,0973888861707972
0,0984530601905775
0,0979223065444518
0,0980860739396715
0,0986597118179042
0,0947377467907934
0,0961727331561161
0,096479925327779
0,0989618547340048
0,0964890896610559
0,0982425483721234
0,0995551507675842
0,096656621077057
0,0975291451897056
0,0997381465117158
0,097188200160741
0,0974626971237463
0,0940266305911465
0,0975573810738163
0,0963872586169627
0,0978368052920013
0,0946487243141129
0,0962110342990549
0,0983324167316329
0,0964000393288764
0,0943513107757171
0,0977333394364366
0,0961011755035669
0,0992475507021269
0,0947657349346874
0,0958610038050501
0,0973873194457923
0,0941890578973831
0,0932027970609409
0,097705468482288
0,0944228128184673
0,0947478239907965
0,0945917972038363
0,0959608500282756
0,0972924286689267
0,0978335377634056
0,0939240774089524
0,0957737227163291
0,0967087642553061
0,0974750482801275
0,0967098747295165
0,0956841527544365
0,0963150296533979
0,0998761665734761
0,0958802817858555
0,0972450849164096
0,097125655680414
0,0960720781544256
0,0973145600956165
0,0982201589110417
0,095810025952363
0,0986854308452396
0,0965474694896544
0,0977727120936828
0,0970659028908784
0,0991950381698696
0,0977499150376174
0,0992032442013323
0,0959925526595589
0,0982046711080766
0,0954392602686069
0,0979402620119424
0,0973235600130988
0,0980343443034442
0,098582337670446
0,0948239658475016
0,0956742502358063
0,100451008811223
0,0939671382515821
0,0975740647448671
0,0991428443285915
0,0964313910213293
0,0959888576772058
0,097649485866042
0,095796760920112
0,0980666350453814
0,0965937217493882
0,0974506924887602
0,0981270689471399
0,0988089434356896
0,0974229351547054
0,098717852387649
0,0936162717796894
0,0969954894887114
0,0970954373590885
0,09652230010234
0,0959149005404854
0,0996861747211378
0,0969091362879392
0,0971373474410897
0,0978305723947401
0,100218523186267
0,0972276318143172
0,0965731518423501
0,0921371097797827
0,0956683195630204
0,0949325655291015
0,0962665931836061
0,0965324054858469
0,0991037009086176
0,09887391303444
0,0994171915787036
0,0944120183977554
0,0973112179523064
0,0970862992241337
0,0966715559421035
0,0959054079132708
0,0990158027704666
0,0965813105710655
0,098024895265817
0,0967540589717666
0,101575511261986
0,096683590418125
0,0981129874754667
0,0978243163183268
0,0984986496984202
0,0981373670830476
0,0992580004803727
0,0991536796064558
0,103692639403583
0,0988982600610581
0,0998502307906161
0,0980613178419266
0,0989472738859827
0,0981582372939391
0,101096911474396
0,0991341468489576
0,102085820111525
0,0997289968224436
0,0990956796490804
0,097437616778883
0,100375943376063
0,099552804119037
0,0981236673564609
0,0975286391636317
0,100841045463177
0,0979833196680165
0,0998209261649518
0,0998621422979412
0,101367232548433
0,0987237377027612
0,102030571472742
0,0982474387231433
0,100322828957905
0,100642010474222
0,10261551495984
0,0999891627763115
0,100503540547722
0,100034822862084
0,100783788611563
0,101350542482677
0,105014090232645
0,0991039448576178
0,103692696549602
0,101065840856762
0,102342239812056
0,10146237785656
0,103574904148255
0,0994965970283207
0,101388509005352
0,100871838336774
0,103720108588535
0,103370806102226
0,103047346936083
0,098469838304291
0,100758071756372
0,0996293111401926
0,105007119270543
0,102536821941235
0,104003693927763
0,103827872033568
0,105909417636921
0,101255689880173
0,106437042699187
0,10437860159792
0,106199451962977
0,104935382922716
0,107842541291388
0,107266270879118
0,112885333927419
0,108256100919599
0,11201404424672
0,109997495034306
0,112127212550192
0,10832411166527
0,113519381779748
0,112006994060811
0,116445349468938
0,113532981451879
0,120819521288217
0,117886129423119
0,117590332108548
0,108720138804021
0,115190075592336
0,117892175584279
0,12135468508307
0,115024666739655
0,120657080685672
0,12066370109131
0,11557539804359
0,109465355798618
0,119707198608495
0,115398809817635
0,123776667131806
0,11718043033036
0,123927813935116
0,113594248431533
0,118328336884967
0,117136060728841
0,120169747779783
0,115620429507023
0,120358696411557
0,112048538618625
0,115613031573568
0,113117424036435
0,12025583145383
0,117607079812235
0,120283272686096
0,114182769282421
0,124347261558213
0,118997638295413
0,120109295231232
0,11427590673484
0,119457183763788
0,112390350170885
0,119914461505469
0,115408715019955
0,120945347278106
0,12072597840376
0,127187073725843
0,114614314614753
0,114767728223081
0,121515900333272
0,129038949807194
0,121543609450119
0,121046897368788
0,117610873749384
0,123179904494225
0,130566775277243
0,123743327529893
0,123183792449072
0,11951972413583
0,132653776984942
0,11769318671552
0,126147096070287
0,119948422138462
0,129257681522686
0,111192296674649
0,125393988698611
0,119649109751178
0,126260381615437
0,120936877794683
0,126659964349096
0,124857767617968
0,124117105142419
0,125476844268136
0,121075571412724
0,124324625620514
0,121100711098315
0,123366526651744
0,119076790838815
0,125182544441224
0,123420102502845
0,126077051293944
0,125140686803024
0,12459968272287
0,122993687013892
0,121530460799714
0,120947607132763
0,122834672568847
0,122160371028655
0,12506255550222
0,12083122239489
0,123185708799224
0,123774924799258
0,12298032599571
0,123631911977255
0,125571564035669
0,123073296792841
0,124884431595923
0,12426021955456
0,123730683459663
0,122025845077778
0,128164802612687
0,125630484946426
0,127169806461368
0,125400641447557
0,128481498049175
0,125966339077603
0,128956953333421
0,129301979339494
0,127326881036589
0,127693241713049
0,128468596096745
0,128158437910086
0,129017443993557
0,127630541368359
0,128982921430821
0,128277990071474
0,131432305239001
0,130317070936771
0,132830915206563
0,13097258740134
0,132268413090383
0,132088245528025
0,132494419376303
0,129908230782525
0,132345128740505
0,130445181852599
0,131953146586104
0,13292424629626
0,135100712087011
0,134840168742871
0,135060137968081
0,13076238402474
0,135244696008689
0,133638239841176
0,134053848167588
0,133217304650605
0,136807867264257
0,137888129059377
0,138461653513508
0,135271474595231
0,138513489968791
0,136203523039058
0,136232775019771
0,13609279059024
0,139426307691088
0,134065435972583
0,138773376678973
0,14060709906054
0,141375105621215
0,139715663170676
0,139061037862287
0,140867405115294
0,140002853277135
0,13774337556615
0,140938086155041
0,139478444453676
0,143381454860842
0,139715285657812
0,142260561033112
0,141615660823155
0,143544938945646
0,14200599163008
0,143717079529087
0,14203190615381
0,144935547237021
0,142446770785547
0,144592136081451
0,145011071983257
0,146384766167312
0,145248196744171
0,149598837530271
0,146734200476723
0,147430343450991
0,146014124128859
0,150071548341663
0,148242683051123
0,146876739145932
0,14477742025043
0,149668185353248
0,149408953160217
0,149126357039179
0,147887811626365
0,152659761311644
0,149278815335111
0,149507491309778
0,149274700165989
0,153233287914573
0,148745517104628
0,152768738663168
0,151410705354435
0,152376205306427
0,151469561022681
0,154024334563997
0,150938375469673
0,153716029906127
0,153106656101221
0,156874968453569
0,151906546840213
0,154798684369826
0,154019764188649
0,153840573434834
0,152333363491454
0,155532300965816
0,154958203392465
0,157877359110888
0,158448121158871
0,157350342939943
0,154354575595573
0,159688726088651
0,155263908020543
0,158457692659126
0,155859226595881
0,157941476305077
0,156756605259824
0,156009774060012
0,156626854450951
0,159585485306749
0,157147296543713
0,16231989115312
0,159108913340463
0,161447284933259
0,161536798133671
0,161707986107926
0,158872480819638
0,161467150773875
0,161532902597606
0,162988575211908
0,160387860906498
0,164274180890808
0,159666424370797
0,163569963840763
0,163560970901701
0,165592693953153
0,163108660491542
0,169134306977969
0,163871455716991
0,165746578328476
0,163932041640496
0,16553226619909
0,165283934405865
0,165710159602699
0,161695075178854
0,166878605309391
0,162211205354054
0,167611249768889
0,165234155749233
0,1664998825091
0,167087465839434
0,16943815366085
0,164334371426939
0,165684561523598
0,164227842396339
0,166192926199243
0,16522549586211
0,167328728681985
0,162893984099752
0,16859363764241
0,166181367373384
0,166309780726024
0,165498088646494
0,16959726577631
0,165771918199761
0,16790204375005
0,164008852212638
0,167524572253394
0,165740301416288
0,169231778171917
0,164181391214716
0,166112599475333
0,164200605115493
0,167608965204703
0,167770200822055
0,168204301040193
0,164563387667167
0,167457504598619
0,164498245828303
0,167151681240813
0,163622765936147
0,166223093099012
0,164356027575201
0,168231564244728
0,165845129868211
0,169886765063132
0,16554198706233
0,168048180402065
0,165978109574644
0,168599445871416
0,164655791439337
0,168315211371624
0,167224637161192
0,167916576060719
0,167023563593794
0,164843964220917
0,164345740867442
0,168660466244818
0,166169416741904
0,166790186195485
0,163682284736881
0,168791699487119
0,163709918622587
0,166444914873704
0,162928892182648
0,167732709033557
0,16464328602184
0,164258067938032
0,16327665660254
0,166914405479698
0,164018860484715
0,164215336099321
0,164502428465059
0,166383645733343
0,15978132471918
0,162404939413245
0,162350848941926
0,165916668628206
0,160080348612334
0,165833203167405
0,16302614104345
0,165425257150956
0,160324317528544
0,164183027435033
0,159898279827138
0,162432884467551
0,160769048692202
0,161185590365298
0,160114553696959
0,161872240266939
0,156459884281657
0,161761816501993
0,158729770762604
0,159971101689229
0,158437204436497
0,160603476318603
0,16031472249158
0,162080037568631
0,15569155449196
0,160558576145256
0,157245035476217
0,157401655042257
0,155000793606622
0,159380356412155
0,154282614014625
0,156342866181553
0,155153730979058
0,158422738747286
0,154189568032604
0,156895723250618
0,154124452792855
0,15581997204937
0,152532529629804
0,156902292428089
0,15286112020465
0,155898097872271
0,150838809294831
0,153610266685289
0,150940300737785
0,154604705088431
0,150222401681819
0,154195731402699
0,152738851664084
0,150981311523176
0,15013636871577
0,152086535846338
0,149802464811501
0,153715507050902
0,147953887741042
0,151940724298496
0,145848768956208
0,150112166215636
0,148383692856001
0,15094503410504
0,145933564321882
0,147566440553701
0,145433370173555
0,146448832829392
0,142052762885741
0,148299328830713
0,144635865585831
0,14589475075756
0,14111207693931
0,143288102346736
0,141642583853698
0,145623732492612
0,142890571403508
0,144907736695212
0,147855897663269
0,143945706841249
0,141646107906215
0,140787980238852
0,139334908320579
0,142783998989288
0,137765439155324
0,140254243954624
0,138613700950044
0,143177999353
0,138707472754426
0,139706688196016
0,137472858492516
0,137725411297011
0,136407405290367
0,136665698275287
0,135471634474514
0,138038687895833
0,134757741931884
0,137337883669863
0,13267259678682
0,13299809741809
0,133653924742255
0,13439598714944
0,132043351248823
0,133272657747996
0,135058673425361
0,142556426673842
0,132886116977941
0,136401287536111
0,133661072294119
0,134829043748704
0,129000518184368
0,13047442376541
0,127527313631956
0,132405348573617
0,128121296020753
0,132851182457081
0,130829390490685
0,13325311623752
0,128071834335287
0,131120879841842
0,127517590121765
0,128489264230764
0,129187640553143
0,129640229058125
0,125624833832899
0,12818047993344
0,12518461177613
0,125267771405698
0,124850122257138
0,126287094854198
0,124244948709312
0,131203401568627
0,126977810687461
0,127189743223726
0,121817250242752
0,124314201260088
0,120277025499199
0,12418268810487
0,120869237171926
0,123295528992901
0,120007081604303
0,12611352200015
0,120389100328895
0,121190799905491
0,12159920043203
0,123794592568366
0,118338785623093
0,121280715868747
0,116646018729862
0,120769511531991
0,118046285612847
0,118830041531956
0,117270128859634
0,121361596505742
0,117284071888582
0,125433303683662
0,114496545891018
0,1238570895219
0,132324176597776
0,119709562658679
0,118201682207975
0,117988747455721
0,118018068893794
0,119383768275202
0,114391019742122
0,118868787948929
0,116155131258092
0,118836729883523
0,115360782729544
0,116385780046091
0,114864011215258
0,117137880633417
0,114337466705966
0,116108958279713
0,115609858058253
0,116607224844949
0,113899753878103
0,114158318298325
0,121598190691866
0,128604741077471
0,118073267634128
0,118518775042158
0,116873339070382
0,110984333246174
0,127943772190159
0,11909443161958
0,11370560888677
0,112675354227539
0,113459212050335
0,113446670836949
0,112859641397537
0,113909098391923
0,114919516531333
0,119569640531994
0,110046245426249
0,11821672037414
0,109656813294858
0,113505051536891
0,11009894467156
0,11498094033396
0,109631625657906
0,114921941412838
0,108980493606879
0,114775267341586
0,112025933298488
0,111107632001783
0,111843211464269
0,110400382901973
0,113377997735543
0,115603543146007
0,111304913605236
0,111791145544926
0,108203147145052
0,109661187829569
0,113230706546948
0,126641978860962
0,108850006002425
0,115546618243171
0,106773396155314
0,113077908382957
0,109780311308928
0,114364458842974
0,109237136896451
0,113919411143808
0,108243148613136
0,115204604927886
0,107447201239761
0,111631947677517
0,111124231848443
0,112275879401819
0,106669861744786
0,112635028316297
0,109591549390795
0,108954351008546
0,111086896551845
0,110907858648301
0,119306067984806
0,132323764295205
0,122486861396119
0,122863633381771
0,117717955972702
0,112703211449797
0,107812963405494
0,11355127087963
0,109450922559571
0,117801197562045
0,108720142297223
0,114152031790458
0,110770462939909
0,115425426201828
0,109216831966832
0,116888190119535
0,107403153630227
0,116076145699879
0,106943834151838
0,117412293548213
0,106906622349488
0,120310813233804
0,104791370912743
0,126197817656514
0,111748442179092
0,123862192539
0,098157514719575
0,147295967985976
0,130475347303545
0,118803076175321
0,118452349233877
0,113433581810143
0,116589537098719
0,11286246674367
0,111206238496697
0,120149598355689
0,115171605754179
0,115648710264345
0,114273018085979
0,115419554720843
0,117889437777297
0,113175570668404
0,113663213549821
0,148106090422112
0,120368067836169
0,120765059202147
0,11155743985224
0,124314926005337
0,135201442690952
0,115438077592726
0,123616247303657
0,115229684531572
0,116621083158305
0,116806711831396
0,117612644039291
0,118910278471269
0,119102672463853
0,123517343460255
0,117315270367278
0,122980757465983
0,113340807294354
0,124437982367247
0,120524345404089
0,133305616827329
0,128683862502
0,119184505273583
0,125160968284607
0,125430334115958
0,120720207874864
0,12483988195352
0,123420163947045
0,122163823119886
0,12893108893887
0,141362138666612
0,120810988107755
0,142871679621197
0,133875550459146
0,123098756692207
0,13108080113573
0,132012909814964
0,13536532457834
0,122378142340719
0,134385227846133
0,161900029132216
0,137049222545778
0,153761916553075
0,12532764851884
0,142760271447966
0,126379050477677
0,136661105384548
0,119290414909558
0,156537684740066
0,125423471456332
0,144548468861303
0,125010541976423
0,156224986170416
0,143142684737552
0,142955934659546
0,138151016912789
0,1374572051138
0,13458803454
0,156750795684744
0,140199525940758
0,135630055919937
0,163257550692329
0,171611879187908
0,165775507663845
0,150912539416802
0,135091269861095
0,19328323689488
0,14676632576731
0,15737588713876
0,141586085264015
0,156017120073239
0,144929860154942
0,151487824575541
0,180986964633351
0,162687226820025
0,15357191228608
0,165909187690258
0,144263118475176
0,18933487114057
0,166489998667382
0,165240468489333
0,156446076877217
0,17366996807661
0,149610422430677
0,223104182081591
0,179622352117958
0,183172966252073
0,194481562199951
0,188141708396514
0,187538091376094
0,181949202139918
0,178566003516205
0,191973261233651
0,200702752699781
0,191701045206581
0,175782923590657
0,205623374030031
0,218227818758735
0,188212113855476
0,205629558028727
0,19330538809842
0,191896415195031
0,23385496600184
0,257732393275471
0,232895660708104
0,210040165874797
0,206160215223363
0,242886797812177
0,217119802816955
0,217999709107801
0,221427609971131
0,221664967864593
0,229711880908261
0,225182879077965
0,246680191683246
0,236430686660771
0,243041563190323
0,241706270346551
0,240404717599605
0,262154885561103
0,295339914378714
0,306418604637911
0,262243595116495
0,316098218803795
0,291782556313552
0,288148211381503
0,279995702591384
0,279438356790245
0,301657357418476
0,297025477443581
0,305451498022441
0,292684111336381
0,335983001381975
0,330727062197274
0,33069564056887
0,354336445362614
0,329201459800163
0,350965225539807
0,300298049420972
0,550097794089865
0,377670965481489
0,38896180150476
0,37819340238087
0,367650541482412
0,474361460970573
0,400942542699908
0,409354910318394
0,413696836916672
0,410663997814957
0,431213293902769
0,442847464991872
0,449117544107706
0,468496606607031
0,465568354925361
0,453922304399891
0,489824225458748
0,593515088894057
0,544815794484809
0,531196922735469
0,503708279152683
0,547361940288319
0,552997916400526
0,541545613941317
0,548327174185343
0,566074902307985
0,542713758435828
0,668662946567187
0,587759936807448
0,617147976780873
0,592216222713945
0,670955020684047
0,589509292380917
0,690769463576962
0,673582306477502
0,663567386132939
0,666596445594596
0,663307023331348
0,687167760979942
0,673103910548585
0,752753779441413
0,730771024170426
0,713668531879326
0,721538478053318
0,738153150377667
0,753386982999587
0,757158907461313
0,795655910912944
0,766274210355991
0,858477022301502
0,803238958187258
1,1308325303321
0,857817641964063
0,817404299982567
0,823064861560928
0,822226796575397
0,882021795380262
0,867462242709318
0,856949988019247
0,893135070726804
0,844219036570857
0,877059742857666
0,839142488681208
0,86055234150299
0,859923558480061
0,889651204713658
0,860321712939935
0,93188948278048
0,887826469442846
0,882421080138941
1,05215403639996
0,899421319212961
0,874624990477116
0,879178541955625
0,857841231264674
0,840808201598703
0,862935045630485
0,849482594731058
0,905893892060544
0,862754949468044
0,833231628157043
0,828187911393237
0,856466576096553
0,880694889559165
0,799519240757741
0,808689406731407
0,77140849625719
0,774818320827221
0,764789366854986
0,759338181764804
0,873799192830466
0,765319971920809
0,7451274474665
0,725545462695785
0,711762915784201
0,708360570383679
0,692602466940555
0,674757463382766
0,676574161574991
0,663143141273638
0,667505263808894
0,643475190210095
0,642869679521655
0,621314840495085
0,62201533877312
0,610096236366589
0,601112247667095
0,602295226746285
0,59157188685421
0,590682048289908
0,565485681930278
0,566375021451947
0,565392830150697
0,562407739101531
0,556969734687349
0,546583580922803
0,541063009746746
0,541030666267225
0,528205847627746
0,526420432657506
0,514788634025431
0,512988169079147
0,512474824749874
0,518627058433961
0,498105492725765
0,498552997678836
0,494360151296373
0,502089360006432
0,485631627289918
0,495378663315604
0,473014610693597
0,489413545771054
0,440605294171849
0,568082724896498
0,507988887492229
0,471798294419776
0,471525078421393
0,4522998771665
0,474439499213262
0,438741031116378
0,518569018502596
0,492827876275386
0,456372526418189
0,458213799694713
0,443754733267317
0,459383681323318
0,46097322035403
0,433806590167552
0,459889955539206
0,420072205884092
0,473672211049917
0,517616257146089
0,506013562369495
0,543143255057738
0,451771331157804
0,4340388773572
0,424912885690853
0,488134818253973
0,415251141097564
0,43824594491605
0,400603647136239
0,476365042349734
0,437310316117433
0,40669554599273
0,421739822128061
0,408640524680214
0,430411954773022
0,446658584172911
0,406417820554153
0,410587058513751
0,452369492349648
0,407986292805985
0,457533209216272
0,470044137586337
0,42770152247706
0,38967715760137
0,392122771781125
0,391186564586482
0,363022696944883
0,467792982119778
0,38134024327715
0,394273431654333
0,3765206260334
0,364487143807973
0,382315899364583
0,38509032710186
0,387039001901488
0,351098622623223
0,431238263033241
0,344475162862878
0,386290292400485
0,371614894380638
0,409306953378654
0,415726064831701
0,371862954322512
0,349066798571911
0,378027288485168
0,414907318039053
0,347792964387175
0,380892252582762
0,339524609621645
0,340307432546046
0,368167400359547
0,335511097960722
0,358443873822969
0,363005905623383
0,341898823042116
0,414269824444743
0,39301268857155
0,402379476949106
0,347482850517862
0,325053670819801
0,332284363968278
0,328979502419669
0,341258741297334
0,316479200197964
0,359113073748825
0,344335442545349
0,295236722686429
0,391379093010281
0,323452329422985
0,323070833822795
0,321490532331393
0,316044601664858
0,323244223693217
0,348496421163159
0,35743947086806
0,337357925973509
0,32335518685191
0,352437849673377
0,311058595428976
0,329876354886468
0,307159149069779
0,326806098694261
0,315913047981239
0,340917726137814
0,324884540605545
0,32671727951948
0,325736951832214
0,335455025063556
0,334045581413668
0,383782421684488
0,312103921815537
0,384315721748009
0,334674378226284
0,409756672461542
0,358269467801256
0,344786172973228
0,349620468730632
0,345655887953649
0,354707398996437
0,354381566259136
0,346685318559295
0,406864461103521
0,347125950746777
0,373738854818491
0,350096477172555
0,373002636484014
0,350424612917782
0,410694797774875
0,371583224196868
0,430680694842529
0,431984813342735
0,380793521174118
0,384954104902822
0,360758114920205
0,385317139177425
0,377230041505518
0,362623539471416
0,377898208598105
0,353686313395684
0,404227079836777
0,369242928039217
0,371587909037486
0,373767615404849
0,374849197540787
0,372905474019129
0,368887018054103
0,373967922032902
0,377791536088263
0,369352485677338
0,386808872813256
0,351907578475949
0,45325426583125
0,383726843991014
0,382422164315481
0,386074447058983
0,381398552885891
0,386306153918527
0,382344956999067
0,398546822286993
0,395373828660837
0,384920383063999
0,396396467614818
0,378850751873191
0,395687395629154
0,389606988412152
0,427237809433834
0,37768998909459
0,406937328663396
0,381577077253255
0,405686549238346
0,451274255238226
0,401456292410612
0,425637336718727
0,391101740543817
0,403859202529696
0,396286848171758
0,3986182110562
0,397828502938866
0,404609818301053
0,395393508273498
0,402359236518605
0,39763598199338
0,39253770520637
0,397771732468922
0,391150669496937
0,429290685363173
0,398925282955808
0,401301183798576
0,391532071007885
0,400155605338752
0,387874573237578
0,412026617896764
0,415695944697806
0,394174670334807
0,406186654037227
0,397394441674358
0,411333954250337
0,408566788736704
0,387390508737887
0,396904585617803
0,390386272138355
0,393203989893679
0,395313744984264
0,393094197183739
0,430019384260191
0,389108417633088
0,40226503461794
0,395896539620933
0,39980992398949
0,399053726779123
0,402251774061606
0,395099445438777
0,407500150498931
0,403017864842117
0,41196259587633
0,407309788287794
0,406390470378209
0,420472400958122
0,420022263544884
0,419304539401367
0,403924015260898
0,405082537252234
0,405882648960904
0,399449699214896
0,413671444023212
0,406370595157182
0,403971896772839
0,395486141631225
0,40625909597905
0,384628011488224
0,429655050846393
0,393446469277879
0,397823992039473
0,399067738555451
0,380640407156092
0,39062678402536
0,381608957495142
0,382604679478973
0,382470369959115
0,388081464884618
0,381584614420567
0,379893303300393
0,380073305075983
0,379761455019835
0,380912627408603
0,381572216005131
0,379747760597952
0,375425657999022
0,378835969944096
0,376458093433495
0,375312726143386
0,373024297917223
0,380445958855979
0,372195384080634
0,38689258079072
0,394709418738581
0,391268099525679
0,387194405224575
0,369592182479174
0,390170460729948
0,370323920798083
0,382194107137858
0,368161268055464
0,378012303818722
0,367808940915277
0,378451121298351
0,369498541904243
0,376644909959426
0,367817945600416
0,377202512068517
0,367740273320275
0,374545664380663
0,368863055299237
0,374391702430764
0,366111665344399
0,375057215309891
0,367914502549892
0,381241224563467
0,374410521454407
0,366502011425989
0,370575802342772
0,366947623494347
0,374929779658416
0,370284678422724
0,373375366180349
0,368309003934899
0,368481465087982
0,365754024358184
0,360263548642714
0,368347656343289
0,369255025228599
0,368216596491663
0,36298165944815
0,363900419500635
0,362921778789657
0,364418394939233
0,359338430817665
0,36176873275088
0,356777311020102
0,359435986885345
0,353489879858402
0,356510225807291
0,355428266007093
0,354007817952786
0,348479901736865
0,350561768461516
0,349716298257952
0,34920190413486
0,349425240228847
0,350006478412539
0,350103345244226
0,348228016209185
0,350967161834982
0,349122702756404
0,348751473117889
0,350841264053085
0,348222643232443
0,350094324532713
0,351800180403697
0,346850533414325
0,344189315397781
0,350580903701272
0,349035315219656
0,349125256610116
0,349851258939637
0,348362339164867
0,347440744567847
0,347292584764057
0,354538352883604
0,350873705374686
0,352475473240719
0,352656013542684
0,3530146526065
0,351227360241783
0,3543729726765
0,353289640507407
0,356929240281368
0,354505910670341
0,354471352926964
0,354173947693831
0,357781045335713
0,360379111668122
0,356499531185287
0,358768086118451
0,354217897112436
0,355740681406552
0,354045984116495
0,358221619988447
0,354400629072836
0,354369148291036
0,356406537936444
0,354782675429244
0,35389966882172
0,351298131368867
0,348886236290305
0,352095996265108
0,350617727181118
0,352070065365836
0,349078692449745
0,350181586930165
0,345737530744447
0,345531056393995
0,34673071834059
0,349104049594962
0,344814333036025
0,340904676171257
0,345190044871068
0,342603476850941
0,34171607326299
0,342035530893963
0,342037993171226
0,343235066222653
0,340541086462559
0,342040202370816
0,343327338229497
0,338522329456774
0,340135652156528
0,339738733128168
0,340823229217372
0,339430433808258
0,337948097284986
0,340324228739185
0,338160629486042
0,336711076003708
0,334901130749256
0,336327146696495
0,334040867803229
0,332042843501786
0,332646895797172
0,329784697037411
0,326888637121134
0,327838206312247
0,326770722088887
0,322748390490558
0,325185001263956
0,325781473639504
0,321854438535704
0,321873704835148
0,320652667361705
0,322450148685852
0,321925773659324
0,322357694876457
0,319484911266238
0,320391574639267
0,319786473975989
0,317152535149316
0,317057156342584
0,315944528670785
0,313929037737873
0,314813189921007
0,312468834393822
0,309829808445733
0,310665480785987
0,310033879158435
0,30563745414229
0,30778054936965
0,30834037376698
0,30770651236347
0,304519892616731
0,307462742161064
0,305278339721994
0,305656678585934
0,305982370690567
0,309384628822396
0,311006909051726
0,311498826876994
0,315069068946401
0,319118946993108
0,321317350413369
0,323278111857684
0,330668302773539
0,3347096291973
0,338913549439711
0,348303357439111
0,352182617905669
0,357165813949575
0,36532238789899
0,373376246142053
0,378400940123708
0,387526301068496
0,390522000593883
0,40041727084177
0,407346587938405
0,417006949502621
0,424133066459802
0,434786778390481
0,437814243213399
0,443460544914793
0,447948822079674
0,455603063378256
0,459363347101257
0,459766848300768
0,462828496092121
0,467650624878538
0,465157523721361
0,468360122391705
0,469038029989086
0,464279860366952
0,467837649653192
0,466560289788255
0,465387582702306
0,461151139019408
0,457401309638501
0,459359926518929
0,457301213264581
0,45320308599993
0,453011291893403
0,451098212072036
0,452595857857411
0,456806655256473
0,455899755839799
0,45486350693492
0,458923461274349
0,46028701941428
0,457805434163199
0,461725185773532
0,464753677336928
0,467246482503253
0,471658610376324
0,477328339199571
0,478382875587574
0,487924337450244
0,488862540200059
0,497462348963132
0,504194615807581
0,511276933466448
0,518944557418141
0,524842564266608
0,534130230977427
0,540444848927414
0,543048563453103
0,544728866360399
0,547220201439652
0,554321214987995
0,548183807401784
0,547626943667452
0,54595659067257
0,541077321320769
0,538907536578748
0,532776498380325
0,53306749791833
0,528259843819345
0,527179125679411
0,524545206043209
0,526456098406242
0,530014621638963
0,529720707594696
0,532965194299112
0,539252948072746
0,545603460594308
0,559424625945313
0,560507242606175
0,569125414237435
0,575618976489898
0,580454253322638
0,584491948227971
0,595474334322874
0,59685912185361
0,603534705638208
0,611360940538477
0,61725560006297
0,624703308262421
0,632554919685327
0,634876081778487
0,642476645023218
0,646008244603217
0,655563703050147
0,670520816640977
0,678604677717145
0,693078556502691
0,701832537878721
0,714049753264204
0,721408759238158
0,727553731988631
0,74349640925211
0,755734601409827
0,761501488620678
0,761785287051729
0,780548050263046
0,790285739923771
0,786727421658457
0,787685934824579
0,793273536445301
0,797430830915432
0,795466086512681
0,785609449935606
0,782027295582501
0,779777553620833
0,774546629860352
0,761068051292148
0,750108627368057
0,74311691372029
0,743860047867137
0,7376879947551
0,741020298602364
0,728541529399819
0,728468600068869
0,738691712409641
0,737588661413704
0,727702374390587
0,731713622320016
0,739868176928747
0,741570223825056
0,744918154874029
0,759684518991385
0,756892470521403
0,764199531263984
0,77756657058418
0,784641434728718
0,78416242442832
0,795753967661644
0,795088910600462
0,795295172907222
0,793707652757166
0,804926637639048
0,806550265550689
0,800365772915662
0,806719908980081
0,817919841609544
0,804831208882853
0,814167303382303
0,817625024862207
0,805834541426243
0,803128604863476
0,802934943264679
0,806708518471418
0,800066309756465
0,799125065137594
0,798065590941407
0,789685157689782
0,789745201147851
0,78073919606184
0,779610230311603
0,77651835640008
0,767015565777228
0,762499000969941
0,757511862493548
0,756151337102534
0,751426801435632
0,735770388594404
0,720960883318226
0,713567975162825
0,699479447458604
0,679632818231826
0,663499759246015
0,645790769065734
0,626813037894777
0,608178429266573
0,599643873367687
0,583271456671555
0,562889530458845
0,554343935979864
0,540016155693867
0,527781330404489
0,529077603158279
0,525443520092937
0,52174639053012
0,52189524099784
0,526604509978783
0,528436646874258
0,528865665776981
0,530710363556485
0,532568106449985
0,532160113258566
0,530343550984961
0,526441753152836
0,523973754363581
0,522223704512862
0,515232867587409
0,50890950854348
0,509674519435504
0,504383509188654
0,499816349422912
0,496713469877704
0,492786895169429
0,483279918099474
0,481093191881197
0,475304576777303
0,473263666819989
0,467399685565724
0,462625564357095
0,452039042610299
0,452045060923601
0,440607852102181
0,431980617612718
0,428750287178935
0,430535381138969
0,425091838039891
0,422218362743618
0,412808833443342
0,412725726629587
0,410351409441587
0,404962376290875
0,405144259342302
0,407428451102608
0,406060022774884
0,408680973311399
0,409007014338731
0,401115285112716
0,401764144307431
0,402635572000295
0,402169957284069
0,402070904995025
0,404006375150846
0,406008785239053
0,413011411290803
0,411969469892918
0,411934855476033
0,413735622240154
0,412658354582916
0,41655471334947
0,416190946164232
0,417264630192038
0,420348205802344
0,427466023329235
0,428347795974392
0,425890373891008
0,427125068641572
0,433741878855058
0,43146707782099
0,431066173318447
0,433003873759046
0,433709790515876
0,433529208436452
0,435469893722041
0,43426674143983
0,434515318405536
0,443127469615259
0,44475430351351
0,439566766476935
0,446428060903138
0,446091686788498
0,448443407968516
0,449481014012724
0,456352432874015
0,457828796395901
0,462497266864956
0,45990698650168
0,462902250863311
0,464621513848751
0,470182808183239
0,471936968595282
0,469563542644817
0,473654554242951
0,484111653285986
0,482460395299692
0,485413231603531
0,487933238911663
0,489213932176666
0,494629342147301
0,503668000413713
0,493950681491392
0,493879566310821
0,502087834832483
0,499879032865736
0,503312919718189
0,512211566797551
0,515826411339709
0,519026944221752
0,523908731720584
0,523264723444767
0,515386914902098
0,522857558601164
0,537257692071615
0,546110287773368
0,538286343862714
0,551131402618252
0,555599059531511
0,559877922578272
0,568350649079271
0,566966608548718
0,578474778825516
0,594291599585348
0,586036567819606
0,60026514879582
0,589913231170764
0,596805418619228
0,59696446359947
0,603170237895976
0,605315629464811
0,603439308472672
0,609091209463538
0,614098858269308
0,604292444227257
0,617805954694283
0,620699092889067
0,62600757602781
0,623654471202567
0,625248362482974
0,636341277769086
0,629396789588559
0,626577399256516
0,637806483205883
0,637921510865068
0,644884576202542
0,652138315329727
0,65173654500637
0,644264914342845
0,65357139833903
0,670772420248846
0,687232384556389
0,676095543945207
0,67727468069664
0,674442978464076
0,675596249191067
0,690807418690776
0,684496293124132
0,679792510628833
0,694208780277591
0,705305958229013
0,713028020593143
0,711103325800904
0,716007333817292
0,727463509945699
0,733773330747469
0,729199863620646
0,722538830227546
0,734490522935251
0,731665918436657
0,736392860759227
0,748573445570562
0,747811556889986
0,743513541417096
0,741183602220503
0,766478430974944
0,785479781002671
0,784379210774176
0,764905472718566
0,767262214192604
0,789819999157382
0,798215876103843
0,786441391251568
0,799242953499759
0,788941535859063
0,803571266716706
0,814309869048066
0,809341624724242
0,803060878071303
0,81094925246479
0,813965278642958
0,822849227475314
0,839773660794686
0,839379723661374
0,842986022886183
0,845804411197028
0,851303264290632
0,855098740316207
0,856476532405041
0,875922031595401
0,858270002582096
0,866878536569554
0,87127907338996
0,86645389410084
0,871741848972368
0,888482347051558
0,916169499314539
0,941069022264383
0,933577597802321
0,937324179220215
0,938974814270908
0,907141289292946
0,898202680559398
0,944008341288675
0,94712346473143
0,907537484417095
0,958643332926951
0,976015069366584
0,948596182363323
0,964154464041334
0,960392472668185
0,980728552950156
0,951478563660103
0,995493325429551
1,02290931697081
0,973214136816911
0,977566036586853
1,02229495916291
1,05158904717113
1,01875542862313
1,08814160531845
1,105691938449
1,03568817649703
1,01399100199501
1,01824087274808
1,13661269066226
1,10361187455129
1,01977000252331
1,06943749344465
1,08867794507396
1,10983262910125
1,11237796708306
1,09586957633589
1,05667220934309
1,05691812013901
1,13596012549389
1,1486148720863
1,17004873531009
1,16632816650644
1,09077939858086
1,1154496308397
1,14413655766877
1,23854408585351
1,29921905608312
1,22005453721952
1,21778214567525
1,25415771761831
1,15969666398452
1,17778744477622
1,25316609101251
1,29896114491892
1,31338234619477
1,24023975957073
1,32733343422132
1,20291820745166
1,17444128707658
1,31842786518082
1,23329507334879
1,29252519686905
1,29823865233888
1,27482021739856
1,28814782468453
1,23333403886743
1,19761693074795
1,30842887135037
1,18846087763121
1,19022423308172
1,21146550470441
1,2692267486883
1,22520006667992
1,24501840232308
1,28844399162827
1,33627853842728
1,27221835171957
1,35183184965997
1,2353403889853
1,21822015589442
1,41128278882644
1,25463737442353
1,38630101572151
1,45610200751308
1,33028727779728
1,55709965671116
1,40153502906145
1,36314304284019
1,34111715913752
1,32527550993061
1,4056354198315
1,55767715313644
1,35251577526147
1,49609244772723
1,53083757116082
1,71717311241732
1,41401247448139
1,48617002700499
1,45813114480569
1,46644677272389
1,49227106823933
1,52990840960532
1,29126744221071
1,31739971936096
1,50355030917522
1,62484341115684
1,28562898364906
1,57238926754163
2,15433463108013
1,73548385743366
1,45699758110959
2,09118728255345
1,72304366592829
1,30025430824576
2,01897732149711
1,46458108637338
1,39538043597723
5
2,11999875837397
1,29624609796832
1,34593099359471
1,45540960043452
1,62028122623446
2,29845552373539
1,2786863369968
1,94955322295106
1,49843236688534
1,5893183999274
1,93846066314091
1,53443279431611
1,70309386390323
5
1,58352366901757
1,55001091723874
1,79368982216529
1,44093625797133
1,37290194406673
1,83530032023839
1,81838010755048
5
1,48044598755307
5
1,91399026333078
1,37805983324137
1,50849455709644
1,20956271650731
2,66959205484289
1,48321776860772
1,32886454725243
5
5
2,23847057018654
5
2,17288766342817
0,86006364805087
1,57551593177269
1,74696283801135
1,33657156994813
1,43691109186626
5
1,24139311635051
5
2,92703408765285
5
5
5
5
5
5
5
5
5
5
5
1,21261885052156
1,11303104470381
1,53884226541582
5
1,38824029148289
5
