3596
4000,36533379555
650,420452594757
1
2
2
0,0616619069316372
0,049083431633903
0,0544100908729574
0,0461749605543847
0,0631220501060527
0,0533687813285225
0,0555204743848278
0,0468346235549846
0,0585527726601634
0,0438201306869935
0,0644195423927469
0,046786359435086
0,0556792074162051
0,0522082439527798
0,0593836599237006
0,0458080677075142
0,0517501467863707
0,044904631628296
0,0497369333535323
0,0468905697432687
0,0587065217495947
0,0542624922907118
0,0555056941950465
0,0410820685547131
0,060367360631947
0,0447475878593337
0,0600853148044185
0,0504617214696603
0,0604408394053902
0,0530211200257353
0,0564285442933304
0,0457608242109392
0,0574454285597179
0,0540887189919705
0,054960067485622
0,0438217527701266
0,0561129364873125
0,0540940853141132
0,0589913960051082
0,0391426903426905
0,0616584852130443
0,0439888822078947
0,0521582361761561
0,0407438845187471
0,0632833966900026
0,055218727602838
0,057932507766785
0,0467800225597163
0,0602335799561688
0,0504312500565576
0,0518644890112772
0,0360035295754793
0,066095711553335
0,0604714317356786
0,0599020437269592
0,0556250416113652
0,0646318129427424
0,0491461041904472
0,0631412015721799
0,042056355227848
0,0752336830734871
0,0620573447777156
0,0517381130311245
0,0494546181099697
0,0554464753006015
0,0490539706009298
0,0512142917535783
0,0478928565578457
0,0517206297213333
0,0504706474288195
0,0473068649600873
0,0597580782555226
0,0710567949077503
0,0567952201232714
0,0665047340083132
0,057590025845541
0,0564379580974586
0,0430939848321639
0,0459823543942531
0,0546472109571096
0,0621865994943493
0,0529378621268576
0,0562996811801521
0,0451066789868936
0,0551440187638753
0,0627466175259474
0,0485004345763395
0,0462376624977943
0,0705082446249354
0,0472434319797237
0,0558784261141293
0,0496904495085476
0,0495930694029082
0,0469931162483299
0,049239712357631
0,0460606427005696
0,0563309700943554
0,0571612064304071
0,0499724688916568
0,0441784046782211
0,0531334579639693
0,0494662873081309
0,0925620465687229
0,0331812897802189
0,109786691150452
0,0503455795600189
0,0505027973770202
0,0749302108668924
0,0734391609207782
0,0532208740496842
0,0588214361194033
0,0483580553396182
0,0473540312741407
0,0514004768116272
0,0328087892764281
0,0650150890010518
0,0770797550173593
0,0503991640054361
0,0518554441754313
0,0476442279576232
0,0369490810788468
0,0697030267586223
0,0825943715711059
0,0449281856652908
0,0640660854705394
0,0478825312585702
0,0328364847731066
0,0752830504460216
0,0750541265712809
0,0496520350064281
0,0576027097020136
0,0473652964539323
0,0487388456943437
0,0397433039724317
0,083145165150858
0,0546720297554944
0,0581025272376767
0,0309283477638499
0,0617592923831935
0,0811940760184551
0,0668909259412517
0,0580205229133183
0,0424848427629115
0,035832082897279
0,0862414729833703
0,0606883217820404
0,0476084772336588
0,0628146407413218
0,0694328888830958
0,0475914622113352
0,0524844500430137
0,0406535227261861
0,071379763476812
0,0592690171453666
-0,000534983478157058
0,0695655998078674
0,0944853140282674
0,0485224806104279
0,115652277989219
0,0530879595433552
0,0717588478004906
0,0499363389137095
0,0635905318515594
0,0398135351950276
0,0564200091380919
0,0352159795115865
0,0576359808842307
0,0761489800170597
0,0527918661059716
0,0402042172282049
0,0804752993890921
0,0589814599719376
0,0291624102389776
0,103612875370018
0,0733052590397701
0,0410693028064746
0,0786198835957971
0,0658479598230318
0,0377188933750014
0,047488071623475
0,0789946420567591
0,0461994562312675
0,0694845425412137
0,0445223611121143
0,0545005046073992
0,0654643464616883
0,0674479619972575
0,0501110376408229
0,0593470190210582
0,0314096678054768
0,0666840262865004
0,0804411596239697
0,0857123642789566
0,0499085373730088
0,0613552512277148
0,0168752256476776
0,0854549898863678
0,073835328340685
0,0588556687432551
0,0482127805776094
0,0516933302606518
0,0542646217164607
0,0561776009110484
0,0492437709358345
0,0562197419660632
0,0229355924095686
0,100616288297593
0,0641113578409933
0,0640523132329158
0,043851280327818
0,0601948710363677
0,0281607411881899
0,094341026475388
0,0820730740628112
0,0671625322183241
0,049336214586913
0,0521714271485275
0,0614325276201893
0,0714384784433716
0,053400535976602
0,0612143449874305
0,0499354711899819
0,058419293833441
0,0519188178871674
0,057423915210343
0,0525877654787366
0,0563152565375311
0,0557105631350647
0,0529317904219662
0,0483590746825933
0,0659291761977867
0,0544093064000603
0,0565773784595455
0,0542556781297623
0,0476087173457647
0,055334808365337
0,0817520972378788
0,0591673523490681
0,0640749521038783
0,0459622210911317
0,0653847342781606
0,0515801002163497
0,0597356089252914
0,0541308501463893
0,0568148429993245
0,030550466392863
0,0862033866915321
0,0553824817238408
0,0719712577602853
0,0410910425239816
0,074482155005781
0,0651328273515175
0,0629019911227213
0,0499893147547416
0,0674865377552166
0,0479452651372619
0,0611712443484569
0,0848747359094145
0,07546259467105
0,056515309140716
0,0790440753023537
0,0621638278563341
0,0601270240184035
0,0524294224024145
0,0440910599769692
0,12789419727266
0,0815299746083676
0,0372232971683752
0,131373091175748
0,0741515568757007
0,081588555797041
0,0576726967167622
0,033307433854361
0,145223079152064
0,112953824289065
0,0676830287479524
0,0712466493724011
0,0740197585152719
0,0653599122097303
0,0646332176739183
0,0648236092960902
0,076136966759455
0,0957296480366154
0,0969879922207495
0,12760912727494
0,0452966285099488
0,100408291581425
0,0929706893147126
0,0752913457988323
0,0674357377616836
0,0782976162147596
0,0660564168004655
0,0848699822844289
0,0808879757418374
0,091348639909347
0,0755436604309596
0,0717730984996034
0,098777279493134
0,0870748550410158
0,0696273807883893
0,0790185200589569
0,0895562615740313
0,0771943048133619
0,0798882576827368
0,0804446368802931
0,0874252491523411
0,0786392343163301
0,0636759395137292
0,130077757137866
0,0898982062291977
0,0857509153146568
0,114533086493668
0,0923638959231891
0,0802242969995586
0,0909694308974073
0,0870535724658146
0,0965993503788631
0,0912164967017421
0,0892397637933017
0,116461801677975
0,10446146670513
0,0896395798770835
0,100401790341574
0,0924516603645615
0,10582597946786
0,106647173336776
0,104841817999232
0,101270575001682
0,115105776811653
0,0925703498943073
0,127532350173835
0,14179772739257
0,100556937194551
0,145454486935279
0,158528022573337
0,133205097084497
0,133257717573057
0,122962345228593
0,135126014311685
0,125971758786477
0,14289310551623
0,13032411136931
0,144608588387591
0,163105639164749
0,156939594869645
0,139103649004939
0,155242814654844
0,191793468535806
0,228912965778232
0,182072696623622
0,176030625432816
0,148357397606506
0,206254794072426
0,188179571309971
0,204757719507107
0,215461212025212
0,190018943693688
0,197946483475553
0,192972455730497
0,207551000269438
0,210644995453934
0,219406141832059
0,219914973425066
0,218887797533237
0,22369179073929
0,231862110643691
0,2214178093562
0,225636673617934
0,281406678406692
0,258808045799673
0,258224187185629
0,248417080152176
0,241075007824313
0,278969314092531
0,28196672919926
0,305146758618988
0,312261475741745
0,292410360882109
0,337918660867176
0,297980610197712
0,305917662864019
0,29363419852315
0,31126851317161
0,306708614398763
0,317629064258976
0,312561848652116
0,321977597549165
0,332662979954484
0,342907683717279
0,330434657131263
0,349988828806108
0,331018954262071
0,373980962421987
0,347926333581306
0,363799687028062
0,344773121203446
0,37607150895578
0,416455354329711
0,437830108089812
0,374095606520387
0,387430512444158
0,390101654781371
0,39691888995794
0,390786606476733
0,402685849872665
0,396528343077205
0,410665985222094
0,431512631642833
0,440607305324886
0,434122929506903
0,446175470336451
0,404620729780774
0,446632776682616
0,451691658193952
0,46278278814702
0,4506315422906
0,451235514989603
0,432442087329818
0,498282769983877
0,484168705004775
0,472218587658151
0,478016587138344
0,479063430468724
0,471684926017225
0,470589250850599
0,487443195043269
0,487756332278738
0,489800853949894
0,510906296177649
0,500438962293419
0,531460484252167
0,499953850191485
0,512727158322942
0,525413388110384
0,537221813330865
0,518291291168488
0,539556197995201
0,507612816376115
0,550434770484485
0,508664777889155
0,579449279680387
0,573371859089675
0,569233612897424
0,553915630807881
0,549451545529152
0,546799833272996
0,556613076386786
0,559596506328914
0,588246106875178
0,574980272751282
0,588330328859876
0,575031886432386
0,620432045857756
0,60859620694108
0,614161132811203
0,598552446799002
0,630121614093426
0,605678858702983
0,604022840656644
0,611789334342743
0,627459744925732
0,592557270355393
0,691179752419655
0,656395601311537
0,698086021722361
0,676371507169657
0,649959227641734
0,652276089804771
0,646633343997852
0,644122762523103
0,674379027416631
0,682258833298794
0,688915667404014
0,658879620379765
0,686419364988153
0,721057521473072
0,738695415853985
0,707736633946602
0,751496380814145
0,693029109748802
0,72288242070626
0,729805685268279
0,751466279344305
0,712095206354951
0,753270028768349
0,753142215700317
0,779973538913504
0,738543243268077
0,76940701818597
0,739498092750874
0,772721169167368
0,751557755004832
0,762383744912586
0,728730007843461
0,785307261592076
0,775158136187934
0,774312913532473
0,75713274042837
0,796622477960074
0,786189564041603
0,828423492827562
0,81272674279677
0,893919189777527
0,820115618495689
0,875960259329823
0,857171885713248
0,873324934158092
0,874642258724804
0,847895481024078
0,827923126346553
0,86131022933351
0,845412002806125
0,916809161133377
0,873922794299617
0,897670729419496
0,899229829368397
0,894191485180287
0,847024239251501
0,899806519170735
0,875284177145786
0,930563092665424
0,892670467386644
0,952245052977815
0,899306219235572
0,954302781155078
0,92746189109113
0,954069602463465
0,934954484982845
0,941160350084748
0,913692097152361
0,916333465955397
0,868928785896453
0,926818526803455
0,944256479606938
1,06302794080956
1,00098143813283
0,998808532586801
0,987094191049431
1,02783964898307
1,00397131697869
1,07746635461213
1,00473498577831
0,999372691476198
1,01070827669677
1,00623124807374
0,991265560017138
1,01455833639462
1,04038031136558
1,11714427174784
1,02404823420106
1,06176486500862
0,986046167225437
1,08125755879708
1,06817811149225
1,07696198891477
1,01045067449183
1,0405413600168
1,04582671302065
1,11294824670095
1,06335305140961
1,20620609157537
1,08418470909535
1,11262912296468
1,13294168806121
1,11523353851452
1,06911136236805
1,12769893824053
1,11474502684042
1,16624846020452
1,04991064810415
1,10820591137888
1,09319189043407
1,17205409218147
1,20507236628159
1,22363228717804
1,1225833613696
1,16971102941998
1,11441480783086
1,24133877525608
1,23639398978448
1,23444204093145
1,15040784719261
1,19401643655153
1,24747950013071
1,2901821212652
1,24369672884325
1,36369294507209
1,20476517800243
1,33791532221912
1,27271064361203
1,29328383789232
1,23596710461904
1,2471278235369
1,26777185244736
1,32339362297533
1,19072648350404
1,24894141798145
1,24374853988469
1,3570984596619
1,21225393530428
1,23044887489353
1,15707078653562
1,25132835360374
1,34432888022828
1,34694048964313
1,2055640081742
1,31191405222754
1,28020276288475
1,45417128227037
1,23599605268516
1,27749615272208
1,29884428302735
1,42095682925281
1,35299525631491
1,3056786074197
1,3042205367453
1,4568232497125
1,35150497478928
1,41992328153594
1,45235999350394
1,42306704563908
1,32003929199545
1,35794128689322
1,27642587103736
1,36698894237887
1,41700502883303
1,54752129792507
1,41227141878995
1,55831271534924
1,46243941006719
1,60972072734569
1,44319186732993
1,37520330532453
1,31052844997507
1,42439036622507
1,53973946936774
1,49667410542161
1,38872563618886
1,44766114893431
1,32506719357542
1,38397213877285
1,39531742433094
1,57406051736309
1,43781926855783
1,58070871313948
1,43879363662692
1,41776826735897
1,40503770188718
1,39091496139159
1,39525944724659
1,42868700794195
1,40730313115344
1,56936422043304
1,53235071406833
1,70861845126219
1,70959149692462
1,571419239684
1,52809381534271
1,59082315052673
1,42697272808034
1,60327610441982
1,46563977147725
1,57938139113568
1,59942344322315
1,48901313282725
1,46431674913656
1,58344654141529
1,49275005323091
1,51146396616894
1,51280829437382
1,45771308776183
1,36611630760547
1,49225171971822
1,55648415609648
1,59942190099366
1,5060193340581
1,48700032842627
1,50369265742088
1,57733975669939
1,43927107719446
1,69313152366267
1,58148340163092
1,68053944084347
1,53777431506347
1,43384749392376
1,62796892978717
1,79230915506577
1,59806994944171
1,72115693720473
1,47004808821647
1,53028200235322
1,45301451453261
1,39684792396936
1,50923297356938
1,670964846213
1,46387342450193
1,6652311198877
1,52447439127129
1,52826061716925
1,46235765553165
1,55954789370944
1,59125636877681
1,48280841645955
1,5716310308939
1,59120609367111
1,58548383517897
1,59052036597026
1,56195004987443
1,71781558482595
1,59014383879364
1,4797783736124
1,45164934170685
1,62138513412448
1,55370310736183
1,60278384381704
1,59575745742115
1,74681495648672
1,67561412200641
1,60937823320151
1,52994224625747
1,55196870360918
1,60421721789741
1,61513863061026
1,594622322904
1,61101677386729
1,45207145410031
1,57486949667484
1,48783803498159
1,58595945327454
1,51554198315863
1,66913682840852
1,7145271611457
1,63022014316347
1,57831904099164
1,5491849560378
1,67384696576079
1,57415135185085
1,49495428679684
1,75032986751278
1,83015356591545
1,63499609160679
1,52328267650705
1,62454521622813
1,51275901105291
1,60079562937105
1,62980320647054
1,58304238015499
1,55880158705097
1,66030163566708
1,78878514985137
1,5655308258102
1,57788264490961
1,54953041083311
1,42247029950218
1,66804490346718
1,60605201284819
1,5746506597019
1,69375932519692
1,56813658055478
1,51138262289992
1,6984700634236
1,62627215241852
1,51113046859734
1,55860648911359
1,64356784480581
1,51150388097603
1,49736140636335
1,52256276978323
1,59153179168577
1,60422982293423
1,66474873253669
1,52859850990882
1,53398564030262
1,49627852256477
1,50681559837832
1,54862025429138
1,62452822769243
1,47954157994715
1,48090219922806
1,48836961702901
1,49543006422893
1,6164018426364
1,74072669731106
1,58983940935234
1,47879297122849
1,65248002354939
1,7804477401764
1,58312572440253
1,58638609286427
1,53938343720461
1,57031570200049
1,66133853905724
1,64804130555208
1,57879436537447
1,57948979061504
1,6534449961302
1,56574396275985
1,49527180362362
1,56678118152179
1,51027481467598
1,65442755486903
1,55688340042892
1,47873837499996
1,47582444532465
1,44888841686177
1,51860747269443
1,59209226814282
1,52549300156722
1,46523052571449
1,53740390645961
1,62909412764524
1,62480721818769
1,64842709203159
1,57669960372494
1,58900890525318
1,47011940012797
1,42205009216065
1,60843049715117
1,55923082834905
1,57150417594072
1,54253332382074
1,49962475064724
1,63360527076959
1,56030167885565
1,47078822968785
1,66601711393545
1,68302293797225
1,51881301080644
1,5767916653976
1,5921679554717
1,61831393803922
1,53692260900593
1,5025061179013
1,57513948204224
1,57614298934399
1,45507743193487
1,43269132110841
1,47448197633238
1,50037316438504
1,38242456134961
1,45570508206332
1,44979805935775
1,54252364244549
1,56283149479873
1,38098304109908
1,42993686189982
1,48420411760484
1,60856687214786
1,55013246315598
1,44514703299241
1,46211303984495
1,44640150214615
1,48475152595733
1,49376923286177
1,48482616585939
1,50749386349266
1,47473809697041
1,37826388707866
1,36371367969638
1,44085822350844
1,43842136357953
1,39399218123434
1,38533138142176
1,35032724381065
1,35345113867426
1,40053728504929
1,40844815416536
1,39710440021567
1,34202457833849
1,39429138761404
1,35255245071627
1,36940588093196
1,37725959832857
1,3689948564927
1,37711589605661
1,29182131988419
1,35222866088087
1,40326287926197
1,29514895383514
1,36107653968782
1,35720519614474
1,36251465700759
1,28341165487078
1,25554599260047
1,34111634568813
1,32507431944458
1,39881071339209
1,33006147313602
1,26252636719939
1,28315866163572
1,27629916594255
1,33495586835402
1,2768809650424
1,25182516860973
1,22949168260966
1,20006082488689
1,21473843165957
1,24799972557236
1,24409512318053
1,25771297389965
1,23880982492935
1,18020166702576
1,20450467428889
1,26107375825662
1,17221556576716
1,19361039613967
1,20206167308957
1,17417957565483
1,14667106371555
1,15593178341845
1,16398143203779
1,11156531568098
1,11361128624703
1,17167922896976
1,14450143470493
1,14107258609795
1,12104036252679
1,10614171115853
1,09371275148246
1,10599530777417
1,10134391882385
1,08365670433275
1,06350653195478
1,05280622408438
1,06979303110158
1,06137035210223
1,06469703670038
1,05926244801106
1,02029725732694
1,03200231138732
1,02732291232414
1,0211537403458
1,02462532391344
1,02705075146888
1,02357742841249
1,00146066298204
0,991549824827709
0,988718955721061
0,98987782777495
0,95422533536643
0,937465407494532
0,968536906477865
0,952247525530676
0,980356620540282
0,950998693163693
0,923688465038818
0,942788119903099
0,934659315789324
0,92553847021927
0,95511658989312
0,919865270404453
0,929670667487404
0,908373396941463
0,898006532263958
0,898191613818329
0,883254806199416
0,874659935981602
0,901209227095537
0,872668528777664
0,863435710787985
0,856976168769628
0,855599639469153
0,857859317536242
0,84789830548816
0,83611270303905
0,853969386190481
0,836846766873225
0,814553711716558
0,813781915255055
0,812790267792347
0,802267843897965
0,821639891864849
0,800565568025592
0,787722871686088
0,780218197985836
0,785180883762425
0,788327113957509
0,78216045915634
0,776157514464714
0,777104932792364
0,758489074074402
0,747428553215775
0,73631693618974
0,752653297574131
0,743715628538229
0,752298191514252
0,725083773731284
0,725733845390318
0,713753146305233
0,713239596472744
0,707855332282196
0,710575710961974
0,704326128010299
0,703422583207809
0,700102879582277
0,681289480430232
0,674160067099099
0,695053024235644
0,676868690512125
0,666880147761457
0,671596095057545
0,674845212582777
0,66551463583492
0,650845162100502
0,640218958346153
0,65075109890111
0,643897101336879
0,634947581967508
0,617512448583559
0,639030631941516
0,636859424738642
0,622778733846506
0,618764362724875
0,610903581369267
0,595906980438229
0,603331733174752
0,593688504741562
0,586980461284583
0,593846967146821
0,595152852747086
0,593523726481719
0,595936157682999
0,573004405126353
0,571583717612784
0,56993213252644
0,575466861246738
0,563411795631783
0,564455748076285
0,549544961546313
0,55955776873223
0,552649857339382
0,542873343156462
0,542385968498482
0,541723003024102
0,533323123845524
0,537239607951701
0,522567599868591
0,523178611001563
0,523310113052894
0,513768693185445
0,502973045040971
0,506900304059036
0,502705805587463
0,50671808906711
0,498179712229711
0,48657220147308
0,493403652771802
0,49545305827422
0,481679328662263
0,487254879592022
0,478464359665818
0,478788130389594
0,47185693796798
0,475263327155248
0,46255085787853
0,460599130275567
0,455024078875947
0,462171964083717
0,45619661181479
0,46064057873305
0,447981143940144
0,443205361085572
0,446630493574271
0,453330963459764
0,439804507941351
0,441783976759867
0,42282142409095
0,424590021148632
0,423238673136627
0,421877242278853
0,417501167859289
0,419657398665869
0,415463064946319
0,418497081934245
0,408574773974645
0,40702257982668
0,398251988716836
0,406932352480572
0,405336486535877
0,397280987486063
0,387145975006834
0,400037317497864
0,391129280243297
0,391992199267548
0,39027580435723
0,392262379750612
0,385136016464645
0,378986528732263
0,379634967173717
0,388596323444248
0,380707566702678
0,376664982565761
0,37948032362309
0,372111500457554
0,369889871258407
0,382342596480362
0,365327597370532
0,360195829589085
0,360814604858306
0,368437143785781
0,363067921887422
0,361608501866657
0,354779508904643
0,359066887237911
0,347267758209423
0,351063848372574
0,350959750779468
0,354034746761363
0,343125769736632
0,347068496139133
0,346012666711632
0,348376689812135
0,341330696200491
0,343063874151174
0,343644524033886
0,341124300884126
0,337597918190546
0,337269291453652
0,327373094358188
0,337793106906113
0,329607765112916
0,330310619012501
0,32830793996447
0,331170825319399
0,327296567970728
0,33115438276404
0,327709314649963
0,330871244866653
0,330150052384849
0,326058816737791
0,31395596712799
0,324295144042831
0,316759019905581
0,321729979521639
0,322692897976941
0,319853544910618
0,311444763418619
0,324250547745105
0,315703349552171
0,316921373167163
0,31929648994129
0,315563134119147
0,312548011329496
0,31112366236379
0,306195576210862
0,315808584933381
0,301949105610453
0,306027139264602
0,300646318278697
0,305569283271885
0,294492405841415
0,299586869166894
0,294739365596093
0,297419013767718
0,289519349839181
0,289384343701685
0,28777791533081
0,287579025104699
0,283369145131134
0,293747439558766
0,285957457299402
0,282379003470801
0,279402145180315
0,285327017184822
0,279435458069642
0,283230816697127
0,277455619556974
0,282449511566318
0,27647057110848
0,281546904610578
0,272867132944847
0,277606795593564
0,273340842827545
0,273524363733776
0,269069438899969
0,271907287660886
0,262617826115995
0,271177092600981
0,267128804347186
0,271076649622591
0,269041451965285
0,26669362500684
0,261898719425851
0,268341455908963
0,263762733551744
0,264381654561365
0,259157900875062
0,267944917739184
0,265859818204973
0,262829802687493
0,25530910693275
0,266479500377264
0,257841307388109
0,259620176050452
0,254514971243884
0,257234969543514
0,250443956738917
0,253783971090452
0,245674032276458
0,249849259858666
0,24860930591564
0,247664018626586
0,242044438297746
0,253936893923895
0,246928748256279
0,243801979345089
0,243651555148296
0,242086177422963
0,232594909384114
0,24452145016232
0,243329521436137
0,238399130855715
0,232558742354051
0,239420454382845
0,228997501693713
0,231649399868797
0,225033540808089
0,227043483591384
0,225152898945057
0,226449985405016
0,221070397088638
0,221611871151017
0,216439806195342
0,216419699840721
0,212600919220795
0,215329418467557
0,209548977390179
0,210006094581187
0,20915381835622
0,211068378001947
0,20679038343571
0,209073913234332
0,202896224634857
0,201059026768096
0,195489256561473
0,203974432434391
0,193340331217099
0,197489765294605
0,197760685090694
0,201271447219891
0,191824545284479
0,197934842052483
0,192444783058384
0,190426326701198
0,190688139652464
0,191222066997661
0,186301492634062
0,189413179424081
0,188089743106586
0,186298559218118
0,183169637663268
0,185510473397797
0,172968503739271
0,181880198166956
0,178862856616577
0,179663502424608
0,175082678640258
0,177403522375962
0,169736082069216
0,17503165967182
0,173384198178157
0,173192528990114
0,171800445700463
0,173619218071214
0,170002564494265
0,171745615758588
0,169586413549355
0,169912359121278
0,165426893849551
0,168046674125763
0,162087337903689
0,16624796423179
0,1601547737112
0,165405595217285
0,160427370537459
0,165281536582496
0,159985112647683
0,161580899578646
0,157323830473441
0,161875821022766
0,154989180420679
0,159373117043749
0,154848901300847
0,15816883286725
0,151234681225962
0,15469803568799
0,153272896705973
0,154542660288457
0,148674482636778
0,151706407899637
0,149283664826607
0,152214202058314
0,149035919230406
0,15263887833625
0,145551717890531
0,147517312624452
0,145593960877659
0,145949634885927
0,145736195232182
0,147901420905198
0,139608643348856
0,143972152110298
0,138392190317349
0,142030313958052
0,139000224744545
0,143630184530438
0,14224634488392
0,143610641600005
0,141544050785387
0,140113290471719
0,135919573332334
0,138679595476328
0,134681010257322
0,142097973173442
0,135898460443716
0,136075626647577
0,131513408218899
0,137949126279686
0,135386506104765
0,140752244845542
0,132406107415083
0,134597100996425
0,129482820689857
0,13438607087375
0,127338738970556
0,134883229958222
0,131096376564899
0,131762614400563
0,131282217731253
0,133473806391513
0,127761934700667
0,130058810523149
0,124651068478883
0,129963187675272
0,12406034776712
0,125604869326693
0,122642567768468
0,12787483968943
0,12015700867208
0,126607482210882
0,122847816887656
0,124673762226381
0,122955691964237
0,123440048253104
0,119936349683889
0,124053964040679
0,119203498805434
0,123550329566976
0,117587881396062
0,119802367120559
0,116576860497586
0,121281469566259
0,121214651820423
0,120663050406514
0,112978504751932
0,121189955220809
0,115283862526114
0,117981578858404
0,115919381875924
0,120842271038295
0,117334739136029
0,120254424079847
0,11412366468831
0,118853681602572
0,115637761017213
0,121079077834226
0,118956817246903
0,118156250226467
0,114041044683927
0,117123639611829
0,111492596312003
0,117244423048756
0,113943651504672
0,117876709347228
0,112136762591162
0,115710034393096
0,112633266267403
0,113119476459129
0,108473432082424
0,116605331640736
0,110835813145245
0,112698482165253
0,107941628852114
0,114081610670636
0,105927423997052
0,112770522705021
0,108545112055835
0,112594209587725
0,109509334446566
0,108602888129537
0,106088163748128
0,110858062630288
0,106046467835233
0,108629347978151
0,107526024242214
0,109981135562688
0,104363338894531
0,10971483887864
0,10260891792277
0,107696796334603
0,104497221935603
0,108536242265814
0,10394183968457
0,108794584277592
0,10293529107015
0,108061004631273
0,101666761785485
0,104147440697268
0,103369604836637
0,104735589951658
0,101013045044639
0,105667767227807
0,101090358871343
0,105608490337991
0,0996901285947927
0,103636109491239
0,0981513145026816
0,101679059693809
0,100323027758833
0,102314646647823
0,0988363540385625
0,100291852810056
0,0982315075965977
0,100629129925812
0,0965046483388017
0,099552508849399
0,0976322153631693
0,100425021560753
0,0934695424319436
0,102128326996795
0,0961543171262965
0,0970330445446744
0,0951724233145507
0,096795351407359
0,0927088257378466
0,0983448108094658
0,0955324263402342
0,0989755094294604
0,091714090810471
0,0973116713859258
0,0950933707065656
0,0963062829936012
0,094728127846808
0,0926024702612353
0,0888257782359504
0,0972075694596799
0,0886689895320545
0,0939736658015029
0,0901889793960028
0,0956249069456918
0,0887235048209284
0,0937930229032807
0,0873786015399301
0,0907521882439073
0,0883461267406984
0,0931440371627292
0,0883414620271216
0,089999762439217
0,0898748095924738
0,0916124405954121
0,0885079776209597
0,0942215101604372
0,0856304179181338
0,0916818312858389
0,0883903124035835
0,0916528368661313
0,0851239303841857
0,0890708019052352
0,0831467695718562
0,0919264728396301
0,0849086940799469
0,0893436713127968
0,0846164987689374
0,0897125050769327
0,0850789454748697
0,0892312875053493
0,0826431727867704
0,0889423004560166
0,0833394285560149
0,086061528078153
0,0858607386093105
0,0849895745938576
0,0859465321838544
0,0889909400474936
0,0839971229185621
0,0876399126211901
0,0840107994826165
0,0884755836915388
0,0810855186259868
0,0845346667381917
0,0832361411849856
0,0894577210118891
0,0811787747508483
0,085417950371008
0,083329335582975
0,0855420958209281
0,0807983138005699
0,0848250671674592
0,0820160376788264
0,0884255418506725
0,0846022551924488
0,0870667311913043
0,0832090533525275
0,08532213602166
0,0810665995705338
0,0872579631969183
0,0810337345454618
0,0866436324174722
0,0810507101998227
0,0862582825572359
0,0805409487461843
0,0845123198460691
0,0797921728035508
0,0839787296523203
0,0824903561062207
0,0849159532331071
0,0831136555448853
0,0854944064482428
0,079850467236951
0,0847122538933851
0,0803890398723079
0,0844762038666034
0,0792201985145099
0,0807464700978203
0,0770025532653326
0,0826582537668625
0,0795507431365299
0,0851298792169505
0,0812316301438226
0,0854393938235862
0,0775494693766808
0,0857472240121507
0,0808772001632726
0,0818467217302658
0,0795109690519666
0,0832802559980954
0,0786472064316402
0,0859202827294643
0,0808205987744054
0,0822225806603847
0,0767680594032215
0,0844158456622533
0,0813282719396994
0,0831443816341516
0,0799584159170784
0,0815304536124709
0,0795358880007676
0,0825318300235636
0,0795089910801944
0,0838103242178135
0,0803895543032044
0,0835846664622581
0,0782329650323684
0,0848207828638753
0,0777493168245574
0,0829352528600194
0,079398013974525
0,0831605486825652
0,0781375708031878
0,0832680245963447
0,0779858066167863
0,0842709529713893
0,0803821005035103
0,0830668837587346
0,079868958962147
0,0828753473088707
0,0805610229282663
0,0867311173753434
0,0792625451013411
0,0832882934297673
0,0823044124042363
0,0840305679916845
0,0829104170586449
0,0844685543247156
0,0784339854845545
0,0822391105866689
0,0800119469501102
0,0838203216532218
0,0802192507290301
0,082035380028638
0,0778190223593778
0,0859116318764926
0,0794950806154422
0,0826111846148126
0,0767729325046275
0,0845412316209455
0,0801512386565563
0,0813500736801661
0,07550537096758
0,083430369785978
0,079360037222103
0,082942882139082
0,0772918346263656
0,083725189145058
0,0785821761966193
0,0825081198016324
0,0800412730991183
0,0833657204609363
0,0776149932796101
0,0822902041762122
0,0806960967334626
0,0808141247497959
0,0794905859959842
0,08640624855928
0,0797274235481561
0,085974096360606
0,0804207239695786
0,0851043091714912
0,0813491408643276
0,0860593994891695
0,0811801846197518
0,0835155690558047
0,0819980716091993
0,0840195432831001
0,0815452955584327
0,08419768836064
0,0815199121612357
0,0865355198381692
0,0802980660353058
0,0831117790313604
0,0800950779996205
0,0841412132920205
0,0779018520516597
0,0857797430931262
0,0814323859939114
0,0830121829956088
0,0808601814826143
0,084851457767525
0,0799213700920176
0,0844458060428685
0,0812738561435987
0,082882108370372
0,0813431453893843
0,0852238382232811
0,0813735923091645
0,0873576231464897
0,0823631702505574
0,0844942093696079
0,0785817284896027
0,0845268756169103
0,080879403669495
0,0854798480234478
0,0798076504596517
0,0852704633734822
0,0812062226497206
0,0830832816520071
0,0771023838754157
0,0862778275036229
0,082812012243331
0,0835445293289059
0,0781992858335849
0,0895460867934087
0,0807982991561887
0,0834184996681563
0,0808608973335109
0,0836727261920262
0,080692701631385
0,0813705299229038
0,0795479181149929
0,0848655408916518
0,0800967850650515
0,086487335415665
0,0792193436962623
0,0848713288080999
0,0821647600209235
0,0859125204374089
0,0829997773194981
0,0871112235292597
0,0800545659816426
0,0872921609058022
0,0816969003700803
0,0898114566029608
0,0842484473063051
0,0846301176601957
0,0807518044208261
0,085278523686274
0,083791222957153
0,0892307388887794
0,0814658273338135
0,0905558802071434
0,0830421600017864
0,0858841934598371
0,0818993092215549
0,0873992050783848
0,0805927805111249
0,0871600362382321
0,0839019623538033
0,0884664006259353
0,0849701178027378
0,0855625654103009
0,0823103566815694
0,0877147666313845
0,0837141119253167
0,0855183240478365
0,0836244410947618
0,087514547120619
0,083391379631789
0,0862347459849857
0,0840744955397071
0,0896505168112411
0,0826780842493632
0,0866121996609652
0,0818267164490969
0,0878207697143605
0,0826235740377468
0,0889554736272906
0,0842541960129141
0,0892510367350855
0,085828576941711
0,0898650462081759
0,084755978363227
0,0901254238786276
0,084698381688063
0,0903909157108081
0,0840177698237186
0,0884760528393794
0,0827516803436903
0,0901373636463517
0,0836068515957933
0,0881682526499076
0,0858838513219191
0,0917896961647067
0,087644266787312
0,0898903402722
0,0838016295688685
0,0901442323324078
0,0865542563593091
0,0918795556437185
0,0848100975702089
0,088544855165701
0,0872293805280416
0,0945198500878062
0,0861070701699417
0,0925114656930659
0,086511699327482
0,0912856240593608
0,0880030964961163
0,0935775377319022
0,0875931963686109
0,0980115706002205
0,0905734851459356
0,0994799724953083
0,0918309287797015
0,10202183381396
0,092709108403595
0,100370200883478
0,0892151287271225
0,1065173939746
0,0982921150879364
0,109666980591388
0,0948468977722518
0,0998475676053097
0,0857536420031177
0,101416385714616
0,0986813098775931
0,103790042906439
0,0876674995868266
0,10439155939993
0,0967378202399482
0,103144579388448
0,0951500439705659
0,10721440583538
0,0981895052202179
0,109115806454772
0,0887039801519708
0,112038756146037
0,0905756498341704
0,107932087416425
0,0943880233139075
0,101332251398432
0,0952072378148015
0,107127915664179
0,0862409735570395
0,106530897367794
0,0886730261710109
0,104232123695328
0,0874806136889765
0,106629833603458
0,0849152373164856
0,111239881017633
0,083894530697964
0,111058856910439
0,0836886120391856
0,115209682588701
0,0851312565244647
0,122226796455698
0,085109729689119
0,127329251445125
0,0811217667331398
0,114695825440223
0,0736724144240211
0,125910291693495
0,0824082245048261
0,137493090213895
0,0780486239501988
0,129388957417321
0,0763466552731862
0,139335480668673
0,0852767866774465
0,127546139614314
0,0798294547925371
0,127953707931089
0,0958099924125371
0,11359853520307
0,0970026208265581
0,112382393323033
0,105729794580693
0,0920440353454306
0,116210337709595
0,0910681235237222
0,120155288695973
0,0918176846628616
0,12195157460642
0,094223353561137
0,117132387143616
0,0977790307030104
0,10760193861449
0,104032576617804
0,102884778402757
0,107161372092194
0,103549555282575
0,110928638629908
0,104197520459249
0,109768697400963
0,108141537063254
0,105734915276873
0,109027719392815
0,103611520098482
0,107547551004656
0,103862188192534
0,105847423222338
0,105636255900598
0,106104510664863
0,104282188008867
0,105627024588361
0,106458558245927
0,107309424606017
0,106415957987571
0,106590030657995
0,10620019435163
0,106601174436289
0,107096333706473
0,103888096650378
0,110097833875928
0,106543467732521
0,110718291381908
0,109964692271119
0,109906447066418
0,109798324495484
0,109906105117818
0,111061293700741
0,110341636192754
0,110187116881711
0,111029289479673
0,110157050338224
0,112676243022591
0,111169042808087
0,109597885901906
0,111856683216707
0,112311440404465
0,112315409811971
0,114133069667417
0,113758036636723
0,113558158625193
0,114713831810422
0,114011942395763
0,113168574991554
0,114568321532041
0,111704802456795
0,111699624620511
0,113790178160071
0,114929397062046
0,117359436587395
0,118370428504016
0,113392289987376
0,116635878563865
0,115553796677439
0,115414928537601
0,114720394981894
0,116945332200551
0,116745284775922
0,1189986029376
0,118830752367345
0,119919596312232
0,117791513226164
0,118870454484732
0,117040516585525
0,116141442827707
0,115031403286767
0,120698071046017
0,11993281140031
0,120692898675808
0,121121940421769
0,12246444436486
0,120212341277714
0,120656216624943
0,119711201585008
0,121700478303048
0,121166244050968
0,122241755287001
0,119347779838157
0,123588806802557
0,122491889468318
0,123927375152556
0,121379579297863
0,124189073936212
0,12343987173689
0,124739621724826
0,122796041140094
0,125013594884757
0,125388052663232
0,127876278645131
0,123971329017637
0,126959116879507
0,124790301551177
0,126464627677665
0,124506266479219
0,128447126468332
0,129337512561013
0,128223170200105
0,123688852458567
0,12840198083599
0,129097855622565
0,129189355149195
0,127267571198033
0,129895020962112
0,129398624011183
0,129421415936421
0,12632414986866
0,13182801764822
0,129041117227715
0,131230533413565
0,131521395870425
0,130758073485629
0,131117905998113
0,132337432314931
0,128959168179462
0,133321309202919
0,131332023430593
0,133143130135191
0,130535350157811
0,135648203008691
0,132691341853905
0,133520284662116
0,133438709097874
0,133343391218013
0,131861259858173
0,134211697701073
0,133859563378677
0,138581985361294
0,132462273291955
0,137605473033994
0,134415032377644
0,1369433780801
0,135077308899851
0,137155948662524
0,134896940619748
0,137125914147169
0,134244098690907
0,139086426416645
0,136073166904005
0,140647257403643
0,137009030998871
0,137150322165923
0,136091775685369
0,13910440962055
0,138731642206062
0,139383084814491
0,136209689440846
0,141854096739769
0,138237927511222
0,140358244237113
0,139034863242161
0,142046707068175
0,138900830519235
0,139494646196578
0,138854240054084
0,142000981642332
0,137446561101294
0,143085017038538
0,141460987912535
0,144655133282421
0,141560543816039
0,144584488641663
0,140540990284545
0,142959025862286
0,139020370599733
0,144014280809187
0,142167231260711
0,143282658986879
0,141172392260566
0,146612703548819
0,142772656543627
0,143592210689213
0,138445428326199
0,14294697873735
0,141899232436066
0,143519304543145
0,13978403204714
0,14503828502752
0,142613837563485
0,144117783691405
0,144198359548973
0,144767255154753
0,141824370107734
0,142258490104388
0,140992301109256
0,145762556846911
0,141078195628579
0,145060662821788
0,140080785091525
0,145206971519273
0,141818483188802
0,145675108821618
0,141965194973595
0,143418526136762
0,141870959786387
0,1453929759661
0,142918724293569
0,144132648573003
0,142379860933391
0,145327096387321
0,141130924790975
0,148058000086834
0,141533637588549
0,14282152504997
0,141264391743509
0,14494734620352
0,1411685016847
0,145696925316007
0,141111469691072
0,14424037536625
0,141067079649046
0,145357844813894
0,143659097424382
0,143544111082291
0,140554116876135
0,143330301483836
0,140169490357339
0,144742210383386
0,139316233476298
0,141945405734668
0,142435842187186
0,142234262520883
0,138877323488317
0,144686541640192
0,139308807497418
0,141610767264707
0,138100034752477
0,143791394999597
0,142681945583367
0,140830319343398
0,138901063951873
0,141969385163117
0,138111883690951
0,139149861573933
0,13745677379737
0,14157321440648
0,137814051353069
0,140981097455649
0,140557822672209
0,140147813626252
0,1383255746069
0,142168634206257
0,139621507442777
0,140042509520367
0,13583426693563
0,139066895513957
0,136938418498332
0,138589191172162
0,13637707583193
0,138173687506146
0,136384489304984
0,137712000680845
0,137153203488651
0,13865242392768
0,13760282382435
0,138823097331402
0,135522465083499
0,135467247894784
0,131273849592835
0,139443776889685
0,131144805502406
0,135179809686797
0,132605265487436
0,134641595136608
0,13322871031308
0,13479671003401
0,131969019946975
0,134033512956906
0,131704968798834
0,135115519827929
0,130270397806487
0,134825732265973
0,128531814756452
0,131860794294761
0,129535614600981
0,134136477808292
0,130620198692297
0,134315980137534
0,128028084067238
0,135178685811186
0,130717649982744
0,130800169018176
0,128578872754298
0,131237495687535
0,126825405330651
0,130876134507003
0,127699762964294
0,132838863216346
0,127825015816571
0,1275707764901
0,1261784442593
0,128372275561079
0,124149150727964
0,124717412681596
0,124753278643185
0,125868698330067
0,124194748638049
0,124544122125044
0,124131015378158
0,125686424657204
0,122927978914278
0,122321808698655
0,122413626401887
0,12319220097181
0,121508237198898
0,121566128125605
0,128434830425136
0,123599766329088
0,122415649626376
0,123110347890131
0,119746930984185
0,120550508571788
0,11943202929516
0,119825864005359
0,115594867892532
0,121227397481542
0,116736162981711
0,118469454110666
0,11570601050885
0,118514033936632
0,117615699808089
0,116253416824434
0,113569542779421
0,115660342108337
0,113673268136086
0,117437102134805
0,113468517237873
0,116029583633555
0,1153729833014
0,113245374224926
0,11352375334345
0,115568847498015
0,107902299806314
0,123701296356094
0,112039920408484
0,118574005703699
0,111524988818709
0,116952107174034
0,107791860638701
0,114141567574075
0,108304603063251
0,113898753147554
0,108313446172437
0,115475469634593
0,10863738872298
0,113284087757768
0,107817276939319
0,113979132787467
0,107175524988512
0,111167961496998
0,107752296736395
0,109107117008124
0,104641095343368
0,109584089002131
0,106239636314489
0,107213078577625
0,104737920194714
0,109313763012134
0,102973561730201
0,114144101646608
0,106641846491959
0,108628261306131
0,104054582263042
0,10693652039034
0,103849180395917
0,10469244318537
0,104083835792511
0,105217679547462
0,101315248335315
0,105100835379897
0,103446513996203
0,103728065332988
0,10258430463653
0,106427772672096
0,0999387285814242
0,105427419201501
0,0997029283814528
0,105835043148461
0,0985855942730165
0,101926586364604
0,0971144871138092
0,101160509692684
0,101377495159098
0,106196263414798
0,0978586378751728
0,0980325248024086
0,116092532815353
0,0971490627638354
0,10238842028295
0,09874807456174
0,0986819388673652
0,102262337315962
0,0964847667088495
0,100698676143197
0,0976324416824643
0,0982634998519912
0,10026329995172
0,098351978147122
0,0974299954589653
0,0982325164387109
0,0971562998910674
0,0998014344017737
0,0988559547774337
0,0970489513244471
0,0993076524954776
0,0992932288497675
0,102017788729941
0,107945845393474
0,101225091778417
0,095344728469571
0,102218014217876
0,0855410135660132
0,109733778434726
0,10241781739123
0,0933587465407211
0,0992840154474029
0,0925853796752673
0,099137082662709
0,0921030095081784
0,0993181360992381
0,0946263861147073
0,104406493427054
0,09056603813048
0,103283108645899
0,0916833221587782
0,0985837950664227
0,0925543345180947
0,0971133808807885
0,0913257076178355
0,0971897670337414
0,0927810438576623
0,0946229629135816
0,0918529573727309
0,0947588040970449
0,0933693952604733
0,0930412361823339
0,0930404421768822
0,102333981810875
0,0902634362215459
0,0959078545215769
0,0902829610636706
0,0953433232918098
0,0900324888019435
0,117687456946029
0,0873664572969893
0,101094447450021
0,0896340712483881
0,0977060233578564
0,0927776767025881
0,0969354210906825
0,0912543556403926
0,0962713145544929
0,0894211139924023
0,0976122388966651
0,0904060704693397
0,0955838265118821
0,0933382553017247
0,095356997265099
0,0916691934219129
0,0946639337098309
0,0939855236316233
0,0900788068505633
0,0970355276938541
0,093084614496102
0,0961978007000311
0,113186788679024
0,0916958592497386
0,106451128019613
0,0932133291979212
0,0980267530858965
0,0884996190228782
0,100744075897366
0,089051997867451
0,102154555756386
0,0909459747878137
0,0983642283135243
0,0905062116324685
0,0997809196691265
0,0889515939424834
0,101518868251907
0,0879633564146488
0,102917143419056
0,0884352597145792
0,101434813999718
0,087872821749173
0,103564244222841
0,0854659530828325
0,106800266590832
0,0923206843763694
0,106117246312284
0,0813928375222223
0,112337457497368
0,120925815858858
0,0902655008814761
0,106134937835054
0,0918940348739935
0,101276368758283
0,0952236829042038
0,0955317594741086
0,0998851491499552
0,0978381815457958
0,0970364979791378
0,0965694022025081
0,0954019251364139
0,0992547991651291
0,0931999265789347
0,0876294676958651
0,120972505580558
0,0990018873521945
0,101106018992541
0,099149131237668
0,0898383457887229
0,119728986357821
0,0984867956245466
0,102105962131235
0,0996883141582621
0,0969612212990447
0,101085051220747
0,095229010920872
0,100465438266283
0,100626877782248
0,10714044492889
0,0955614734159615
0,106132226744434
0,0928928903630316
0,104780351178189
0,0993383709225127
0,107563721082853
0,10914218081188
0,10080077724476
0,104540344932932
0,108552037698382
0,100442991943184
0,106034109892806
0,102264842754674
0,103807501895334
0,101076844441366
0,11873113602379
0,0968994405970703
0,115608138622062
0,112685032739888
0,103251243652813
0,111372211425409
0,111212942799001
0,107852745870927
0,109064034166476
0,0930699049808467
0,150193057580035
0,0936886692244166
0,138143101536535
0,101385607303308
0,122870374603966
0,100377413065875
0,122591350416743
0,0920616166104345
0,127069903679817
0,106991046418043
0,116636379668999
0,109808664343374
0,116402131036137
0,123548515233257
0,115204546456705
0,116088029422088
0,111886733242381
0,113466204723443
0,120855062855458
0,126515032868124
0,0997576208091879
0,141405381267051
0,139239158052617
0,129870862335639
0,133743108491828
0,101961232153281
0,167683969478635
0,121637088925445
0,129267758721438
0,123160458055777
0,124907340791944
0,126655944444724
0,114478496045383
0,15195475841807
0,13922949580437
0,123977177424064
0,143557207462844
0,118133576590884
0,148636173354778
0,140637156040326
0,137300729802925
0,130362314484267
0,147709227724415
0,12190167254039
0,165761151542588
0,16364620794897
0,131289770884678
0,176839093587488
0,144227213764186
0,164344981843436
0,146482366095725
0,156876534705219
0,153136205259746
0,173482454469637
0,155544904040288
0,154308977853414
0,154555781890892
0,197363605280873
0,148682611109186
0,171648710685366
0,163669517017905
0,158739254636885
0,185458395970314
0,220677457781531
0,193140487422922
0,182428859095494
0,168285040643034
0,205493300666881
0,183744476355724
0,182473181828047
0,190167063627225
0,188100876321089
0,194810956194275
0,192431064722017
0,208565917861735
0,206130640159242
0,20021822386918
0,215433690159182
0,194746587843405
0,222761886614797
0,237041626072663
0,271790167259605
0,21424178442251
0,276211757640188
0,252578665594999
0,237684748959049
0,245500358134186
0,236320043197257
0,260819597700748
0,253380847533097
0,258521585474851
0,254954540550937
0,28269701604862
0,295638238472599
0,257208745226349
0,318960862296521
0,269834313207702
0,308551383346863
0,234896283711385
0,489615477725944
0,32987866591071
0,317542677111255
0,336688507225083
0,294159549161622
0,426387005283931
0,341002250448923
0,348653335143487
0,354916837760303
0,354626920967556
0,363973146992549
0,383145897789916
0,379232815595812
0,398677912317317
0,399930748561876
0,389079081158524
0,398906711095048
0,492247990088423
0,45921092546113
0,463065404340277
0,426279605583822
0,457639739984761
0,466662422611712
0,467023122755882
0,467837401897703
0,485519741172557
0,443225971628071
0,576423735571709
0,487867458965443
0,527771188444031
0,501535277601142
0,568340876599122
0,508408618083281
0,55999939560406
0,589722687491689
0,555522681816235
0,572999821590957
0,558972578766119
0,590225842955558
0,559434245236278
0,629443044308673
0,624791245792636
0,594382403957924
0,618315506757706
0,617663296920486
0,631956714104752
0,621603272141739
0,65208566582851
0,638024785458701
0,681076749101089
0,651049008697136
0,861167391173477
0,732269778214873
0,663600873796332
0,693540725975442
0,660680474588054
0,747739276248276
0,707397317686801
0,725467300792297
0,768256972307667
0,700963313717245
0,722372190243032
0,701292484509197
0,727016373740365
0,718770623185209
0,746104535782934
0,700543636256159
0,770550085015669
0,740862303200488
0,676121560960655
0,884561318098569
0,715197310918239
0,722786787399233
0,713225427832465
0,712052670182205
0,724982083814042
0,728259158628879
0,702078374817014
0,744407156751306
0,683554090446749
0,71006888715726
0,675777977403858
0,701840634139101
0,734010581507417
0,666623700771525
0,675163058899594
0,637437737697199
0,644937851960808
0,630565795179332
0,597922835130115
0,736519921474996
0,622165056242632
0,61437268353638
0,59830431722453
0,599588889294062
0,593458915638776
0,578467296232224
0,565666401841165
0,566383143754419
0,54484262040781
0,550584837534547
0,539631488535031
0,526984021538225
0,515236492592126
0,524353669027644
0,52020062101184
0,492941402209496
0,501404822615669
0,484088041514101
0,493642714749212
0,470289109186759
0,476640799495512
0,468356492877023
0,465177683849003
0,462887929628686
0,453419623450293
0,442621354450008
0,443452766537577
0,437106296199692
0,437310530256162
0,428396720575667
0,432004415793256
0,418469576144946
0,424106756481033
0,410171716468332
0,40703354946933
0,40914162470793
0,41212157826113
0,394884673353675
0,406004260766497
0,382389780915276
0,402525652843666
0,36357027084028
0,437830841973653
0,427095579605011
0,365486382602801
0,392737439109486
0,360731064024646
0,381245153249236
0,347599336692969
0,396273459030976
0,39465199931967
0,358701025831089
0,364928402181923
0,353371278947063
0,356512827812578
0,372763403212955
0,342080228962724
0,365260855363682
0,330360463039338
0,353634796776073
0,455313237435532
0,320024256871541
0,447383049269541
0,341356848004158
0,345530748278304
0,305811055641539
0,39338226831862
0,319562137740556
0,337712292904467
0,315750054434374
0,351064527793252
0,34156099029098
0,310797004689264
0,332032460569505
0,309436156021887
0,324284571885165
0,346202601368619
0,317440215451845
0,307940065897912
0,36705475265401
0,318179170044635
0,323333834213752
0,357604400657163
0,333377690621636
0,300783647210957
0,299613907236826
0,306698651788335
0,280523078647861
0,363923542323259
0,303621916087359
0,304252839097778
0,302933168099149
0,276875074604442
0,298344871903589
0,287522333161231
0,312823220654744
0,267007593108289
0,335684946231315
0,271573389678493
0,287705713740672
0,305508827720223
0,296429984925498
0,333433865262837
0,285229291331703
0,277810357386586
0,277069751009908
0,334259451206741
0,271879129301064
0,297317227195388
0,275649019955601
0,257586446643492
0,294545275951691
0,274248474078367
0,269109709642
0,290484178937215
0,261616088343746
0,321471367109281
0,304201262367643
0,321146704260146
0,28218015853987
0,256861240238653
0,266471499733337
0,265006284497832
0,270963033870358
0,263270119449898
0,264066680820703
0,291813424910645
0,223236471722724
0,310223375147038
0,265257066464026
0,259979994688245
0,259809049699754
0,259146938146163
0,259807453365257
0,283629765277331
0,282810157316547
0,289389160542669
0,249161258258295
0,29850572888567
0,249491652586379
0,271581962332322
0,253294232954872
0,272159357203659
0,256409038533439
0,276166838312189
0,262973611399889
0,269376931620807
0,260280895145417
0,273569508853093
0,250253297739887
0,314126840708009
0,243510212750271
0,295808739270765
0,282358855259438
0,305253679149319
0,296949526409671
0,268687976508404
0,280880630760233
0,276945123479014
0,27986263194999
0,285708915850497
0,267300314895198
0,327263082534603
0,27283941959779
0,292508251903486
0,277782478717773
0,291294192831377
0,277447535267941
0,305481432623536
0,303706866323001
0,293378023276465
0,355750308536992
0,284877729646523
0,304465777822584
0,278672301098906
0,296368336012403
0,297030123583162
0,284537688649099
0,294236473937269
0,272423241537682
0,311003183097362
0,295866786908321
0,285713227997915
0,292922153824161
0,289481025826806
0,289401295755915
0,292164995074891
0,291414418711147
0,295652313223091
0,284880488653754
0,302261352994245
0,259806031686476
0,350274679505427
0,312358640742493
0,286482428243924
0,299271636632164
0,289530117473042
0,302756358658908
0,287059291533323
0,306861765633016
0,308335906858953
0,291687329540566
0,30936752950717
0,293046303914978
0,30423117045379
0,29516012838562
0,3221485053614
0,298336927939251
0,303869530130443
0,300858606491026
0,271019844075765
0,363344736365863
0,296991578592855
0,328836598140976
0,299978858637414
0,308897018489392
0,29530118431064
0,304224995056106
0,304714406103975
0,308318325650449
0,30035376833755
0,30605500114801
0,305090594625374
0,300959941291936
0,306559595307147
0,296734850115231
0,323425714797498
0,30428964654744
0,296405331948298
0,303981549963439
0,300130658931293
0,297800004648205
0,307519870081589
0,320599176115285
0,292946018234778
0,310697769123875
0,298510066765821
0,313053581741507
0,312347306979235
0,294872929627837
0,300715843464737
0,298226714101886
0,291952613560098
0,306013567068409
0,289905156924532
0,330495419182161
0,301502249552802
0,306572384875536
0,298344829175797
0,303524769051244
0,297556111721885
0,306311674195479
0,300687034080983
0,307291529953723
0,301588952932947
0,309988807303082
0,308996792611158
0,305848721374845
0,318735888471032
0,313216417286794
0,314895463831416
0,310172854433322
0,308016541758159
0,309347814642316
0,301652700306627
0,318554922539822
0,302984477733541
0,306383803564317
0,298314607642578
0,307001951139704
0,28692557923311
0,322545280312229
0,303846185922103
0,29763854058872
0,303635218090031
0,2850789148798
0,299154865050955
0,289288857947521
0,292616779911029
0,290776775552396
0,296228628015325
0,289486020465854
0,290158434760303
0,28723064820583
0,286567319306835
0,286568416310996
0,291658318353391
0,28849345559188
0,286185422222321
0,288897364864647
0,283719224207525
0,287648043586866
0,284555299303632
0,28558083282576
0,284282036774278
0,289397424666313
0,298792255109336
0,292432331970735
0,293027928416254
0,28055278779421
0,296484305814529
0,276734252824094
0,290026474372681
0,282387280857679
0,28760965832399
0,28034985766783
0,28629612736668
0,283392365404168
0,285202273925292
0,2833162401823
0,284598065923275
0,281416972351308
0,282957759390995
0,280785053028692
0,281661726761884
0,279339992545743
0,280448463042548
0,280343428884664
0,284192286201726
0,285598712789467
0,277074000369563
0,283631054723499
0,280981016391994
0,284087589607155
0,280808150749527
0,282492095650339
0,282434900496841
0,277789739530105
0,280726710783775
0,278044019543548
0,280038542508747
0,278306111296331
0,277383229112003
0,276033647475269
0,275151604004056
0,275722995472421
0,278972707960169
0,273793035742941
0,275617414812435
0,274518926056783
0,274839790901061
0,271641702157785
0,27288921234511
0,271445972863993
0,27016873014351
0,269526624336622
0,270679473638899
0,272269364840334
0,270054364516968
0,27033412780096
0,26944313507211
0,271981476420874
0,270521436787494
0,268771220379967
0,267286815520475
0,269045947008559
0,268998493680425
0,269619866017261
0,268105561398153
0,267540702677716
0,267399654130962
0,267177062245692
0,267467666570629
0,268603755842812
0,270062789933223
0,268427960193213
0,268375591937261
0,270056139995078
0,268965390948928
0,270037953107017
0,26796085459485
0,270206727397959
0,271001884964762
0,271402823430139
0,269645071920318
0,271476969020491
0,273510866070744
0,273793808196862
0,272385373278002
0,271557261748169
0,272211576744921
0,269202326272611
0,274005244868782
0,273973782797055
0,27345298488421
0,270994737371904
0,273026126484471
0,271035570811217
0,272158265690228
0,269955952056593
0,269667171716218
0,271513170040853
0,268542854896745
0,269444295864688
0,270809961005352
0,270208806366525
0,269664560395105
0,267590267423614
0,266337319553599
0,269735185616605
0,267614414913427
0,265205038712398
0,266858926928462
0,264340490244886
0,264073543741444
0,264764498518965
0,263190846742857
0,262290144488892
0,260609527570231
0,264887352018946
0,264588997723979
0,262493043207477
0,264408580822461
0,26423800735195
0,262809562944579
0,261457407852008
0,262509427790169
0,2617220253138
0,260920781859983
0,259971900909423
0,261125005552503
0,261538948299193
0,260808768097881
0,259879590336727
0,259072892318124
0,25710911859706
0,258306651360348
0,257312427941028
0,255267666916115
0,255773100916585
0,255439441965076
0,254374230432818
0,254331426889846
0,253109174965012
0,252327662680227
0,252831660089597
0,251265652424248
0,250892174151427
0,252519430367535
0,250232712997949
0,250199625763228
0,251134489294818
0,251929876523712
0,249617820221998
0,248532419258387
0,249071320962894
0,247961571938817
0,248737656735551
0,247840629039806
0,244174309356179
0,246079289142291
0,246357112118504
0,245830527267665
0,24461866314672
0,245562507150418
0,24246875713542
0,242109186363224
0,240536621612901
0,241074620111213
0,240655124308142
0,241622361638249
0,24155153308304
0,24224846414192
0,242487286929816
0,243084353205471
0,24530354457058
0,245627910114519
0,247922597819394
0,250423258254521
0,251982166118963
0,253868972464729
0,257959835728573
0,260086423340531
0,262165617971477
0,268145636814175
0,27122908314132
0,274990384964401
0,280155333436556
0,284390889130273
0,288211514890021
0,293360437140752
0,297117081971582
0,302890108220206
0,307391763462213
0,312971043420669
0,316546321702758
0,322338775537006
0,324878598548066
0,327451858789938
0,331526084136708
0,336376223265956
0,339923007525289
0,338845233042398
0,341417947953805
0,341114285178436
0,343706968278934
0,344864392891022
0,344919424259587
0,343071128662404
0,344192373582676
0,340970659460177
0,340061894590344
0,337948739058632
0,336071782318144
0,336240660446782
0,336932255821002
0,3363945801489
0,335503889311029
0,333004618623495
0,33470808924883
0,334166709766956
0,333633229518461
0,334182243916657
0,334529196232819
0,337860656856154
0,340769940076907
0,340356516885627
0,343657059422756
0,345129566016787
0,346511408176536
0,349345934795422
0,353264488767375
0,357956896207309
0,360792642823907
0,363933848496312
0,369559997135473
0,372426955067641
0,375557896516787
0,383474964109015
0,388878078144171
0,389255833249048
0,389750574612307
0,392457098873098
0,393713271621366
0,396053063653611
0,396104244483639
0,393214822471694
0,39271025157237
0,391405096172981
0,387526532762299
0,385233080648152
0,380813827984
0,382425414894004
0,383084283564044
0,383647534194156
0,382543286926055
0,383699913874817
0,385155156523439
0,386968149123558
0,392078703079258
0,394820145983648
0,400360422619429
0,405228607127059
0,4088122105774
0,413239609505793
0,419616417556513
0,42114020612917
0,42707483720288
0,43021201628326
0,431590229164584
0,435294957016483
0,440488761318774
0,446704358401618
0,449055109001705
0,453331967582577
0,462117962391864
0,462155368324973
0,469321245309453
0,480310147215382
0,485456542049285
0,490926039131363
0,49776857079474
0,504008709930239
0,510551744602578
0,514869960527145
0,520227064435756
0,534038720270403
0,541185815249047
0,543818092390892
0,551560155417938
0,548256225122818
0,542897904515146
0,548640828948434
0,554371181484325
0,553183312262431
0,549430078160651
0,546046352837971
0,542497800525003
0,537107573618057
0,534173156731824
0,526898455942239
0,519080361460195
0,516778261127909
0,512751910110692
0,507461346939105
0,505776190814133
0,506485570983045
0,507422738829725
0,506789950534261
0,509544586478144
0,507321389902706
0,5120889407898
0,511441465487862
0,512309312995149
0,521224370842584
0,525855056129023
0,530809746312126
0,529379813340816
0,532595637415323
0,531311965564783
0,538272308359371
0,543208163726343
0,54431308735095
0,545552999880268
0,548993554421033
0,55275398396883
0,544125053336312
0,547758418552263
0,554015628543669
0,548978911419343
0,544859016868788
0,548451905890187
0,54562855737225
0,542169001491341
0,546598853596698
0,547041480833891
0,543698205303336
0,539320268118084
0,53713116757956
0,532227565648745
0,533619448888469
0,526663695112638
0,523926248519666
0,523505858132252
0,521239220904166
0,513981797412631
0,513455706145338
0,51172629193379
0,502538807136553
0,498244719921595
0,491543472700562
0,483626165958218
0,476716665862366
0,465293371941731
0,456891491566116
0,447727083270762
0,436018285579736
0,425127473080346
0,413240548518794
0,407568971918596
0,39820211900402
0,390940149215141
0,3789176756347
0,370679686183911
0,367937905781414
0,368331882141667
0,363195432465495
0,357835700718093
0,36252027814002
0,365164054245365
0,366870102512113
0,369904173715388
0,371277927104818
0,372487190490887
0,371166580173372
0,368308638691762
0,366907034402185
0,365708976113523
0,363381910723386
0,362667751733823
0,359665179687145
0,361131431454524
0,356641948841161
0,355299567639733
0,353902915911153
0,348443444832187
0,34087803106702
0,338333680034924
0,337443015073712
0,335888643798309
0,330005296210114
0,330214775503885
0,324585080495317
0,324936154506898
0,316914158058088
0,315391503106124
0,313120698238296
0,31060535434139
0,310916869015369
0,30938082462069
0,304771076176214
0,30372468601063
0,304097801676205
0,304365140496296
0,305697707863568
0,306362658160881
0,301398328796873
0,303784917746071
0,304077378919139
0,301413779324106
0,30321961307903
0,30563797884974
0,302420365480077
0,302337351591129
0,306254131556123
0,303388096940243
0,312132595104095
0,30908670717786
0,310016985853202
0,315142822433142
0,31553711189635
0,311267120827463
0,315025873635643
0,318233105155403
0,321636640130405
0,32706043363439
0,32667151703933
0,325158902906874
0,325126080841829
0,331838291976211
0,327756516853741
0,327677661173767
0,334359836361827
0,328987125118347
0,332359285827879
0,333571757753352
0,335255007681322
0,338344793776582
0,338607724962643
0,340575062863857
0,344711307731068
0,341681792079794
0,344681184031254
0,349708326513755
0,34201026188699
0,351998811967203
0,353790337295282
0,353241420843265
0,358347509736635
0,362163541240001
0,362692225902207
0,359664547443953
0,365603696316615
0,370020172636898
0,371589931801556
0,375033751287181
0,377678104602772
0,375222915024315
0,378232921512699
0,379022392392029
0,383025275638332
0,38997124599196
0,384053107014063
0,381750085853501
0,385753919360706
0,387946098210487
0,395651451972066
0,402344663207069
0,404406109822832
0,404143161763099
0,410704847237458
0,409470314430556
0,414186026105513
0,412720290759974
0,416764794828153
0,420325148292205
0,422981312352277
0,432661795745844
0,435361763062915
0,44365730645073
0,446465720942044
0,452047223934447
0,447740603496058
0,458774674001101
0,463375874519335
0,462983063993817
0,458169170098485
0,461088058744612
0,472318792488719
0,471459748834945
0,476293728433715
0,47764717711607
0,475286437134309
0,480862886222542
0,487801801616613
0,48343636509664
0,484942022395532
0,485263024362358
0,492594839813325
0,498667963530433
0,499851332606108
0,496738458497592
0,504375739652302
0,51069785183343
0,513425087774736
0,510842377875849
0,518570675310881
0,508615350145061
0,51359673091089
0,533989357799134
0,523511291965851
0,528262010924023
0,536014428361279
0,540096289433127
0,539201845783691
0,540227597210791
0,553077150811745
0,560893633025934
0,564244231972128
0,563150578685298
0,560582690093519
0,561786413015443
0,57232440789152
0,557315686896852
0,582124932505949
0,583617459717783
0,576322829606934
0,585710221467108
0,597523193064865
0,581059344003036
0,588785165486403
0,597448512911453
0,601899789314317
0,611019033618441
0,615336502962613
0,613893129324739
0,623533311914169
0,629577482312869
0,625749160273332
0,628302795292143
0,634980041234744
0,624403612362806
0,640037197387428
0,649774661638189
0,631963598529317
0,644878309561941
0,659267975885127
0,648440050611117
0,658107745247563
0,664545528832698
0,657741912461642
0,66286639322857
0,692804278870063
0,669813560445527
0,65525375331214
0,698042754511434
0,701707101590671
0,69068565819973
0,699863670821696
0,697738753029827
0,699947133167771
0,712611650278804
0,710350651681058
0,713466150378705
0,715261129783483
0,702371802857161
0,707556971135997
0,73110248181419
0,745893680163098
0,718142394471676
0,726955027434087
0,745036669771979
0,752959126486897
0,757199074039708
0,784806318262811
0,748123198657039
0,770307717419237
0,762109921554993
0,766002582580679
0,818455554748938
0,787502012128864
0,790821726976916
0,820244760669419
0,812395677616781
0,835635069036071
0,793595766268281
0,793599547636317
0,794537968615445
0,81428068711269
0,822368146797069
0,866484528101757
0,815734175522355
0,821918933545481
0,847445065035512
0,873303492153643
0,831058045934271
0,865217879028901
0,84978543413866
0,861193697932884
0,840732957100965
0,937259202986089
0,932241798909618
0,903231041936007
0,920851201277499
0,915566241459787
0,872033450215004
0,906273527664957
0,926155069813661
0,956022937250945
0,906295760534628
0,923073271418514
0,946202275147432
0,969394283899164
0,981023252538535
0,979782568260414
0,941485637044691
0,972810357790217
0,949271781207234
1,01343992931169
0,944079193528649
0,92122863186084
0,993512587096262
1,08369183813716
0,971485986607682
0,982714683511892
0,986762652647225
1,08843253214813
0,968587614424948
0,969256960943758
1,03132959655297
0,991585365291393
0,952474971735787
1,08764308979429
1,00185702198438
1,04563534983903
1,06723218967274
0,995561940814369
1,07468181760317
1,16012516446354
1,00645610418829
1,02259781506094
1,08461076185016
1,11799219012058
0,982172072004754
0,997371630077326
1,10175837368671
1,11460356142909
0,93997654187408
1,0419080207023
0,960970514665201
1,06389740156702
1,08425381407733
1,09042749357
1,05086389495359
1,09668246984844
1,12683901915876
1,20750374190679
1,00946489006596
0,993593762651663
1,04582260786277
1,13164066663535
1,08076427326458
1,12130238448568
0,945626703034148
1,06363984746383
1,0125600493121
1,14738985496354
1,01632760269296
1,14245362351825
1,29245691525608
1,41841359847239
1,21642441455857
1,21980535377279
1,31052828966279
1,1789585141562
1,06088708308078
1,45104989427742
1,12203500557899
1,62523357446414
1,30488206314932
1,10518751948739
1,23009651351245
1,76373934928272
1,27078782992787
1,23206994420809
1,02655255713791
1,1617569709116
1,41886515184429
1,59258132241222
0,994021570086258
1,27188740278734
5
1,37787277365445
1,02241124746172
1,07818636912623
1,09664606450733
1,5673688170671
1,17783722914022
1,85321736405921
1,16116135060089
2,65793706064459
1,25493679828461
1,56987230216536
1,9088755782465
1,20337802783257
1,1358685974182
5
1,01591790434454
1,27266569281702
1,01598319496388
1,32244568365381
1,21995439007987
1,28366601341337
1,30003890310438
5
1,04459930733159
5
1,48743286124894
1,5556446988254
1,42336063865875
1,90358026741549
1,28401515902452
1,81797415322863
2,1203871344218
5
1,0035973360119
1,20154415887291
1,65737862183992
0,940666973258558
0,769378895846747
1,28202974621737
1,0057333493292
5
1,28128299204148
1,16591518149829
1,47376653094915
5
5
1,81769572778146
1,04744661501537
5
0,77647508915282
1,11833126067704
0,590373486325925
5
5
5
