3596
4000,36533379555
650,420452594757
1
2
2
0,0725204000762918
0,0713967011250907
0,0669631537009589
0,0658306891703147
0,0674707217039636
0,0728682900922932
0,0706267997593654
0,0705228487418363
0,0665525275223997
0,0658443482836656
0,0732240894558486
0,0713318654763416
0,0689555310098842
0,0680578439262204
0,0733882321907492
0,0724757884681667
0,0705152351685346
0,0715556859808362
0,0731472508766423
0,0679545035958211
0,0717845002152832
0,0726447624581925
0,066220279755571
0,0649830414838973
0,0674548757384232
0,0685855526455803
0,075409036164556
0,0673220375096837
0,0710430222095607
0,0759320087990418
0,0643078815863139
0,0705577273519295
0,0723799806610518
0,0730701656165615
0,0690391180907455
0,0630556471642523
0,0691586072672626
0,0702315891298611
0,0709225596815753
0,0737720500623105
0,0798827452295522
0,0676116855819962
0,0636864778588308
0,0639830947801054
0,0687665588886679
0,0731545165155194
0,0684923509759869
0,0679766845682624
0,066566488448639
0,073603799954513
0,0692479743081287
0,057793748469636
0,0717888241253482
0,079144209422972
0,0783596872594876
0,074732113742126
0,067567306643042
0,0672766144041241
0,0733335326810328
0,0714392555832453
0,0893248495331266
0,0807276067870687
0,066127458934464
0,0738286294041181
0,0697533972918827
0,0681183033426134
0,0681290305872014
0,0645127089716301
0,0626273344640197
0,0674830877996883
0,0669779548585488
0,0772042618689376
0,0837393750901857
0,0696133284555825
0,0670915039314301
0,0706699314968677
0,0713773972704511
0,0613350198182657
0,0603510833340656
0,0679359668013224
0,079207068854281
0,0784409195996682
0,0740948682168573
0,059039742046662
0,069109411624564
0,0817862545464313
0,0643499452557337
0,0692960941681966
0,0822249130146591
0,0683283448100335
0,067563723285101
0,0607954094237413
0,0644605802156845
0,0648975977368618
0,0657469380056307
0,0629233437432336
0,0636095152309314
0,0654338231340625
0,0562807373894716
0,0644648048805128
0,0698801590912258
0,0809590220267017
0,103457776782106
0,0713752065847258
0,101517772243528
0,0811903787923142
0,0581665550265746
0,0989583234885725
0,0901638412050857
0,0697221023606853
0,0636538709713991
0,0552623023637726
0,0609592024345378
0,0633539674523292
0,0553763715610002
0,0818340664797844
0,0965154140939858
0,0666678794525784
0,0640352197421453
0,0578248860691272
0,0524125775255077
0,0930185946627458
0,107868853868429
0,0702535111278447
0,071285837175017
0,0606471417711738
0,0546442858460916
0,105235792921735
0,0979379995704026
0,0641751690764519
0,0638748290353477
0,0624227856628575
0,0555790529969267
0,059197879897156
0,100034161028298
0,0796560057836871
0,0633479163889127
0,051532757039294
0,07631994667799
0,10917222097886
0,0805334410227199
0,069082641999412
0,0558990162497611
0,0641584149524568
0,0996904012811687
0,0724648329032942
0,0593209789828418
0,0843968816369585
0,0770899457475175
0,0573826531748915
0,0652754457835807
0,0633526123982848
0,0804373086156281
0,0721725921786613
0,0328864856911797
0,100608728779346
0,129496500379263
0,0933217130425942
0,110700533253907
0,076855194975368
0,0699593747926398
0,0667401908035946
0,0575317096316911
0,0645453219006737
0,0635196303604683
0,0531599599181702
0,0697993002700544
0,0893942900393067
0,0650191531853611
0,0699271587591143
0,103699485112117
0,0750046241058027
0,0633229865776968
0,11194086625638
0,0820235448672802
0,0574507904177525
0,094078140041206
0,0794248823702624
0,0559373017505924
0,0704240840577834
0,080713830488502
0,0646253077872213
0,063316646769924
0,0597017051282006
0,0628647609028834
0,0835053986130063
0,074693202036756
0,0666510126905647
0,0577779331869402
0,0497535654688586
0,0718046145702289
0,120240699981555
0,101087860743446
0,0722875399967085
0,0585522297231451
0,0459597821771094
0,0910338749649794
0,094155387216465
0,0664702161324038
0,0638376166797156
0,0623957069133826
0,0664398057941485
0,058391661240941
0,0638796973363668
0,0540971352470691
0,0493617947729421
0,0996137350253564
0,0880987354169126
0,0627570292191096
0,0579556437500632
0,06118968808954
0,0584133685035052
0,0994589344011474
0,0989351033879299
0,0741729297089771
0,0613715383636209
0,0599311611875424
0,0876655178696087
0,0802957471167599
0,057739779808608
0,0640560636085476
0,0620461308031175
0,0596815586445009
0,0586844135483966
0,0610636081817716
0,0658784602322927
0,06697349194453
0,0604391154251996
0,0635585345461441
0,0669409856977319
0,0780223975433084
0,0648361378788361
0,0617529449138617
0,0608523759881315
0,0567897518554361
0,0723173201083507
0,0797381031628387
0,0712917600678183
0,0646422632629036
0,0592053425963826
0,0572027174655735
0,0636776918011492
0,0589066908541679
0,0611034210416997
0,053905109792227
0,0598080810995191
0,0916658242105313
0,0794129394793167
0,0612437005392819
0,0583294808608955
0,0769236050245325
0,081567351228137
0,0670396726386973
0,0601472028999569
0,0657805817595574
0,0595301941693585
0,0701733768744486
0,0919727848700348
0,0802860504874439
0,0631845650548233
0,0762317897146908
0,0696046378790054
0,0719151387765636
0,0565078881231303
0,0704231760412112
0,132412325680312
0,0859566809409528
0,0613189387884179
0,117673806987161
0,0876737168827887
0,085363412925016
0,0560845905637498
0,0402928471111958
0,144866436246529
0,131246277495875
0,0747581037299134
0,0773004155577204
0,0812697664741592
0,0688772844235278
0,0656842793849751
0,0745549094026932
0,0909404637248996
0,104511577140099
0,132234364760274
0,113176505000452
0,0676475135744888
0,0971492926839252
0,099995882235623
0,0781796526636191
0,0775100272184637
0,0753136834874704
0,0702148469248786
0,0895589330429821
0,0846155098146014
0,0884618946123443
0,071868964961006
0,0845529472231743
0,0898353837238984
0,0845608908965939
0,06618678100216
0,0844647683819174
0,0828415991452715
0,0767293556191855
0,0713460467141404
0,0812710973964943
0,0806156982493016
0,0658603422441273
0,072406255460731
0,125756003288498
0,0892583480100603
0,0928925005138873
0,10728618979694
0,0873215034102057
0,0715742512785121
0,0849176701225438
0,0756663189589108
0,0860742803483918
0,0697583749368262
0,0777021094582503
0,104588067348224
0,0910083199387407
0,0786928739194545
0,08095418876238
0,0758245507783006
0,0810405064367961
0,0827163995841076
0,0792730074030964
0,0795141051491071
0,0842504552911401
0,0751720534636259
0,1058629040848
0,102119898091516
0,0881643003451904
0,109828143665653
0,117138268275452
0,0939593504666218
0,088026962866375
0,0850880748422948
0,0916316101188581
0,0881724939170015
0,0915568499638679
0,0867446211344759
0,0963855656778094
0,115914736869981
0,0996835248974359
0,0916418427260841
0,102872404976209
0,146940266587484
0,152971232115103
0,117206695218792
0,0967993401225409
0,0904896034009955
0,137102351519655
0,121338303353968
0,140572670964168
0,126348457315612
0,119893471494595
0,107618155395362
0,107160389624642
0,100446372498026
0,108444248150572
0,113537415772167
0,116234017445744
0,110704481111682
0,116696044381742
0,128714105415134
0,111682633877606
0,117134166974945
0,15578290395464
0,143782794687509
0,137558005094983
0,121275356819014
0,123647665441664
0,158178028115079
0,168194897435275
0,179598739794546
0,156132399766921
0,174045772534039
0,18084996079299
0,157244376346009
0,143285235754963
0,146039882396443
0,156372367750864
0,157213721273625
0,165408632675817
0,154065810863375
0,153062607384622
0,1651066369542
0,164273546141072
0,170825933826529
0,166827902420894
0,174411903984977
0,196445329339497
0,186273004082332
0,174132575704045
0,169617021794631
0,19954860214197
0,253999304480794
0,235574860151542
0,190860935983034
0,195446943588687
0,190514127445855
0,202012361971091
0,185565535214892
0,203326602224146
0,199091806291401
0,212952315194893
0,239803981701994
0,236387397726761
0,24219507981416
0,223533230580452
0,218406867332771
0,237924944333069
0,231852369784365
0,252071296688205
0,245556009593072
0,238422904888185
0,221191794269102
0,279632289256658
0,254102634826451
0,257747690512662
0,251630020076313
0,24812673065059
0,246114281887415
0,254686030192753
0,254940844110481
0,269423005032291
0,268933961292168
0,267412731803541
0,267871403639299
0,28996704332514
0,283261149411886
0,287783992555613
0,291659903758885
0,295269685352767
0,302368246505119
0,296912567436219
0,294979316778759
0,292594145891024
0,285044248729589
0,327474575622501
0,314772801836938
0,345129919455896
0,318192903929101
0,322345413938886
0,31295755647705
0,327237750368262
0,326150976744714
0,329983134170765
0,329712250263262
0,345248067340538
0,321344676161104
0,328288325306379
0,343333379276816
0,35460066525185
0,345907727326534
0,352015246346719
0,352785530490363
0,358979909272587
0,355300504109048
0,379278708015846
0,377696890314341
0,435017021345376
0,393786238241543
0,426355644830643
0,401390192616438
0,401307933713054
0,391485189473882
0,419917333962318
0,384640101733523
0,413328943127358
0,405832539734279
0,42071909541206
0,408152951321466
0,423071841127398
0,423436966329601
0,43633594664025
0,433736026806552
0,438290577862585
0,441054717192305
0,473097248030551
0,433053650696895
0,4660699986943
0,456841013844429
0,481836327311981
0,463601297464355
0,470258782975454
0,474270298142758
0,504513184914595
0,492254698174455
0,484816258398932
0,461983326215195
0,477392215314744
0,48795874987141
0,495712312390757
0,475408211827869
0,514217080515889
0,506318994577106
0,507318281155777
0,516648449437073
0,54606688366169
0,517168944809103
0,541910185146049
0,542379636285157
0,543915072499353
0,544101460622371
0,565901627425708
0,526743515096263
0,563212980660546
0,544953559635804
0,57413837636996
0,581013723126053
0,589594142769751
0,572050692473122
0,584991042802728
0,584408425293089
0,636932666835799
0,581737345873065
0,608805997735756
0,574158183620368
0,607969475978291
0,601686647105801
0,634689148553527
0,611674593598778
0,64730310094182
0,645982359509683
0,682068587214559
0,642539479104207
0,632654808914408
0,617944707882486
0,668001457916817
0,621240838940564
0,676016915578719
0,645727508043807
0,681227942371953
0,671325757288072
0,679858866155673
0,649193162009722
0,68508273942699
0,691867891022659
0,69830934628649
0,700293753642587
0,714531850445266
0,702468870949965
0,738882439858987
0,717963153433303
0,741783926198785
0,685821461543145
0,744882561538478
0,769365586224693
0,742241682604318
0,69841317434896
0,760285933690116
0,742575182321744
0,740117973562832
0,744506061971345
0,776372512238723
0,718968446706367
0,814531412878982
0,750268246505535
0,786559544308599
0,742206934442513
0,822914495092753
0,811759991655105
0,847591036707616
0,740225524865946
0,770070266339532
0,784967226013009
0,760436734026948
0,80894008613367
0,833515180378555
0,843639904678591
0,865234769877326
0,835733042579908
0,859637707420737
0,814638543208538
0,861476045927383
0,79487048360372
0,85601254046443
0,833777854769844
0,927018686401757
0,847423615325586
0,861745889339856
0,880539187834678
0,910196774428141
0,879799723328067
0,909532189224862
0,858070120441785
0,903425620428497
0,877125046284171
0,920318260628649
0,900908231692719
0,949079528471165
0,912283650435755
0,948587221564587
0,899801051182622
0,909402168521753
0,919282461198454
1,06472753690806
0,899262972103251
0,971105476867925
0,907843651572709
0,927332975287972
0,94883919234174
0,989696343447109
0,915925728358666
1,00101582844963
0,961737450795989
0,978266074361736
0,994995026530116
0,999519661152571
0,967367309147845
1,04026161112166
0,972769405515692
1,01870339808116
0,954889586707237
1,0795996224432
0,945295568049224
0,984582259874496
0,993654805289892
0,981575975167067
1,02457768326787
1,02161576186255
0,99616949485867
1,04821109260344
1,00293787769787
1,0454679364491
0,961276009051561
1,09182353301688
1,09087118167009
1,12827683090337
1,03561329241771
1,11249999023464
1,10073423443489
1,08218811680243
1,02474798182953
1,08404678076181
1,05227517073137
1,10995577562413
1,06716236239871
1,09496408874486
1,01555390421234
1,09692041064382
1,00348721844226
1,16738153559196
1,0654272475957
1,18352418012258
1,06135637499087
1,10401143028811
1,05073648214858
1,24478351788549
1,12674799196885
1,10806163964356
1,09908517280381
1,18338417989368
1,08665561542086
1,12997206952922
1,10606929276008
1,14934306411917
1,19640655532355
1,17096065820376
1,12126352663542
1,25220509189694
1,09639045677861
1,30003379661249
1,1110992370021
1,19804820935607
1,12621332137729
1,2500865067829
1,11884485281059
1,19987133764669
1,10635069226324
1,2524968230974
1,18943906607599
1,18879348137508
1,1132431290637
1,30788264612078
1,1610547150781
1,28571411210587
1,1614926336678
1,30601692480493
1,14328415873573
1,20952197273164
1,16328235871873
1,16352776536409
1,25534623354967
1,27621983730751
1,16584330508131
1,33351290099437
1,15920314774165
1,27693826061592
1,22605291368399
1,26386200234916
1,13115948011931
1,27969459009851
1,21248671510769
1,18483748170407
1,15248264580795
1,22342768541087
1,27431825492265
1,25106224739992
1,19420721430439
1,37034816191753
1,21239287331341
1,30002260449452
1,18710238122345
1,30556839822606
1,28769342363592
1,26241802154612
1,1925591649083
1,30075702068265
1,12850485105808
1,29717689678547
1,18636460547643
1,29192712353887
1,19307929122495
1,26256665322784
1,13176014445454
1,3523642722437
1,21442006698004
1,28316006403647
1,19123831075335
1,26921405687757
1,17317492113137
1,33963080751756
1,25361903391718
1,31215222652456
1,23198775292576
1,47693929757914
1,23200336042131
1,21943158924496
1,22574578320206
1,30401457761259
1,20094937302421
1,32434274893639
1,26512067326123
1,34568268141293
1,22294654044935
1,224451885397
1,19675784104394
1,35627079888328
1,22012530588793
1,31778451970613
1,20337491946445
1,33233341993907
1,23836647326177
1,36599740151171
1,21700365241065
1,29232005215179
1,24108815047771
1,38948477166357
1,22650290541282
1,30828018814158
1,21635497460986
1,34552222406889
1,16306277088071
1,31380562348646
1,24387455120875
1,32523532127071
1,22345449355589
1,32167417150407
1,25781195742492
1,33701900506362
1,27296871246168
1,27156010251591
1,25180199542843
1,22892553838255
1,2151528456762
1,32124524067122
1,21767850638814
1,36316796988701
1,21425998079161
1,25745266575697
1,4091633593414
1,32026282231919
1,18189796279469
1,22896159803362
1,16143244906043
1,30223552183014
1,22588446120234
1,28822442927603
1,3369220479131
1,26327111948577
1,2670292836239
1,38900618533305
1,20197625388605
1,32798558398277
1,19861512801168
1,31293883503313
1,26221560749819
1,21428781116147
1,2236698735824
1,26303786373179
1,18698217996091
1,255955060808
1,24239820747919
1,32958855919625
1,18352597647614
1,1986599770453
1,25548401882991
1,29125070309899
1,21413131854629
1,27049302218736
1,21231402524323
1,24512803539184
1,18853130907958
1,28332148341622
1,19387293356954
1,26971069403181
1,1792773671298
1,27372158831851
1,14726335245621
1,23775300703956
1,17953236204209
1,27911014356566
1,18687380300069
1,25329543935296
1,18099616296337
1,24381068673475
1,19328466471541
1,25528678710501
1,14125548889679
1,24732269506785
1,17840622769132
1,26676985254535
1,12448585856914
1,24784742480131
1,16701460554286
1,21330248620291
1,1300465455339
1,16666894767207
1,18529781202572
1,20403079630578
1,11896298883037
1,24206359065333
1,15463477576115
1,16237918779332
1,21776567930366
1,1547722187654
1,09144704570562
1,17818893383596
1,11773587754269
1,2259096154422
1,09495212751306
1,12739366775586
1,10831519860615
1,26223382478266
1,09446894898312
1,14074804884612
1,15553088529845
1,12708951696071
1,11492691559059
1,14407557006815
1,18165175804785
1,12105418270718
1,11285516064495
1,10887258353611
1,09214339483229
1,13851028757611
1,06514174961884
1,14406610176488
1,07000965271155
1,12487582308421
1,07105515475554
1,08028251116936
1,04703315655479
1,10072126811951
1,03729840415837
1,1208895950803
1,01453224948495
1,08879384583132
1,05960002408805
1,11108645847632
0,990010841319114
1,07544382801121
1,00271623686458
1,10184502838853
1,0145816152592
1,10533532183441
0,970890115919467
1,01896722842497
1,01373706032393
1,03177101063581
0,989903063915782
1,02072239066409
0,965897693830762
1,02958600732194
0,965802514386329
1,01686862892481
0,96886727859941
1,05814435551574
0,95685671900683
1,00180480193082
0,978363267138772
0,981155135189109
0,954241736209633
0,980780945404265
0,963369326208327
0,955677852135099
0,913728441912022
0,968295655720611
0,932872362966882
0,938227729060719
0,915480766700764
0,955939428997426
0,885244321801136
0,896995551296454
0,897484973931606
0,923230061542388
0,905029514763411
0,923025642297952
0,896567488454247
0,915905947140611
0,908344420906803
0,91461630329671
0,865530338550026
0,920409561698968
0,867344196178054
0,879508483211202
0,858443083339042
0,854984501586037
0,845685035469298
0,859266437110176
0,834925410916124
0,85487469895475
0,850920384211609
0,832124961308036
0,807525752537765
0,836204348060025
0,822080046175331
0,823736185151908
0,782053459612154
0,863687645999086
0,778120360917978
0,792995386130522
0,787983056812218
0,801925563102032
0,793770642586346
0,804650304302718
0,783786664189886
0,795281170688741
0,776941725792218
0,772664546339988
0,7351198912957
0,775215988476871
0,750226265948442
0,76403296924661
0,746924234699564
0,75752256305726
0,733891707324303
0,755834846156367
0,723536391363907
0,749719246236042
0,716142233153872
0,747711831626501
0,709199122792233
0,747480393152651
0,717308928770547
0,742201826657415
0,705545905013077
0,737716663863082
0,713264016469597
0,720810500675705
0,686108957886077
0,704862167642546
0,691918506767056
0,699065140499156
0,669222929687028
0,701360743679804
0,679186178195194
0,693362327918579
0,652961623589364
0,674842875197781
0,651088858344243
0,67038712438506
0,636306571375962
0,673171861417369
0,667179173608732
0,649136141509
0,63158937670434
0,653169438295143
0,622711776661289
0,636168216143308
0,634742928362908
0,622873365018945
0,627140185862214
0,633698619004734
0,616010387451481
0,624098683759787
0,624342915078747
0,612167827639417
0,601804872181962
0,622615327647598
0,606398461694126
0,616583817121774
0,594099746060197
0,606230828777727
0,584852347090049
0,598635329811294
0,565751657618499
0,58710299251104
0,576441922191626
0,588602501826102
0,570576947019249
0,584302618183642
0,565176976899935
0,56893792221786
0,551519412509847
0,56177013441467
0,559610040553116
0,557330324394804
0,557232242494331
0,556897573883571
0,527596576293856
0,546158607945148
0,531307291648343
0,534697481058354
0,52731324191071
0,542552205962616
0,527200318373498
0,538739459919401
0,526488761904648
0,530219673811425
0,510847729796952
0,522865692197336
0,508619118896958
0,529939595901087
0,510615257331131
0,517640064108975
0,497376439412436
0,515811109278371
0,497625614370407
0,502606934521319
0,492363920050264
0,498582427509563
0,483663039003366
0,491354685794639
0,482449212706816
0,483298317053927
0,490185285705889
0,484918411104088
0,476714437730525
0,477015898012703
0,472067197207438
0,474937263086928
0,460413806912178
0,477059045746085
0,463005347565725
0,45282678582919
0,457335368191027
0,458451377619148
0,44649170381138
0,465143188626706
0,464242009450561
0,453254890596948
0,448370641066014
0,445306534795882
0,440316115001158
0,443467248509353
0,433939406562595
0,436323776272545
0,434428458208421
0,430785274568795
0,432423455095938
0,428810168234931
0,428676736834874
0,430760667303091
0,428516943733693
0,430334008127924
0,419197330932291
0,430333982645403
0,419856724134457
0,425283220329764
0,419409141083096
0,426228101541661
0,415804921092325
0,415947139077981
0,416745892780498
0,423598542942736
0,417917160797458
0,410068970207697
0,415676303095262
0,420515833932774
0,413621923129026
0,424799292586524
0,415714828247209
0,417256693438258
0,410678513666046
0,422140468178005
0,41539222245392
0,411951741772128
0,411468649031269
0,416295036266393
0,421872972211542
0,415899418800617
0,420984909026844
0,428988104143211
0,4157362533667
0,425680043359333
0,420208053052782
0,430638845212776
0,418961908335162
0,43302082913414
0,421598747602447
0,433512727612466
0,429865519305021
0,433355757589071
0,433863662570207
0,434993899951088
0,436553516039968
0,447570027424793
0,435625896898443
0,44471051739542
0,43718396717209
0,445319610948937
0,443151128738126
0,457729801451234
0,442448672061136
0,45974228570797
0,446112761342605
0,466240317900895
0,458496738581983
0,459364322346223
0,456484325021031
0,470894360611088
0,47147597751245
0,477571303456461
0,473745296018544
0,481201324571194
0,475354403524827
0,493893128597284
0,474351084522828
0,487200653051525
0,481213333831536
0,49615978173064
0,49300103686866
0,500444137978097
0,504852598862912
0,51728196990426
0,510181759887892
0,525044931774931
0,50601165484246
0,518906989525779
0,517068397727505
0,537540165659049
0,517550345058213
0,521376073398254
0,524835642147327
0,530149574471996
0,521867834915124
0,529206705971873
0,54114188579312
0,520538854157542
0,532392835502585
0,535122822594199
0,5283072219402
0,523190934446783
0,521188480607185
0,531941991376766
0,513999928189177
0,513640887819106
0,520910348892753
0,52432465943901
0,513739935024888
0,529830791940687
0,516650110183268
0,531329148874007
0,522431440988475
0,541376669247499
0,518602884874078
0,526104170355722
0,520858461643299
0,525143455705752
0,522611047583295
0,529068690690372
0,51530356163544
0,522342875513128
0,519867608015311
0,522149685632961
0,521671573947582
0,523026473061412
0,522396965345762
0,534317000590707
0,522113535873496
0,539457354485605
0,525429945125312
0,542350614211464
0,527740833275672
0,533991194787725
0,535316820534892
0,528205800353736
0,526063785939524
0,536964976897276
0,52008410901755
0,522463677834765
0,539371009261661
0,53366283351707
0,525650125150702
0,523288166399748
0,523216731197428
0,531899235845734
0,511027164696849
0,533956655694482
0,527056067198823
0,529675803291064
0,518281426301948
0,513966100704542
0,51119844650724
0,521926604188895
0,509808297384657
0,513929251210256
0,499311393184345
0,503125182411564
0,499286076117917
0,504818367302323
0,492514252479759
0,499939863550741
0,49247274619654
0,493842586194806
0,484439002182147
0,484304119935887
0,475675465199543
0,483359255245491
0,466689442585999
0,467021312685216
0,458817216602207
0,467786360913554
0,453402600573116
0,452249642641231
0,447125627598407
0,45629540431634
0,438570709519904
0,443485769161108
0,434645511096288
0,42950876372034
0,425800236962892
0,437104716072997
0,427200506420501
0,434482119346791
0,416986719394781
0,43121414656969
0,419039689594969
0,417116029121894
0,406511874005268
0,417069066058186
0,403395958312911
0,411237566035422
0,395526886769784
0,411527357783655
0,397080965843942
0,391697493088513
0,389421547416039
0,394622157342817
0,392217694306497
0,385443569627191
0,385798233560318
0,390774641569993
0,383540047665133
0,383183852314707
0,377832223933319
0,376960017352996
0,375676976967136
0,378001835420887
0,366404050179243
0,372401114970412
0,3631179734395
0,36774603878211
0,358082663851361
0,360023066810551
0,359489219859164
0,359340122768361
0,355894872203668
0,361448715412766
0,353550843424192
0,357428352595894
0,351533761286124
0,356033753906275
0,344675710575407
0,346276930747519
0,343727760533989
0,344747011510382
0,338412411086438
0,341771026642706
0,343732249218723
0,344753860901476
0,337025689237186
0,340441644438746
0,333377334826369
0,339775227066735
0,331927030724642
0,331593958609745
0,330591254650631
0,331948552230107
0,328539554401458
0,326009996156947
0,324556719887963
0,322243905868726
0,324537622399488
0,327400311939741
0,322495994624842
0,31947220373012
0,313162268706077
0,317137119536655
0,310067773368731
0,319932009019876
0,316618815213461
0,32062792536554
0,310061421583661
0,318513222247267
0,307886996108428
0,311798416525767
0,308483337780537
0,309090569044672
0,308787846279586
0,306705605723385
0,303256323533891
0,302764804825066
0,308566823736685
0,303889928274596
0,300633403315903
0,298811820946914
0,296764850089045
0,29815449186615
0,29297570673745
0,296035415124329
0,297359591940905
0,296310700814126
0,29414950567475
0,300427071248784
0,293334147371833
0,291925418868037
0,292838230086186
0,285983334275039
0,289305844552368
0,292300271978376
0,282205575000835
0,28880846270067
0,287990797641128
0,286138598361448
0,28196778186551
0,285423998885454
0,278309074648646
0,283318240082997
0,280925921041194
0,28212691318687
0,283044865743729
0,283497129575805
0,279910160403392
0,279536879256075
0,276018829130784
0,277480950375259
0,280491186970458
0,282086210960992
0,276538943005184
0,276754246597394
0,278451131715952
0,278647908696113
0,270479570538245
0,276189147867818
0,275573530380472
0,276096422404505
0,276776633979243
0,27857467803048
0,273765680253141
0,277865211356236
0,276239950483616
0,274785282992723
0,271343761324616
0,270850213453325
0,267609658026111
0,269428913193918
0,266118670318504
0,271835306531424
0,269075152452327
0,269411639499261
0,269966876267507
0,268955326074128
0,261902133730403
0,262461887710902
0,262757578032274
0,267649103529606
0,263141707928803
0,262307754127884
0,264310915111943
0,260436839717042
0,259704914595708
0,266696004566453
0,263721682593584
0,264129218602172
0,255508038031794
0,260311327566536
0,257111790880991
0,257945541608333
0,253246450129071
0,257641222582216
0,253882231965427
0,254670916551269
0,255178993632828
0,255471679388466
0,252706415204
0,252379862361045
0,246817022401771
0,248062952580801
0,252733913432738
0,247527274648089
0,251956761001928
0,245742190229621
0,245370708754772
0,250316752628347
0,24330437788291
0,244338339777673
0,240743032775848
0,243563419849217
0,244221019909394
0,242409035111914
0,244141577489487
0,238149776673613
0,238582623851691
0,241121044662274
0,238262892032681
0,236924024351067
0,233772568774818
0,234471421986488
0,232742919839766
0,233065391791389
0,22839905453878
0,23293327129176
0,22979356234807
0,228993136477121
0,231147994261533
0,229651543157777
0,229754450137489
0,231516556940379
0,230789899595281
0,229606115807185
0,221987591950522
0,225440902374564
0,225242571264969
0,22319505241692
0,22071461408246
0,220796459742567
0,220871385071851
0,221261532601434
0,219284887248638
0,216378581358684
0,213525174238561
0,215159203765907
0,216363875097047
0,211784293551027
0,212270822897609
0,208399856501974
0,210004396688235
0,210539891539527
0,208941098182555
0,205619926440556
0,20511964952786
0,206502744635007
0,203453998094617
0,202348967536677
0,202356097119121
0,20319976167151
0,201818249885538
0,199298478534153
0,20020888225841
0,201203850773703
0,197116770578344
0,199228844345753
0,1968962739044
0,192810386520198
0,19330463808437
0,191312768664301
0,194738882889873
0,190645541498659
0,189026012719343
0,190294076734155
0,189663225693735
0,187397218611049
0,187152885101378
0,191234323988581
0,189414158823334
0,186119932152302
0,184153730130004
0,183113061984871
0,18400191567235
0,182255221883812
0,181412781797871
0,182757452830043
0,180255146676195
0,178965849620256
0,179308673114376
0,180032679432806
0,179761746621602
0,178297117426942
0,178698116202925
0,177480488057723
0,178100582873592
0,174656821163272
0,171858342791589
0,17248141143234
0,175665519910166
0,172428142664413
0,174106589240505
0,176832382555363
0,169691963757081
0,17007626783821
0,170074273308532
0,170148622639163
0,171733036646398
0,166489642366037
0,171052709077295
0,166881724735776
0,167086323698431
0,168094040654726
0,164829743450894
0,166355584360624
0,166853573653422
0,162354560255413
0,165187168802049
0,164498113406693
0,161984289236874
0,164321382559016
0,160790532879714
0,162515065552865
0,160460754209531
0,160356105429379
0,157934217236699
0,160008687637522
0,161715392670233
0,162029113201931
0,161280989129998
0,156722472252485
0,158361963506386
0,155971315429519
0,157309674624192
0,157647597897704
0,157898367778383
0,156649505241683
0,155665564603201
0,156676990504618
0,156244474246487
0,153487642557572
0,15630273343037
0,154120348519356
0,154011597592722
0,152348170351402
0,152578087032788
0,151788536981166
0,153011356822387
0,153459506887813
0,149760437416384
0,149940986598877
0,150213826172924
0,150816593263375
0,151924897449205
0,150294254110667
0,147343970195468
0,147672726891925
0,151251067095439
0,149497243917524
0,149242936398225
0,148902878546271
0,147843578537783
0,149452527520753
0,147732717672077
0,144630918145218
0,146433219083252
0,149302425094907
0,14725513916472
0,143180824163085
0,147346315309146
0,146323968920388
0,145760487674406
0,14563358680458
0,144648208303123
0,143890057705924
0,143308019987442
0,14249637522055
0,145002818222146
0,145333470472404
0,146573825331392
0,142601434190188
0,140760160224939
0,14335974425129
0,142837223619172
0,13895222924584
0,141309756118113
0,139310906994144
0,138713541925756
0,13821922655735
0,139703664943288
0,139348614712999
0,137818900344958
0,136838497438451
0,139014433871913
0,138046443032521
0,13327590115593
0,133853748046435
0,136685113768732
0,135038313477712
0,134762723294021
0,13532215914946
0,135249652229292
0,135433893287261
0,138477706216872
0,137256687386513
0,137526563165208
0,134166335069023
0,134441173964901
0,136102333178728
0,137285897436157
0,131964274887781
0,132193965793944
0,130452392818146
0,132538723792036
0,132031120958455
0,132344248503928
0,13160128880638
0,132102233887263
0,129805869884509
0,130328086225138
0,128597634520156
0,130253912413906
0,127200131056664
0,129244179502229
0,130351182094631
0,128367611560143
0,128555637440922
0,126761096803821
0,12574783277626
0,127855128833887
0,125539819319814
0,124229210523266
0,122970659646387
0,124816665288964
0,124645784647968
0,122304699939496
0,121534998210849
0,1242042694473
0,123992676275415
0,125265583070216
0,12067728216915
0,120990080712794
0,118772102602069
0,120741540429622
0,120880722597596
0,116847938155066
0,115490101196873
0,120699491405625
0,117833115610896
0,115101413178676
0,115445800597254
0,122458842800315
0,116188957080929
0,11365907812244
0,112338946070895
0,115825445881586
0,115310502991884
0,114550550935878
0,111369335390411
0,112806059135334
0,114047166546797
0,113267253946825
0,110740251890282
0,112033800091221
0,110856689917183
0,112858422998724
0,110187374078551
0,111203495574955
0,11091165671867
0,112831619412416
0,110299086648882
0,111251233752578
0,109525422049463
0,109824299976426
0,107233593479445
0,10890505923638
0,105757037886608
0,108750215767707
0,10668683403325
0,10675555671192
0,107702276810421
0,105381771672257
0,100476869164953
0,104564373811199
0,105140091907781
0,105150666634631
0,102164272766754
0,106313414674371
0,10214430856726
0,102682222701763
0,100877337113827
0,101439482459108
0,102772948456498
0,102110988192292
0,0995346823871725
0,101302252784972
0,0979326451524972
0,0978130378637978
0,0966368466033701
0,101028523463615
0,0966775366712861
0,10054821165184
0,0966172701018907
0,0973891312724449
0,09574065940315
0,0965358899631483
0,0952851072748432
0,0965068360355534
0,0956142771402615
0,0970128336755714
0,0940610715643539
0,0986305809424056
0,0937639690840662
0,0955468074703378
0,0938044248408639
0,096282178604585
0,094805984017389
0,094651779763687
0,0922644216482973
0,0950624983501843
0,0905010857937865
0,0944003973211533
0,0938550669545858
0,095990635157037
0,0920721020954592
0,092878664683526
0,0908824345783616
0,0924309153427982
0,091803351220406
0,093128684300973
0,0890391191557817
0,0917340113331977
0,0898456305458718
0,0941239373444756
0,0903882492915324
0,0927520886053906
0,0922149013947012
0,0946943160725858
0,0933867676152192
0,0993594476843006
0,0940503564918077
0,0974115205590111
0,0971785120061408
0,100142969065514
0,0952170584890801
0,0989720685997129
0,0931689302284152
0,0946357807812493
0,0947974940185604
0,103008783223011
0,0988131630283012
0,0995173272434177
0,0918266254294546
0,0993531411142696
0,0955714246900966
0,100482321309968
0,0919875566512835
0,100482366871742
0,100716342451401
0,0988820571029194
0,0894771656438456
0,101321930445117
0,0968612791487691
0,101655148046167
0,091712713940124
0,0997259049655651
0,0900148689511856
0,0942871869244287
0,0921643182017371
0,0998786112954203
0,0942865330697389
0,0983303859833868
0,087552583589557
0,0947219141442805
0,0834727957496439
0,0971267241232408
0,090687623212193
0,0974502637133586
0,0886227938834476
0,099025595107762
0,0909385811982777
0,0935387248194283
0,0845299602764469
0,0922536865203958
0,0845365405663584
0,0933806150933434
0,0861547798783332
0,096875907348734
0,0905589283859482
0,0973120665318536
0,0890797354521038
0,0885283227936646
0,0902385687091024
0,0911665250886248
0,0965271237626194
0,0898917640320145
0,0900126209306697
0,0846105231294558
0,101218483645802
0,0838461447491614
0,100141584929937
0,0768535019237356
0,107822356123403
0,0748384251857369
0,106555558534688
0,0759146603667088
0,106189325148173
0,0740715476480217
0,101783930860515
0,0771396683049257
0,0999266595150189
0,0829369313996901
0,09499718613759
0,0869448720218313
0,0873010343168985
0,0925980244869875
0,0871692780929215
0,0913126190552117
0,0840048383096877
0,0856527753392128
0,0831219979157549
0,0847321804629264
0,0857874262296483
0,084256963471991
0,0865155022645291
0,0822561117630332
0,0859288822741815
0,0830060744562629
0,0847887701861101
0,0836616483965689
0,0815683676525736
0,0830783339704273
0,0825678458697061
0,0811866701940705
0,0829614509336375
0,082068312252855
0,0836163906796847
0,0835482323889271
0,0837006030401233
0,0808394024077088
0,0795530790592842
0,0818626051992184
0,0810477802030976
0,0820534145504802
0,0832481279760986
0,0841112921509524
0,0826271552097405
0,0814463192978099
0,0824660761471382
0,0830226052660587
0,0837404013588335
0,0810378397549112
0,0831397261960781
0,0827791790429722
0,0831857083906759
0,0837397009233878
0,083380437030124
0,0812178800316057
0,0825042826359926
0,0831667503545576
0,0835561619709033
0,0836953058516993
0,0829164529613598
0,0842733258350684
0,0833684084055441
0,0825680739531723
0,0846676698476922
0,0832069977178422
0,082089844577485
0,0846268252141931
0,0844549086327192
0,0816337577658449
0,0826676466728286
0,0839038275207493
0,0817757389407388
0,0848117241913469
0,0833073499766919
0,0820985964754761
0,0823243238359118
0,0851465250022749
0,0839732968840957
0,0852899358537013
0,0833546676747028
0,084697131553718
0,0821762169591357
0,0839690242984717
0,0836156320944746
0,0833764820947679
0,083257401116729
0,0837019737507942
0,0847000044751686
0,0852826791106178
0,0832981804774291
0,0857031458159027
0,0849035492241531
0,0832780999475553
0,0836559050578899
0,0845117420563937
0,0843793392992876
0,0855928218502153
0,0833999736117186
0,0850064850372951
0,0847573627891749
0,0860537579814324
0,0841979853278852
0,084241147933562
0,0836211865320242
0,0859231665032802
0,0828441136029013
0,0847104972145101
0,0864103878839536
0,0876425309062601
0,0840494229734109
0,0879572497866652
0,0874471614149635
0,0867536864834082
0,0861880022056029
0,0886981851744395
0,0876622700602969
0,0850617883523306
0,0845912201008159
0,0901116653447667
0,0892737594266061
0,0881372037492154
0,085765548114787
0,0877230577337505
0,0877700629899851
0,0873956076502628
0,086286774736436
0,0893576575699352
0,087350957776757
0,0887823799122834
0,0881774694136968
0,0901017318848753
0,0901719287603824
0,0900622728410291
0,0878975154727459
0,0897244003652369
0,0891255835742452
0,090634883250849
0,0880265633538053
0,0907958611580597
0,088475717047236
0,0884663154575709
0,0895504302664058
0,0884168995605152
0,0881003738058506
0,0925363382403272
0,0897471251022914
0,089495906140809
0,0874859541889036
0,0888890459932445
0,0880313960152899
0,0913921339056459
0,0893589887268885
0,0901501349242603
0,08993618811179
0,091603476315622
0,0913098395640484
0,0929276213845829
0,0915677841557615
0,0911954299505347
0,0912404085137191
0,0914225858775494
0,0901610962834807
0,094071090963861
0,0942018735405334
0,0939324562357807
0,0915447779522389
0,0934389563743913
0,0926396576160221
0,0944682062058132
0,0917540264150976
0,0916317278341723
0,0913807993149167
0,0947137774112176
0,0928391996319965
0,0955624774047544
0,0935924605029612
0,0955079308708647
0,0943614124371564
0,0954092821377789
0,0945437822294902
0,096399912110408
0,0936589802075196
0,0950158703396475
0,0926543633858883
0,0958419442047797
0,0951296848750008
0,0951538293626561
0,0946675859408311
0,0941723909218244
0,0926130008213583
0,094320682639845
0,0907860137891827
0,0940175955601525
0,0921632118082506
0,0930401571214451
0,0922204529812344
0,0960856231115821
0,0910995894012022
0,0911319279843464
0,091621505948478
0,0921927170550144
0,0916969359393595
0,0926831347904675
0,0915973897318408
0,0915211819880645
0,0902173093747595
0,0927634591888333
0,0897023333329619
0,0914200487130789
0,0887978375459974
0,0925653377887154
0,0908127308902951
0,0915151544748792
0,0884960760008599
0,0924371584074771
0,089201764473004
0,0895222866399418
0,0883545228786558
0,0914904611761072
0,0899617707759915
0,0915645501129941
0,0877715376356943
0,0892388151153536
0,0871756101004085
0,0886998536426377
0,0887417055235558
0,0911189071272112
0,0887204366113586
0,0910227935314947
0,0889630159567888
0,0907515734648683
0,0900842749718942
0,0899962662551615
0,086511364393404
0,0910430127431309
0,0893182254698071
0,0882093748270941
0,0865192066677077
0,0894221247792552
0,0891012853552137
0,088248928323744
0,0844286466606253
0,0898266000424368
0,0874071929813651
0,0880149494570513
0,0859289182769828
0,0889865289876718
0,0870871432629369
0,0865862084524559
0,0852212334569577
0,0892880133889021
0,0836751549129987
0,0863038251500331
0,0875016428919629
0,0874099283237167
0,0841616499642734
0,088841109942473
0,0864899335324277
0,0873735320121604
0,0847862014949518
0,0880362944206196
0,0852863181214237
0,0854546303047642
0,0851309462409706
0,087048538849115
0,0844827356007719
0,0887096820940711
0,0841802684618367
0,0870823564889384
0,0855387522188654
0,0862760161230943
0,0853168253519846
0,0853372460143695
0,0855880253256026
0,0884935635619922
0,0848943618265038
0,0867163977501895
0,0838917973614098
0,0862860734364909
0,0829108610894578
0,0851189275488935
0,0815472029861762
0,0820371633478476
0,0830549473362034
0,0850567041477219
0,0830571284179795
0,0847426633053526
0,0831534416474224
0,0847281054388983
0,081899160739273
0,0860967865462007
0,0836895724512823
0,0838448051325416
0,0816501228402399
0,0842887742902621
0,0810143327149293
0,0862575381713486
0,0795336663048402
0,0856607918562343
0,0851264376495705
0,0845729326809188
0,0814339935364251
0,0832727199163964
0,0801651574451315
0,0827912121433095
0,0809254877441097
0,081120507865509
0,0789806182530453
0,0803640995223466
0,0777648470761183
0,0799133953040747
0,0785136900530689
0,078592202382725
0,0774743328151225
0,0807805162579487
0,0762270634100855
0,07992668801251
0,0785757536311064
0,0794518173310821
0,0753853277114754
0,0765799558557576
0,0757796014151965
0,0786172088612907
0,075855363336081
0,0785893194713194
0,0816459237807177
0,0808362855897857
0,0761724078727949
0,0748342855287268
0,074719482944924
0,0779543899181126
0,0746120123399638
0,0758170827156838
0,0727935261262054
0,0755935089220806
0,0722411117791407
0,0738291253648077
0,0711725155966577
0,0728626544337277
0,0719914104625952
0,0730335615805841
0,0716537893683244
0,073337580048912
0,0705634139440195
0,0711225505749868
0,0696417157880281
0,0716871730285142
0,0719362950115784
0,0711566648864687
0,0690151589022774
0,0698259987418121
0,0734069103478633
0,080821618612854
0,0691144704355893
0,0714387281850112
0,0718916049598563
0,0745052932190569
0,0693955195727498
0,0699554473148388
0,0698020966079492
0,0714518165900319
0,0674833955307285
0,0694241034078292
0,0685076298144457
0,0710662445143293
0,0675974348833016
0,071947092067285
0,0690032092202753
0,0701072400956501
0,0688460333263812
0,069915943220035
0,0663576863231685
0,0694718266401667
0,0677354114497918
0,0697028240273219
0,0662148711987352
0,0672601458240157
0,0648707319522095
0,0761881572356281
0,0714541140926354
0,0710985481427471
0,0662349964582389
0,0660584788100298
0,0644779810603384
0,0682872197832347
0,0649384145541966
0,0647830326677512
0,063725515898373
0,0675663236101962
0,064532002449215
0,0659995445440421
0,0648368297968884
0,0682428537431068
0,0623688355530848
0,0671169056250246
0,0639983521674294
0,0662766383771569
0,0589505110789542
0,063102459500031
0,0620448548305671
0,0661189107995118
0,0632368820008286
0,0658706931291088
0,0599636261332203
0,0675422208503703
0,0775058979883277
0,0683957340597899
0,0619521396117072
0,0644756101382788
0,0633564071037602
0,0665662022981922
0,0615724526803926
0,0644444176906352
0,061833180925624
0,0636353781605325
0,0618905033949324
0,0634880462763929
0,0608192196936857
0,0628036899409024
0,0621071126161073
0,0645252855509431
0,0612680399554902
0,0642390821578176
0,0630416744148562
0,0630936522923712
0,0677574916145208
0,0762005173274121
0,0675253337561771
0,0648487819601454
0,0636658541494403
0,0602105617098212
0,0748505881659736
0,0714015592023467
0,0618597202713056
0,0619236702406394
0,0629098071527092
0,0622850922844881
0,0619426873124036
0,061706766589577
0,0637814479057063
0,069332586141244
0,0617149878500147
0,0667714864936558
0,0599071493328115
0,0627869484842324
0,0608588582649745
0,0629601207578895
0,057781267469369
0,0629774592694689
0,0612438609462437
0,0642559959387563
0,0618812484878795
0,0621051514034046
0,0605449509024785
0,0598249808127717
0,0644833623469541
0,0686204099235082
0,0611208467748833
0,0629570418904761
0,0595267367148029
0,0593861591399222
0,0633967953421497
0,0785521488878501
0,0620105843978751
0,0652262921089468
0,0594754110685148
0,063651279076996
0,058387014843933
0,0625311740558226
0,0582625295464939
0,0626897749883236
0,0588494711311226
0,0642220986038191
0,0587846615976675
0,0625498245406391
0,0607628359280195
0,0624975247768169
0,0562849776627331
0,062476430573809
0,0598697041534349
0,0615235608566506
0,062313644915174
0,0620337218668139
0,0683376107729703
0,0828595211941278
0,0722303155594334
0,0721031285571728
0,066777674524515
0,0620692337556358
0,0597000998317852
0,063307472238917
0,0605461302779095
0,066452498337156
0,059052332189343
0,0640297321172792
0,0602225255843786
0,0653003280932183
0,0585885392341381
0,0632096492835757
0,0564649007507707
0,0625044916554832
0,0566182420834611
0,0633939883270627
0,0587765887564226
0,0660537463639816
0,0560541315040173
0,07327878562426
0,0654259146040629
0,0696911535346183
0,0539217834552147
0,0950748860287466
0,0814196061566578
0,0694932079314912
0,0650898165993118
0,0621933510603251
0,064012380381585
0,0609353597787566
0,0616003228253581
0,067139618010485
0,0643792107040817
0,0640178365757579
0,0609223050700498
0,0651266254284472
0,0664436907480377
0,0622298393877106
0,0645680069622441
0,093399638153997
0,0709872065643362
0,0673611451874785
0,060651839120144
0,0748338559363951
0,0830825882072968
0,0683885310085121
0,0689166107209108
0,065053683662024
0,0629447225171338
0,063822285160869
0,0637721604717289
0,0677346141460404
0,0665202306358052
0,0680574149042271
0,0646889321136792
0,0676109407070805
0,0608734802048308
0,0715378866984459
0,0654275626935503
0,0773134143794272
0,0776238406342707
0,0645709661463717
0,0698228254979793
0,0712794396969276
0,0637128431850004
0,0685534007092636
0,0676767390908001
0,0655227464336685
0,0770299507790517
0,0815426672156579
0,0668719154606376
0,0840509044517908
0,0774226881760222
0,0672070038450648
0,0738175131794869
0,078566017672356
0,0784056421952513
0,0632026732756767
0,0814825433568511
0,100126328182832
0,0846766849947379
0,0943328112410058
0,0701502489278089
0,0775135729713318
0,0676836278642146
0,0741393542990368
0,0648152553172041
0,0938348399199097
0,0669425672458316
0,0818484936645855
0,0632855664408614
0,0924028217342968
0,082089839915707
0,0795050381614531
0,0761158560038895
0,0754332385935677
0,0711942241772596
0,0943913725977772
0,0753895757389471
0,0726230975433419
0,094252483240106
0,110880149829831
0,106942327515355
0,0823754156487275
0,069600803250185
0,119705407916182
0,0785143694312091
0,086541164205103
0,0728193719129036
0,084907513290046
0,0750343378931639
0,0816935700017405
0,102734697219304
0,0896125905616876
0,0785744528586329
0,0865060139553394
0,0723610663955172
0,106521851651028
0,0886267765854623
0,089979190605565
0,0785095377846201
0,0931228517854528
0,0753453605685293
0,139190173402137
0,0985449531884791
0,10616157393068
0,109806851279741
0,108501245201657
0,103187932510148
0,0995174889212811
0,0927270008676777
0,10549065871081
0,11365031266143
0,101762601125167
0,0860082567309816
0,115174661316872
0,127477093489282
0,0981563748070966
0,108955292754238
0,100923872607233
0,100434184421632
0,13865611359996
0,15344741389623
0,139710139981137
0,113000160634957
0,11077664792883
0,138421193306488
0,114467571573504
0,11241274971645
0,113270079783301
0,114534270194054
0,118461680561076
0,112988444115448
0,13348595044185
0,119562444374854
0,12819743964657
0,120979770683968
0,126280442809071
0,138655322282966
0,175934718667443
0,172011549830815
0,134975884419356
0,184622235210092
0,158996811694678
0,147506293062317
0,139043582936851
0,132605666250549
0,154145484269597
0,146250635476389
0,145130957184706
0,136650130276398
0,177955331939735
0,162595784412062
0,16056223732892
0,175316040998647
0,157997856357225
0,167744858026437
0,137043440170811
0,358278706782147
0,189648690786738
0,200358086093334
0,18077291367913
0,187376434002026
0,262159582339676
0,200142606736793
0,202233221694699
0,20430029810592
0,198916439855126
0,208518458279672
0,225280689984979
0,223959200738802
0,242032415836647
0,234687819613862
0,228676618252707
0,251944452656565
0,323941146728902
0,310481275178703
0,28379800006289
0,260845067622901
0,291856890840179
0,294669066916171
0,286026067320699
0,29486463328549
0,297165922313792
0,291813737550352
0,381287350272304
0,318076281115255
0,336546175037131
0,3207696826452
0,386751314060279
0,315146508809252
0,422474834604225
0,376236929243707
0,379623318159807
0,362999446681704
0,378338089772476
0,381679904139078
0,378839539406075
0,43048992285379
0,421768993848811
0,4085322728524
0,42086893485401
0,405405109509226
0,423029295418851
0,423139569564796
0,442726505996368
0,423328705067684
0,497740074528795
0,440663500566317
0,731394099395574
0,484722751134898
0,457684211367507
0,457267668943994
0,458433038370706
0,506301873192879
0,477002018860918
0,506171047835192
0,489126448037978
0,456330109218992
0,47715923035974
0,459469418872858
0,483464705784934
0,453934003291586
0,48643750199873
0,44371251132472
0,511693450011815
0,458797263042595
0,520242171560555
0,544147814765624
0,475127741806226
0,465135515948955
0,468780686509264
0,457643584643315
0,472208405215404
0,459572282795225
0,468449345514524
0,491160384653803
0,440573714830919
0,457319986689616
0,435933346097075
0,463775575785411
0,480460281045534
0,442264769686027
0,445457505016162
0,423542889200102
0,443759481928597
0,418438607214288
0,434846251794644
0,484814866589483
0,426548957679551
0,419886528933851
0,414598052597115
0,413155804534583
0,410559660359777
0,397951316405082
0,407620931564523
0,414262980089099
0,395272323706496
0,407977221461229
0,39234553470816
0,392459148218822
0,393661305172103
0,391715267789113
0,396488892161353
0,391278785739868
0,393300161765571
0,382429381959811
0,38470659019649
0,376949579019123
0,387201285394821
0,380699808211926
0,386926118108
0,386330477111295
0,374433508602684
0,382028060349945
0,379122689990931
0,37821651745139
0,384367105150871
0,377791624480843
0,376665377846328
0,374106540227027
0,375262849820877
0,376745224529018
0,378830725349185
0,372863695869336
0,377754726713257
0,372668866795359
0,376766283160665
0,361323706145139
0,377910463034358
0,350660762373479
0,447122268183351
0,383803632958156
0,359638664311668
0,360643199613702
0,347795719901104
0,35864858330078
0,333718997453656
0,400619931132733
0,38146672523623
0,351194817168835
0,339281818969038
0,333104091758788
0,356754605517606
0,349094386663201
0,324809519473723
0,346589231229102
0,305163876578632
0,375583098528114
0,394425565161554
0,395727182691424
0,411397388456628
0,328393281591484
0,315454061083151
0,311228370963708
0,365614087366331
0,292237667850201
0,317889110655951
0,282040054505921
0,364425668811689
0,313137155902505
0,291030480067368
0,297890773789915
0,286125834969627
0,314400828614956
0,325924250060535
0,292341647861955
0,303746335423083
0,333057218876954
0,297081057834905
0,332476164829396
0,343204721304302
0,305393347663376
0,269295397371604
0,27299835938498
0,270962800985185
0,260561468110647
0,343068059934393
0,266181143893658
0,283699325970578
0,253868191583351
0,25174788766088
0,258952711007913
0,271897105532826
0,271202248274001
0,243251444082209
0,3135734655589
0,230065756914786
0,26728089902191
0,265233515671342
0,294741411315305
0,298643952633334
0,25679765872196
0,233758883218584
0,271204027103524
0,293983649155911
0,242452667155088
0,265336428928575
0,226988080370491
0,230281982934963
0,258905365859307
0,22825228185817
0,250802070532703
0,254155027324197
0,241435795962169
0,294286164878615
0,286115767109259
0,295700841524195
0,244431686399517
0,222304641571076
0,22814635671128
0,224685010348715
0,238974556123361
0,214848856052816
0,263945137990051
0,240125549588431
0,205072988228295
0,298789633488649
0,237672176369101
0,236940565416652
0,236351025818329
0,235293593068343
0,242890994193043
0,266213902144516
0,289039415842993
0,26739728360864
0,258712755589951
0,289750961729641
0,249527479264012
0,266445363845286
0,253944781086047
0,271190428038324
0,264092357094478
0,29408610571966
0,274403451779959
0,28995442721385
0,286559175502833
0,2941526666168
0,305359603956249
0,352915503253273
0,286809996736455
0,372010528979678
0,315757547405589
0,404267435107335
0,347165285850318
0,339156563920565
0,348886507848025
0,351100713207931
0,362766718794832
0,358504336661721
0,358096081340496
0,42187756097261
0,364715479756048
0,389943235615042
0,370962484511141
0,404138490802128
0,37802202476811
0,439212590801585
0,406456009164522
0,474395231331846
0,463603974862299
0,426877058381822
0,42371773986684
0,405713490419038
0,427625960698683
0,422502125235703
0,412706610263507
0,428581602171473
0,40872884209479
0,459844910346188
0,420879063815258
0,438058360031164
0,430473466759238
0,432736012289051
0,432777275655069
0,44281650691877
0,442827523632054
0,444593828275357
0,447127587213778
0,459605794419025
0,426214494436432
0,55776010696726
0,474010019853174
0,471988898736837
0,466681876174655
0,474893163858633
0,475079304462616
0,474696534844184
0,498895504020695
0,501246504621174
0,480041645235773
0,503730467414706
0,491068093033561
0,504484152821978
0,498454370877005
0,552441781416055
0,499702193637883
0,534294097451967
0,496281328830415
0,554002749356651
0,578141752871486
0,533175198230869
0,548530688452573
0,525637568317623
0,537486087085802
0,526130712714976
0,531051107733615
0,536848897964089
0,53755885991079
0,529273292523651
0,543379704823039
0,534691841721462
0,534119608830711
0,538938769706882
0,527400865724734
0,57154324036852
0,530638211488096
0,53931672126382
0,524242431123611
0,534529303919746
0,522814036041006
0,559066162445679
0,549559328025677
0,536621170159826
0,550255241297891
0,542152660227585
0,557241030117723
0,552010019007913
0,525782729106074
0,541653823044771
0,53313384155163
0,534291706267552
0,530100987773599
0,540016287998784
0,576132798005643
0,54229777107096
0,552854746196104
0,540424903973822
0,54863743571083
0,54800430633175
0,554552875573757
0,549793075776334
0,568878878080293
0,559169743321737
0,572581460054905
0,565824003039377
0,572725876342054
0,584695885361547
0,585143043177691
0,583750068048224
0,570526305120192
0,573637636725644
0,564370181788032
0,558592550139394
0,576981880313774
0,564763960249363
0,557689599345036
0,548222453471672
0,545838586930276
0,533832160444712
0,579075827495217
0,541305350416855
0,5453392953071
0,532619606852811
0,513968552721569
0,525870970903424
0,510713879987885
0,515778065688315
0,509659265831755
0,518860344483628
0,497250045975193
0,502859395226354
0,49249392681212
0,494445934033036
0,492234559486528
0,503029397847128
0,495163833021437
0,496915793272475
0,492226601643342
0,486582941470385
0,499242281320721
0,485261160656436
0,491122088009116
0,48452207271457
0,505175299959516
0,512655016301019
0,508812169610051
0,497917256496744
0,484179498169093
0,501788731731144
0,485211412593602
0,489050605563608
0,480567832461395
0,485529503915977
0,479845203163818
0,491091785193789
0,484797226107082
0,488005393354408
0,482524705781696
0,48658962946349
0,48335142740616
0,485785513362471
0,478734084539013
0,490165297028736
0,476248870815947
0,482215682186863
0,480310387056638
0,49132730294846
0,481170583321914
0,476786049708725
0,482709769867069
0,480006923731263
0,484782355406669
0,482666585259037
0,487408679592322
0,482454748999245
0,480775986275272
0,48296080393071
0,47602049885003
0,483271670863678
0,481546847725918
0,477537389624497
0,475164248670073
0,47751696440473
0,471640161197866
0,475759454128633
0,466218859157759
0,4647684082877
0,460466431913577
0,461266825734211
0,450539509674699
0,455666633681848
0,446293441013636
0,445080770818697
0,435353944060035
0,438278273069438
0,432650363748464
0,428158872805729
0,433721872953531
0,429750963309998
0,423251938762306
0,423719270144826
0,421441412336918
0,421015686738125
0,422232686484194
0,423068842175853
0,420413385945047
0,415759283337817
0,413727302998882
0,416565348962526
0,414543109981206
0,417390803087608
0,417188157779529
0,418556751848957
0,420017720843238
0,417256893596318
0,423112869585316
0,420823036014853
0,424022931135307
0,424945617770407
0,428794795522401
0,427240760819983
0,43102668529034
0,437287427250944
0,435283803503904
0,434807455150264
0,436053561108217
0,43787523550177
0,438847188565239
0,438754690098647
0,439012499498749
0,44224574722922
0,441506996002641
0,443454474389054
0,44265394503781
0,443084180377848
0,441552642492039
0,442714538230303
0,439984797524785
0,437672187256819
0,436530526275757
0,438779173678004
0,436685839556558
0,435479566229982
0,430663034552111
0,43234987968676
0,426348000133299
0,427444718042357
0,426204071482445
0,425549507504382
0,422775976184519
0,423246429550594
0,418787322152571
0,418083194348615
0,416504435115337
0,417613946485919
0,412634622446387
0,411548372164541
0,4121815415191
0,411380175153166
0,409289206247219
0,408832045124207
0,405880719672071
0,407910157876669
0,40390752103558
0,401860215912187
0,405807968875349
0,403731745020175
0,396820319421283
0,39724806064838
0,400357255425699
0,398685413075001
0,395050764099013
0,39332186599897
0,392241190293751
0,389942594076023
0,387854159976895
0,385613202404875
0,37961679747246
0,378286800892416
0,375629709359755
0,373303471444815
0,373136197883037
0,366753447995758
0,364580392571078
0,365483777171422
0,361399947657446
0,360093732515691
0,353852225170651
0,356160305181934
0,354465001747761
0,35319771630813
0,354139617227692
0,351718764979574
0,352540958608991
0,35275809697609
0,350478167869586
0,34749024410087
0,343882915575751
0,344342200861351
0,339599060982315
0,336140200591954
0,334575249245015
0,330198119057456
0,321963739152582
0,316338166606459
0,316242269989014
0,315526155934331
0,309115864253974
0,31103804590926
0,306212596577159
0,306900018672513
0,308230048580335
0,314041358980983
0,319201418561951
0,325153664427121
0,332634753553197
0,33732545002926
0,351963192766979
0,361524551228034
0,372559712165563
0,386452879087145
0,402244909172758
0,416903260490909
0,431296488507385
0,445419278259509
0,462816124515788
0,477561911635555
0,489088615606402
0,508523743351059
0,521379451709515
0,539252510664521
0,553348880732673
0,567855132214516
0,580515390906214
0,594813356898864
0,605112925464
0,617771503833284
0,628539504316483
0,640574788005423
0,651726918137462
0,657896459561009
0,667850677287446
0,675609633663067
0,684514225446358
0,695058320778044
0,695591453636406
0,699544092462807
0,702093179002676
0,704506666040354
0,70247799047673
0,704144204967002
0,707558660167615
0,706993551882334
0,711976995057535
0,705553909272033
0,710383868373906
0,712792532456477
0,71505256215811
0,71203674851576
0,716481589583355
0,715794009005471
0,719621358540143
0,725706222070482
0,734125697152654
0,735312412395267
0,7442760583488
0,74941033429541
0,752637676538497
0,758888927747968
0,764319821059915
0,770748123339363
0,786451755235053
0,796040749016889
0,799269927740101
0,818726127512191
0,826703278783807
0,835747222987679
0,847222049673274
0,857513380470865
0,870904587533281
0,884395058781755
0,883356187953555
0,892456146459208
0,898395454635155
0,90297593523727
0,904740865941179
0,911929945462031
0,906321410984247
0,898939368463252
0,903787375430431
0,894533569531842
0,892733512422827
0,88999652134254
0,882160364842121
0,889563373699573
0,880412903367009
0,884235482085706
0,894152866435142
0,903733318789827
0,904102771444662
0,924101287958637
0,950861512118186
0,947038165506278
0,965754201216222
0,980048685149161
0,992476894320071
1,00532105872731
1,02050808777222
1,03567725862693
1,05281592888195
1,06157993019819
1,08149815221269
1,0886741228641
1,11585497950669
1,11447659003339
1,13283522294565
1,16908845045701
1,16830146421103
1,19823722783087
1,22446627241879
1,23809946174996
1,26388061147935
1,28475344161195
1,32056279929467
1,32401841423692
1,32756796678222
1,36228699514129
1,37737027500152
1,40021599883122
1,42141317519661
1,43548671521511
1,45995060184489
1,47053841694239
1,49314540556132
1,49315033529628
1,53361714811891
1,47418025205089
1,51786478638374
1,52530098590861
1,49663508808008
1,54298570935284
1,55340553840523
1,48308145207598
1,51331179634179
1,4952790458586
1,47635624829031
1,47022120673578
1,4908308831461
1,47068651259394
1,47798059473399
1,51772925603884
1,52781988893279
1,51678108150822
1,52928228485298
1,57229714466575
1,57763529279524
1,57977727285446
1,56906589874606
1,60535436466532
1,64013858807406
1,61109908098443
1,70436160180215
1,75682842867765
1,67931614217082
1,69210131009567
1,71073960674253
1,69374678928214
1,83969715225082
1,75603624785934
1,7494709788706
1,85965268794442
1,81953152021774
1,8268122057168
1,83645802111955
1,76411777233601
1,82053914473614
1,76404278114265
1,78566946458306
1,85018897426641
1,94736536957734
1,84520910171141
1,84986053295493
1,87071091090296
1,88282109868646
1,78439181461215
1,81223053137424
1,78822000538156
1,95845039900573
1,97789989284373
1,95334213514685
1,84342727520118
1,95749029765665
1,8183187159532
1,77235727286573
1,70699702925351
1,74336165834691
1,6715080767217
1,67918444645516
1,64031487928413
1,55401264395301
1,52088035820146
1,50998526120649
1,42406879835104
1,40635690847051
1,35309666073825
1,32692116962695
1,27810421562538
1,25570712481655
1,22409894441341
1,24713358249694
1,23478212209932
1,23983424413261
1,20869754811356
1,1930535532735
1,20150915655315
1,17196024217961
1,14182394085636
1,14188160993905
1,14028166378351
1,14677454100474
1,0963040033633
1,1010059638304
1,07092504472428
1,04898674230996
1,03122922610134
0,99819756414673
0,9667687386564
0,948725825689448
0,908051355094056
0,89132528527488
0,861464766807859
0,827831215040164
0,787111647498503
0,76534564387153
0,723627927929635
0,689487691677344
0,660722035885534
0,635633780935004
0,605319016911374
0,580051872853083
0,552193351450631
0,532536822743215
0,508662874790128
0,494655006633921
0,472915818068098
0,468028243247567
0,453408664752699
0,440093995393231
0,429181786643039
0,422296596509944
0,415684685621835
0,406379480074579
0,402161150941988
0,401751227160745
0,402007238873355
0,394106886900817
0,392595292708318
0,390433600620703
0,39301405540606
0,396404707301228
0,396263262844865
0,396987114338178
0,398280892838928
0,407933164727746
0,410079755827216
0,407002950071901
0,404489903856231
0,40707176685331
0,40179988485108
0,402307978081895
0,397783853309616
0,390813733120347
0,396863304442319
0,391285661512235
0,38345056527097
0,38315624660757
0,385696613973389
0,382698698937264
0,379818459864689
0,376254819728423
0,370425582869895
0,373620051395137
0,377354728975909
0,385038304677939
0,375994303907724
0,379577457672002
0,381303693788202
0,391270673838669
0,391226778978341
0,39130835316243
0,397150937154293
0,40244789889011
0,399787270314092
0,404025556765171
0,40921678616303
0,413241531926042
0,413345932690804
0,421616988637997
0,420801139612471
0,420808812931161
0,417927784316889
0,420307584640995
0,414251374545269
0,416439671871549
0,428375323066681
0,427019201181242
0,423418373541148
0,426550078262997
0,431827712409309
0,433347443396143
0,434951422078004
0,451471883459634
0,453750737252534
0,459731153426851
0,471361758312136
0,482776133163185
0,495700756065491
0,511607813437006
0,522017519443744
0,538650672429434
0,540530572569404
0,558373582148073
0,562122181575155
0,574985249601914
0,571805549917238
0,576541040213935
0,556247252177888
0,565762790715171
0,551479635737908
0,544525319810109
0,540219273955178
0,52953979802564
0,510308671549335
0,522779760468656
0,516943252543188
0,512516760518578
0,517291262909736
0,518253718947759
0,512302661128375
0,521562525116727
0,513561457650445
0,519421136676011
0,513331007991422
0,508296899646781
0,515779679347162
0,498861779044169
0,497240685679146
0,508140752975633
0,490633891040777
0,484935234574238
0,48626468656033
0,487609818144662
0,469313834028181
0,471349062284168
0,473000230512527
0,463771698193685
0,463974015349209
0,466046113721033
0,449787193926815
0,457740171609061
0,462078307493696
0,466005274107706
0,459806911306333
0,44866851601969
0,440022054133158
0,448529073801752
0,454100055591429
0,443904051758014
0,443164434428732
0,450568903833964
0,441865693536285
0,437799282109389
0,439571154820024
0,449335127137107
0,447345515891807
0,433930829028504
0,422826011288116
0,428243352972887
0,433198909311695
0,433308013836928
0,425232316735696
0,423111472175355
0,418830803681982
0,422970581682922
0,408515826073981
0,404065761903191
0,419770636540319
0,417011682690548
0,400234740832052
0,422871520555059
0,423989044110033
0,410405857516405
0,41799837335368
0,415124030274664
0,40893824052699
0,418624737568702
0,420418475730646
0,429852300050787
0,428798148025371
0,422886054847156
0,4324353704152
0,44638907393531
0,425541359279847
0,433653964515895
0,430750131291847
0,435743695667463
0,439031242590587
0,439413100073511
0,445169406124215
0,440905797284825
0,435124060667642
0,452969559187511
0,455630402278995
0,458089662352895
0,465755031341701
0,459439007970503
0,453761116534949
0,47821405718975
0,48196635441139
0,49786438093013
0,500650224937327
0,506984976956837
0,494230907436344
0,501301442832278
0,521662563034307
0,538341930685568
0,544429094052414
0,568716065357738
0,557974936145232
0,593157338208609
0,617640339888432
0,607122369597558
0,62107243632359
0,646095917388743
0,635452607086527
0,643638069152332
0,684840223344564
0,70415742565442
0,699527233273309
0,705827954081957
0,710233435354137
0,763115310820743
0,737899979769948
0,703290032806125
0,701247056094042
0,730010120471646
0,722838677865428
0,694006773319172
0,700378292307002
0,718745967760342
0,680406979623994
0,689621617953617
0,70263844882133
0,705542189138351
0,697669149020787
0,697851497559491
0,694137546583564
0,714820929624036
0,702256452292
0,6886105396422
0,679350009182222
0,6974446580567
0,679579453215959
0,658982332981442
0,634597279817661
0,662246566658933
0,670988306568373
0,678522373092718
0,64701393074842
0,640278635558155
0,637192432100833
0,661946373632855
0,653018866052122
0,63199326172326
0,640470774193229
0,696310460913869
0,687338177610654
0,655318293841169
0,606363420953328
0,626636125056533
0,642160543638291
0,634393084871462
0,648696543175453
0,668601776036288
0,687589133434881
0,651199645145365
0,644080914758153
0,676462224432154
0,642451104069243
0,623791666767492
0,645590462383918
0,689190785242854
0,656454712933798
0,635634718336753
0,680399905695716
0,700409602852337
0,661568848599994
0,684201349088905
0,699302463985176
0,697824570420297
0,67246791733634
0,663564942306967
0,743427786856655
0,686009724111291
0,673767713039913
0,752769962413078
0,674655107128932
0,667741791730107
0,721868186933645
0,709509188816279
0,723708493762296
0,746551253888733
0,754859380148148
0,707009794231087
0,688631192543309
0,732505674562233
0,840455442897699
0,867527181119963
0,828448353798278
0,860713832037792
0,808754420493172
0,802436750986425
1,04182767179187
0,884836596585499
0,766952497075722
0,821452109544216
1,02032581335664
0,995183408120796
0,953312369565157
0,985493731988581
0,998869469549927
0,954961947573773
0,8772961927481
0,816351074539066
0,842630990989292
1,00780618207637
1,02725042193791
0,89108219667114
0,743513951171945
0,690735015453046
1,02425429353927
1,07939176013488
1,04023166012766
0,93927163409293
0,953906683515844
0,949987351881368
0,902789735620618
0,825590513022517
0,742978077842172
0,82628184895971
0,794904339675631
0,890919796161096
0,818859296125188
0,867278936673151
1,03661788402741
0,861324696357908
0,944951855122421
0,851570890722438
0,801248392771858
0,699588101485547
0,76491744045302
1,10236601574881
1,09839945782454
1,09258316757157
5
0,601161395833212
0,600949506872634
0,735882588132787
0,714783255680464
0,741227513625968
2,41867484965106
5
0,710090231449899
0,932501082873402
1,64880853935388
0,935091005241674
1,0183380945946
1,47412125789419
1,0225042541741
0,668134017643743
0,719766540957866
0,560556247645965
0,829341641191049
0,90926681992028
5
