3596
4000,36533379555
650,420452594757
1
2
2
0,0697236070010226
0,0754013233176235
0,0714423283467715
0,0704892463275392
0,0718463451731705
0,0722473482295197
0,0627697434434753
0,0711908372555899
0,0716123238814682
0,0714647581420608
0,0767670172802419
0,0705613965174734
0,0643787413673802
0,0723025285367589
0,0682001048592005
0,0664526980578069
0,0599739915391977
0,0706074923266738
0,0715163470801256
0,0630945680247105
0,0628577674361354
0,069443586375401
0,0685753583569464
0,06899064826292
0,0668635408655045
0,0642739930105802
0,0709693447339345
0,0707149313182756
0,0697483432825593
0,0702086759240105
0,065279510989842
0,0710472889519674
0,067988405746911
0,0701464513872827
0,0682321563856733
0,0654972694785861
0,066712671817751
0,0717229996756958
0,0673359149738796
0,0733128614294293
0,0717162962157522
0,0657785180333664
0,0601461600433611
0,0583730553692408
0,0700630070017993
0,0750608512820058
0,0696059611124315
0,0684700638100177
0,0639171391248965
0,0660995779347185
0,0627616610300467
0,0588122060586532
0,0781499552961506
0,0795751242333192
0,0716887202946271
0,0848612535253199
0,074253903640148
0,0670739039951898
0,0697513638119077
0,0698970504070333
0,0909456164263951
0,0846669197721538
0,059578272811463
0,0627853218043219
0,0614295111147021
0,0694664971944594
0,0685260618492471
0,0693423596941504
0,0618107313696521
0,0649475142916792
0,0607500261693642
0,0826144404824379
0,0839213625853884
0,0712129131344667
0,0746784079652339
0,0704530986520377
0,0637609720184351
0,0556355911874494
0,0628675667314053
0,0810017650042481
0,0754243486458986
0,0783259992518508
0,071667630476084
0,0622554477268837
0,0706868575914842
0,0753409345719666
0,0605712082489642
0,0660610979293911
0,0867546638302559
0,077192116859774
0,0707431272190207
0,0633927213002991
0,0624858281200514
0,0646231165582787
0,0625872416668304
0,059895880551645
0,0619945649466118
0,0673540543860093
0,0636671713572698
0,0677104306563606
0,068823729926885
0,0779269808711
0,0954379920331391
0,0720400979860064
0,10513238258502
0,0757518277253794
0,0571087384944002
0,097944766248977
0,0815987299647637
0,0723434854241355
0,0664681943460934
0,0637812956478574
0,0660270016852905
0,0701183445426864
0,0596303228979552
0,0851687558826874
0,0953311711673278
0,071441192686456
0,0672124150904865
0,0643657088678342
0,0517484865627434
0,0912687120380794
0,104854682944626
0,0706579685393508
0,0753783661775816
0,0644552954049255
0,0533826638618777
0,094597404520701
0,0929312149971278
0,0665749995769681
0,0646948435138077
0,0590280983256986
0,0551560881390995
0,0593089671181172
0,101105240136951
0,0787042468095042
0,0681283534742846
0,059391528404577
0,0780067792619007
0,116107351755049
0,0779323462978172
0,0696209664101264
0,054172388835297
0,0609547261246377
0,1077470276982
0,0779094885569019
0,0611265523445724
0,0912236218212698
0,0808653692720942
0,0567516941431358
0,0643358855215713
0,0614447180655687
0,0813263789863008
0,0715081554763387
0,0333751951897178
0,100916285442901
0,113645042120189
0,0837154637305976
0,115145436086154
0,0735571451856431
0,0725294482674616
0,0656723486714364
0,055589842397962
0,0586656315715571
0,0583734621497784
0,051626633466751
0,0743740362047791
0,0912501378127268
0,0589777969211245
0,0675533611136326
0,104917096304411
0,0792155415769539
0,0561375005630438
0,12443417295214
0,0901724368752881
0,0592845304474737
0,0947871408856138
0,0758853443444357
0,049722662808054
0,0717536270237044
0,0860535839205167
0,0588212099839644
0,0640707493734343
0,0617011899327619
0,0639899958835435
0,0815790245154723
0,0744990065677708
0,0693301409088215
0,0612163582842065
0,0528315868564256
0,0763556056552766
0,112093598288757
0,0945257691278108
0,0732357940179264
0,0586505000250183
0,0416155969516972
0,0910534015560626
0,090670199275569
0,0624657747147512
0,0603524189639699
0,0546216835850746
0,057993942574912
0,0573358767245297
0,0640800764034547
0,0550563667621054
0,0495768668386001
0,0993131393869219
0,0859454968981561
0,0603872557526343
0,0531225105808224
0,0636392963781671
0,0653537541566119
0,101098891178871
0,0968684213311204
0,0677453844594696
0,0657835169003308
0,0580929976317344
0,0825019680798317
0,0767945999269811
0,0541365686043612
0,0630558028127346
0,0615666142991514
0,0634066374763915
0,0620626967203292
0,05830455275195
0,0627987113480767
0,0609905997820907
0,0595007289225851
0,0594130225779577
0,0628191978188834
0,0731481911579849
0,0627906348703066
0,0628930404319127
0,0621613233111566
0,0549460571196219
0,0715989974414223
0,0781777698829667
0,0686883270784335
0,0629244421471048
0,0555766074404965
0,0572805033626287
0,0639738069815057
0,0578362845067362
0,0576103011925486
0,0514037199520025
0,0560804136236215
0,0885187666540569
0,0700900840209055
0,0603175587357517
0,058310590847028
0,0725888736665983
0,0816453475210197
0,0566881234237155
0,0597151490262177
0,0697439197116236
0,0568355341480419
0,0641237280571687
0,0937967973537858
0,0777260332115826
0,0664436942630981
0,0755210381265709
0,0660765739031281
0,0638735015339661
0,0564988559245246
0,0598903305202924
0,127313935429651
0,0900308105396867
0,065056627961847
0,121941373825161
0,0861541095697365
0,079206199229987
0,0616731633936984
0,0423224204937038
0,14825542438383
0,128157377570112
0,0708926369303738
0,0714222083123435
0,0782864667483172
0,0660012263689179
0,0660665714284608
0,0728853319090518
0,085407658419721
0,0983411290339002
0,139308428183302
0,113159177389527
0,0626864368565032
0,0980514755695935
0,0970682133074149
0,0731156757879622
0,0727616160328981
0,0694898219495497
0,0733263319751738
0,0834079064751793
0,0837356334478578
0,0817883589235147
0,0665504266986427
0,0716408409520168
0,0914049073848196
0,0867417366096061
0,0605807703808345
0,07676805318865
0,0838646769822243
0,0685025885900402
0,0597982523092801
0,0655367578240587
0,0726794136724506
0,0631919626760065
0,0696379274756266
0,11624734649134
0,0855351716361607
0,0834574005503893
0,100195855337822
0,0805687291112765
0,0643622427402702
0,0702566914073221
0,070818164740706
0,0756490913538841
0,064967733939241
0,0727852785361832
0,0932296117029986
0,0797383218355344
0,0681456465525643
0,0706771429193921
0,0656551590150119
0,0725463918704757
0,0717447235030879
0,0695932986675602
0,0731035476699676
0,0734765853782272
0,0651318493109655
0,0944181633442651
0,0956223230839207
0,0766115332545736
0,10309493253046
0,105899948880808
0,0798515390018587
0,0751482869650387
0,072464992114157
0,0782472151300788
0,0745968196742344
0,080473387870282
0,0722224950533357
0,0814400470844641
0,105191444743885
0,0848123314751107
0,0774130438720115
0,0833575757499853
0,136116524351466
0,140308472118939
0,101923747345215
0,0832479270785864
0,0719395726237069
0,116292157267135
0,109990680131943
0,116714866663158
0,113110007309348
0,0963170818951337
0,0908161700545815
0,0901197034177763
0,0834203047152561
0,0900426210119565
0,0938834016463222
0,0933684588624204
0,0950308111577832
0,104899549759757
0,101321356817221
0,0924292888014226
0,100209325530344
0,142443939565619
0,118553705040208
0,10863752380471
0,105406358060473
0,102477368168695
0,129882741354439
0,149255118323503
0,155968213735655
0,136913693507384
0,153092631934248
0,160158121157351
0,13779573122284
0,12698181736361
0,121175347380399
0,12781598326398
0,135788496281152
0,136335086438437
0,132075497450588
0,125900980777355
0,141152861515064
0,142851467188713
0,143825525895693
0,134234071481994
0,14409127296592
0,168295276715343
0,153898895123378
0,142420437441995
0,138750635027668
0,165724885001928
0,217777066884188
0,211008258081575
0,171079690380018
0,165441615535113
0,161854432498503
0,166968464545341
0,161729346480444
0,173022091952283
0,176204265790349
0,18162665608113
0,202222366265848
0,202861516568349
0,208925420772565
0,200810432422495
0,183277100038615
0,210249623410649
0,196520750197446
0,204329704051267
0,221798510179371
0,202511908652769
0,182577760716074
0,234101792538069
0,220320282688895
0,236686105620645
0,233000609590478
0,222552809270751
0,208580453304559
0,219878724726376
0,223781307998036
0,229132593529498
0,228947958480443
0,235889029595236
0,24418420675583
0,254495954244399
0,244004816066278
0,245841349841717
0,253077978280368
0,254296608259644
0,258765598691043
0,250080646616812
0,25801412680463
0,264175508724421
0,252268694372714
0,299758885526455
0,277191344071456
0,309525976899584
0,307319661409406
0,295655018195461
0,273084467722925
0,280376326715475
0,284199693966588
0,279275253868299
0,288174274927956
0,310618682007186
0,302009688069
0,303831309260142
0,309561593279761
0,321118831247195
0,304206463779789
0,324684352918858
0,320476285938958
0,314731185092682
0,3275163207409
0,331555467443203
0,337171021729091
0,385776385776993
0,375459659979725
0,397943086429978
0,371944573298316
0,375442149148383
0,34975569902783
0,369058949898147
0,340872276114785
0,358175629731464
0,371220534345169
0,38100168161268
0,375311043361137
0,379963636372527
0,384677928878972
0,391359950890112
0,397415094346735
0,410060245865752
0,399118429439635
0,416030431762464
0,399393419699256
0,405491169441417
0,403392981495875
0,432792761498417
0,437190144035468
0,437980730521843
0,442235769697689
0,455576640440552
0,44667825227152
0,432340817264233
0,438086213042133
0,449990234963756
0,444336431013281
0,471996289844284
0,471710206221394
0,479664609299194
0,47183346332218
0,469498159430942
0,479147439220921
0,479168324488243
0,471298801952316
0,485653929641018
0,483969040371308
0,523638392910788
0,522783198738712
0,525337618395656
0,486397311537364
0,520105937446547
0,520784457008971
0,515900521665176
0,522635085523929
0,563475354268233
0,531560516189305
0,547563124653398
0,534455778625064
0,554345083941322
0,558121988545112
0,570985667212003
0,537545275284406
0,555646453604307
0,56814124841709
0,605733700080984
0,587968941951622
0,604503279510223
0,595592719352643
0,606347768830221
0,615486573636213
0,611324137437791
0,621762496000628
0,626431379166495
0,610429091795246
0,617656040002321
0,619642322502744
0,633020177892204
0,625138588115843
0,651941061125708
0,634549328417842
0,652016279912058
0,634560580353939
0,656129999174099
0,662863899688084
0,671685874041899
0,684733060079413
0,702253193125351
0,666527256540523
0,712345034554186
0,697565698306802
0,718352754524455
0,70421614095808
0,692238212819859
0,713235874442241
0,741482244546233
0,709799760417003
0,737238864380892
0,712935696857146
0,727118673729497
0,703077557111828
0,77409239460276
0,740667637147517
0,762912624108052
0,743554236429139
0,770434037832828
0,73074788182275
0,764969154608594
0,77115608348756
0,795326218512714
0,729154419167615
0,761259822069642
0,736934206789674
0,778945715970075
0,774030629677964
0,816012178812902
0,799499557483822
0,794554688624871
0,803332879466715
0,859013342645383
0,78455189674584
0,798129544200349
0,837618769371108
0,881010593325522
0,829579900226676
0,851059904506327
0,854790373367675
0,886086040860873
0,853248262922937
0,891846928981402
0,854637941176977
0,85639567032206
0,873146909365964
0,935063720311528
0,90552267291931
0,922688610329056
0,867120777912696
0,922516010054908
0,857246884227788
0,910640932258853
0,855466850376327
0,916738487235403
0,908196470474153
0,918696942694413
0,893934111897649
0,960697030483958
0,903605691278214
0,935164706511069
0,907077140389212
1,01439704324024
0,942798741578661
0,974883833005244
0,924162829640886
0,948792672258973
0,935162968590489
0,975597691924986
0,943671165164228
1,0315488891453
0,931655083397801
0,955413331158504
1,02206494730067
1,05286502186521
0,967573894941958
1,01012544433777
0,991268807674796
0,986754522934831
0,973074808011467
1,02700566711363
0,970995997964245
0,990772273538928
0,979149513147048
1,05812372850847
1,06217009543827
1,07382668280982
1,00119765138095
1,02751864634374
1,0455611479339
1,10246170033393
1,10654295550768
1,12657381338336
1,06258129636305
1,06298029138634
1,03405684385671
1,07412924275736
0,983517975017441
1,04830833931798
1,01554761098503
1,12154845038394
1,0707603191539
1,13011410392032
1,08111213319902
1,1453562785404
1,05866314807544
1,11164195816737
1,07957076745748
1,22153695376146
1,15886598070205
1,17610025166605
1,10034862972634
1,20374946410798
1,06480840524209
1,08679624656557
1,11620146440253
1,14829108214373
1,07347200465425
1,18518880245791
1,10665157186582
1,16704197060906
1,07025494353098
1,15985845920514
1,13180641034136
1,17396665439902
1,20546336985234
1,16460407040228
1,10672932401244
1,20381677909591
1,07754282952658
1,1199455381421
1,12632022335585
1,1325087890126
1,10867517163652
1,1672824815108
1,15655596716703
1,34782390573729
1,18901313371764
1,16781478719239
1,18466037782498
1,27645616050063
1,11307511926612
1,19678286813506
1,14526900154207
1,17722952435303
1,1836063805554
1,19299763375662
1,09528836186655
1,21520023784227
1,2376134751245
1,2135019778092
1,10683933219592
1,26912786189118
1,23990410128097
1,29111528580896
1,21930282311381
1,27190849692198
1,20934998093856
1,20590487926891
1,14863923574778
1,30639977134325
1,19963254183294
1,23656313702346
1,17877733354009
1,23808022188644
1,19998562744241
1,25008824281596
1,26597363292515
1,26609789746017
1,18695132782189
1,29510618781757
1,17982216916189
1,31244246413126
1,2255883114467
1,33402346975968
1,18881313190574
1,26841866158798
1,16976345173008
1,18105703940112
1,19641624817753
1,15568103289642
1,20997587805858
1,30801783329895
1,14837284626154
1,19522265333446
1,20816733399932
1,23284273897215
1,17467236527581
1,33163987161138
1,16093721866888
1,28675739555515
1,19074439054601
1,19346989748033
1,17408606332483
1,30844507491194
1,18171786287632
1,271829465098
1,18582626440761
1,29028479495373
1,16019290710127
1,26465735653266
1,24208693005919
1,21031680251123
1,17649148517125
1,20888130295563
1,27768667811613
1,38716817011027
1,15775231150244
1,16717527227351
1,18844669087034
1,15895480614082
1,22408839092862
1,29983870120143
1,19088491598426
1,20370025659312
1,21243419355194
1,20025419562532
1,17614492441792
1,28645396084327
1,17980525975806
1,24912312856286
1,16516617447759
1,19179841039311
1,21277426123129
1,2311860805234
1,16125078287802
1,22168161399065
1,16851549924744
1,24071221277211
1,27288184293971
1,21233506335587
1,19450367723644
1,31612107049881
1,12438338744995
1,17852899238328
1,13457314789744
1,13928083860626
1,15806857107118
1,19387306157311
1,14000739898359
1,23031723782897
1,19711384892307
1,19034041196721
1,12687544154826
1,21771827413751
1,15270644901229
1,25054863486106
1,18525701756769
1,16229602252909
1,1045952451164
1,17276636625531
1,14264013968164
1,22433227410123
1,1299541871097
1,14387227152712
1,12836142842436
1,14911239694511
1,15165798489908
1,18705768665543
1,12136706846556
1,1623033844238
1,10913152021618
1,15017646674748
1,12117889535153
1,15687843873291
1,1308217922027
1,21246042067129
1,13947076526624
1,11038053414627
1,0574326800274
1,11796707521878
1,0893389511541
1,20738675821089
1,0682231533223
1,12551310429092
1,09637158943806
1,14388009393776
1,11415410161431
1,10684001307601
1,10823142699924
1,11319090205603
1,0364170070119
1,15437213222343
1,06703290371193
1,10435560358207
1,063671775591
1,16045804557853
1,08812899996768
1,11621659954614
1,0859211788437
1,12425799463914
1,09523050879892
1,06574937738527
1,00328114827076
1,06522760735936
1,07362056288919
1,08697020521398
1,00286900214176
1,06816380690471
0,98028947877772
1,05405870852098
0,991646509449079
1,05794780303389
0,993743150935242
1,07609025253365
1,00611522707259
1,05292341080838
1,06034324017901
1,01515641383593
1,04590511601915
1,0417885378256
0,992085629853852
1,01941467451566
0,969742322500928
1,03947343624317
0,959675313212828
1,00923835357707
0,951751183836467
1,00835893481093
0,99479676425828
0,991972479929225
0,953505556890312
0,983640000089174
0,949497635022137
0,978655684905167
0,938852894686918
0,943915521606823
0,963745845371595
0,976856442459448
0,898831356480253
0,949823068052348
0,930104233425102
0,930936811297074
0,919083726604703
0,924485753623095
0,913800404113403
0,919602715483431
0,922396491403608
0,929283465145511
0,903452658795589
0,909959732122747
0,863829597027938
0,940354967769795
0,867881435555273
0,886887265148843
0,878077280242049
0,881966374969863
0,873277723954464
0,86256423903218
0,857121988648883
0,880892307750359
0,844155128756641
0,869902672794389
0,863757565460521
0,885560213565031
0,842125152489554
0,859906242852756
0,811442426205058
0,836817306664363
0,806004296194584
0,842387677713867
0,825996268357149
0,807543084695215
0,79408761727932
0,802918104256444
0,771906299780602
0,798162452103567
0,792360092996883
0,82310348183079
0,781696755815554
0,805658747456637
0,785469149678073
0,781534682366574
0,757904563876283
0,767674007325192
0,757662151892477
0,764710543389276
0,751346941325121
0,770277710465479
0,742410933328308
0,753574562140338
0,740610955699369
0,747772383289042
0,730436546107746
0,726393465640637
0,7477246775154
0,737311183972213
0,712370470705068
0,713678304329901
0,708237835065651
0,723226681239427
0,690184863572666
0,713310103337697
0,722356691745863
0,705656610924044
0,680404717724361
0,697217985992195
0,689474344754519
0,66675397397884
0,672566586842034
0,673944864812378
0,647052579226296
0,665100272764186
0,652299510600063
0,673737791840009
0,668699806993566
0,674684383923648
0,63382440761062
0,646447486060448
0,64089768555858
0,654106979153503
0,629852422727603
0,645311214322092
0,634079865379747
0,640730614702854
0,626884315449725
0,626458559656596
0,612035051955729
0,633643199409823
0,606080716636064
0,609024921986686
0,60235530486861
0,611574316230722
0,597134540321087
0,595438632137714
0,592630010903042
0,608748093642271
0,589345123347108
0,597326093974266
0,579503007219753
0,589597638709633
0,576258569659486
0,58358268972359
0,559814253536859
0,577366421209363
0,555336620087233
0,571621759638433
0,563568294729692
0,567713647305185
0,556364857913318
0,554501209117204
0,555454526270913
0,54271680930129
0,533091529885394
0,542166908139704
0,534871062011946
0,552990552616275
0,519045865523973
0,530574555869971
0,522831379100965
0,5154501525086
0,524783540246035
0,51383638499011
0,511645837347539
0,519499547671994
0,490151754070914
0,516508279975322
0,508986338490971
0,499988914774183
0,493507201763635
0,497873092474867
0,49197453443088
0,49176581545534
0,486714486816358
0,488422359901134
0,48921128919658
0,48339497773326
0,470753535844461
0,481747678571372
0,464864093585562
0,469371934338155
0,47433556193329
0,474258100124358
0,459764155385497
0,463247314794169
0,444730788779371
0,465580244529514
0,453803065668055
0,453104416134636
0,442265325786694
0,450929329037262
0,444915786346718
0,448844749591736
0,42511631180262
0,439402289364982
0,427399463734031
0,434474044795479
0,42420386074679
0,427378405377411
0,42264770878862
0,428934734830262
0,411799261254722
0,427066054493774
0,420453535330478
0,427864104853256
0,4088990607507
0,415494558366504
0,406971041420834
0,408760485291261
0,407784553237027
0,411507163488066
0,40541763154951
0,40221842335431
0,400310411517748
0,389096940753944
0,391058456949967
0,389043523088574
0,385845782061419
0,387605002924627
0,375632455833439
0,381972682000835
0,378837878749958
0,382489233162388
0,373146353258246
0,381218410860816
0,373870063729695
0,366096110238453
0,366412062581323
0,378091884073091
0,357107808436113
0,370345383758239
0,365145384693374
0,368863212759395
0,365235055728225
0,362245211195384
0,356054992878522
0,367291468990755
0,352470951196075
0,359315693329239
0,357703021836975
0,363006659193299
0,356722912865964
0,357978608603602
0,350477542802543
0,36088222796913
0,353952431832574
0,355816339403625
0,351607515801126
0,35432301334287
0,352989006141437
0,358285121835875
0,350606056798144
0,356404921529463
0,353038941650912
0,354589285631632
0,358587521903136
0,358779878657161
0,362372641233832
0,364050202934019
0,358696585302793
0,363319769722541
0,367397747082232
0,367015096063001
0,357723352951367
0,375394592481847
0,363851525442225
0,382283929483895
0,377127314930154
0,375075442828168
0,375793272003672
0,378849216072857
0,380090790884575
0,385133435401984
0,378169923844256
0,394399051250629
0,37908123350409
0,391498817088236
0,380874261355449
0,388645334243663
0,38787480473921
0,400882030702674
0,382523377983461
0,395913659089471
0,388903325627697
0,399830902014448
0,402130405853808
0,422253746919361
0,401092872036488
0,409956290604618
0,410398154127742
0,411576802995606
0,416712198517404
0,429849138810323
0,42157691352182
0,431704211231232
0,425057543568098
0,438832466437221
0,444810660150277
0,439568927869289
0,437004090848443
0,450979346585063
0,45110426448755
0,451069151743899
0,448790428810479
0,455746844057056
0,464878653086425
0,477876546777459
0,461261856568236
0,472444811995488
0,469488144991136
0,472824370704901
0,464564853544187
0,473639615449219
0,464754990934135
0,482166504020256
0,479444404925828
0,482729710202683
0,480738563635169
0,48054032986234
0,487234600016761
0,47922475358617
0,482950274302146
0,484663978007372
0,472322798404836
0,485938915481063
0,474007349882761
0,477608121499305
0,470565823911307
0,474096288177654
0,47510180695867
0,482303361472368
0,474227768377332
0,486142725394801
0,47784045755999
0,474145328882113
0,475573298051139
0,473018945140051
0,467691325692426
0,489651778336858
0,476893458925313
0,477850840489912
0,479568908984264
0,4775127805768
0,474310866231955
0,472085996703109
0,471575048181497
0,478232211947286
0,471858875951533
0,476957736552919
0,472274556283627
0,47290545626773
0,476324588420499
0,481341433370645
0,483285302503456
0,488466607861329
0,47454759243881
0,484079533768149
0,475268781746622
0,493369413703722
0,471764464863371
0,483068401988022
0,472777227921316
0,478569119325628
0,478933577412492
0,470500683376772
0,473109137028448
0,477583668906332
0,472774830852526
0,474582603109981
0,476214464958544
0,469476460283735
0,471526376078965
0,472657927292063
0,459714218051259
0,462488109136236
0,45788166051811
0,467818522097657
0,44970569872598
0,459986897903441
0,446111722046144
0,452408202376589
0,450093731210526
0,446416719344699
0,435977454503062
0,43983130867634
0,4346830043721
0,432440968211455
0,428714014162886
0,429656460748194
0,416201177597552
0,424869972529133
0,402296465888716
0,409121448385773
0,399296604462006
0,407387259350091
0,395891250016368
0,394405961702969
0,390205720542866
0,390648070274333
0,383550441617339
0,382854032170232
0,386047287092163
0,38471840195267
0,374176972562199
0,376156523050704
0,369461869343543
0,363219866248799
0,366092772837227
0,365786876532302
0,358937238875681
0,357513977348294
0,352310739138785
0,348007995142956
0,353778710497062
0,345649653283359
0,341352456788788
0,34347054410286
0,337620033306496
0,335722352637525
0,334199007762958
0,339030267854503
0,330738069796459
0,331077538331407
0,329876183366643
0,331192039421653
0,326620278952281
0,328350344767077
0,318736589043726
0,318884949474709
0,318606869346301
0,317037250137668
0,31363314779727
0,318248106709563
0,312766200938324
0,30719939487097
0,302822403765213
0,304759523233148
0,298182858043354
0,305268044584962
0,298368246225073
0,306706739894651
0,304741856745359
0,299759342785995
0,29048599689093
0,299514078921009
0,294872794773855
0,294976673667269
0,299084682631187
0,294569551670399
0,28755802036797
0,286998161601527
0,286073539900097
0,288026833313092
0,280215949250134
0,283577930254554
0,280847063993929
0,277470842478589
0,278273049842506
0,279843734064653
0,277941262248099
0,275107809443204
0,275457953142242
0,27784970232335
0,27015523024815
0,271402074020072
0,265828730164576
0,266604924907468
0,26532830153044
0,270539075542264
0,264824921205919
0,264558073600458
0,262937693940127
0,267826972778261
0,267829759477172
0,267893260321751
0,261932990482337
0,263337914958257
0,25915409454717
0,260307222043461
0,255706343532466
0,255733049732602
0,255212692007685
0,256153217954145
0,255836605083873
0,258380913201181
0,253596307588926
0,249842649416723
0,24880662443395
0,247950632861133
0,249286278956491
0,250838668627183
0,247803676042317
0,247595034494203
0,240781651991324
0,249553327798762
0,247225795279479
0,246569985777234
0,244910659980862
0,240158407664358
0,240979422401516
0,243856294179257
0,234466473166432
0,240730794254893
0,239888010935104
0,234546498460231
0,239088195047128
0,23600294648952
0,239443559691934
0,235879651487723
0,234568150962389
0,237006009713423
0,238410671384979
0,236227582811117
0,233459308051333
0,232746763330345
0,226919037804366
0,231365006834492
0,232309268310692
0,234783941461073
0,23304851456063
0,229597900451519
0,232196863650033
0,232880088327265
0,228257127387375
0,230192477770293
0,228249078160315
0,230093845355931
0,231104023319264
0,226410659897542
0,225173196949663
0,229048765730521
0,230331271335658
0,233246209771283
0,226811815999333
0,232369858316474
0,222969686905725
0,226188817102959
0,221064023331446
0,224821411290983
0,219834769641479
0,222811558380745
0,220212940125869
0,223106382909727
0,218282253195152
0,219892394569263
0,218065418877856
0,220831292659194
0,218181209032049
0,220311496117964
0,220092200873514
0,219248482429036
0,215845181115193
0,218667022675631
0,218193124391603
0,221408123248926
0,214707174520794
0,217632527916825
0,212375396852106
0,218494537706801
0,210503156257844
0,2165527443246
0,210935037491453
0,209377698925659
0,209368797685311
0,210482273571218
0,208124342676084
0,21025618924843
0,206876451858299
0,208392161739638
0,205334815210395
0,205112402341601
0,205355185610383
0,205390457326941
0,203367319740801
0,205865730904065
0,197606364497708
0,205651752773616
0,20249213776613
0,200172796317725
0,200604493055684
0,199350648338494
0,201989397107298
0,198784187906797
0,199370338468132
0,196758060158624
0,194493750571895
0,19740294913781
0,191789915307853
0,195131381472133
0,196914925073082
0,1933436183077
0,190758955257451
0,192856593448209
0,18931505607275
0,189418930635135
0,189933455695361
0,190823010374834
0,187902773370375
0,187199560028696
0,189947322812109
0,189750763634034
0,184093125590513
0,184121264138288
0,184016272596683
0,17958825856337
0,180674017544071
0,181339446328607
0,181348830615616
0,184392459228191
0,175052107549487
0,177728717194467
0,177497375996765
0,173290510669395
0,173313340352083
0,175466044783427
0,170552641125435
0,171826754734166
0,172220030499992
0,172016170729962
0,170094247572
0,170269716908482
0,17274020467678
0,169016545584589
0,16355860513096
0,169002036318595
0,165380578318509
0,164846610664743
0,164406580616092
0,16256971267656
0,161354689781472
0,164883679389015
0,164779726352884
0,161933818182744
0,158421174552968
0,15566666174953
0,157043421477877
0,160670550187061
0,156507251731067
0,161129598668208
0,15525709253065
0,153362304843482
0,156541680614541
0,152549869067282
0,152705388484821
0,154662730347998
0,15130451447401
0,151929646769173
0,149583145822138
0,152109572560566
0,151237616670295
0,150058992138862
0,149645319671581
0,148727590149307
0,147210004476557
0,144257838333749
0,145099460445182
0,147104215432452
0,142843225587127
0,141957912349303
0,143557382515217
0,141823919033316
0,143765299834966
0,142694146442096
0,140922249465576
0,144412518293886
0,142321176196347
0,136139856879452
0,141034362915411
0,1416888100172
0,137187579903838
0,135388332170044
0,138060130520627
0,139969997551523
0,141044805741372
0,136859436405916
0,135819164387728
0,135502346961431
0,134231542117195
0,135346614077795
0,130810317804063
0,133049187378121
0,131290138447621
0,132920734315919
0,134416945636232
0,132493319317154
0,132681785169176
0,132147869691255
0,131716920399621
0,130653548546907
0,128225243610333
0,126483862901718
0,129521144111217
0,129327033887415
0,130067645529522
0,132581956704115
0,130424075553902
0,127644608034544
0,129027870771108
0,128334823665929
0,124489613751959
0,124125556114977
0,125429023000445
0,125806171280985
0,126848264594633
0,126623847641341
0,128560537155922
0,124760722377728
0,126412951703561
0,123944623307588
0,125118011575648
0,126138911318245
0,123293916181666
0,123037156989807
0,123592453266126
0,118404886337716
0,12190494532459
0,121858293696785
0,121520979342336
0,120382964536776
0,120215106459553
0,117788113640091
0,119788196204357
0,120604946215171
0,122601136034387
0,119108948067168
0,119588238443413
0,11922793084307
0,119727555378188
0,118939136417731
0,119143130017249
0,117505817442807
0,117261110772516
0,120097988576934
0,117706150808328
0,116162014906033
0,119903574408967
0,116922343800013
0,11631309448004
0,115249303342071
0,117542956952502
0,116048036545516
0,116150758166849
0,115674748741629
0,115597614744472
0,116726963454083
0,114801192139744
0,112767707631063
0,114859372484565
0,114804202515916
0,11590340614653
0,112243462556417
0,111877814144471
0,110495831610503
0,110742382832264
0,108999162659937
0,112107264022646
0,109041698939426
0,110071012202957
0,112289322125296
0,110381748627277
0,107505844371728
0,108050216699909
0,106721690438696
0,109130184223231
0,109786567345063
0,108273596665033
0,110439783915827
0,109573940469318
0,109342279497066
0,109121545167947
0,10903690196335
0,109132149161906
0,106462627974533
0,108170573930236
0,106239444627368
0,106683819425672
0,106259842007517
0,10716727963721
0,104716451755996
0,107025988728959
0,103671363492678
0,105321200639043
0,104771227960512
0,107192397554868
0,105359508191219
0,105922192726113
0,102180274950751
0,103155939603594
0,101869854453981
0,104243997039806
0,103255093854059
0,103003409879549
0,100770875779824
0,100882477347485
0,0995302725506673
0,0995651522184095
0,0976781110664436
0,0980467915779943
0,0980358238970819
0,0998359157569529
0,0989762427585219
0,0982824421534937
0,0959369075352601
0,0966189066575827
0,0986327191628916
0,0979906522768364
0,0948367147039659
0,0948704639484216
0,0929592107365586
0,095860002605139
0,0913900828471926
0,0931019506822534
0,0921679307393033
0,0971327754614226
0,0944225571944503
0,0911194422256191
0,0909280430979373
0,0941798236779065
0,08933335760009
0,0897367719489035
0,0879151091147581
0,0918564158121384
0,0908370189954641
0,0880663523076401
0,0892634585442036
0,0894332223902704
0,0890908253517824
0,0915020501226944
0,0858439678157821
0,0894706674927492
0,0849334951997502
0,0849361704029309
0,0856254474785294
0,0877362218828354
0,0863052862841256
0,0879860434233335
0,0857645443892834
0,0886030183248805
0,0850798614509064
0,0845877680942527
0,0850997146440541
0,0854536118320954
0,0848219142034656
0,0847841246567272
0,0816775452866456
0,0843006409105067
0,0806555353644599
0,0826015259180003
0,0804726777852649
0,081218043574559
0,0809396726410565
0,0827017465510478
0,0798806555938455
0,081209520004753
0,0802397622974852
0,0817114129421533
0,0791050450441139
0,0801813993443164
0,0789055827005245
0,0785821564572682
0,0776890613594567
0,0800539907059185
0,0750169278959832
0,0778222473928719
0,076600768546102
0,0791426589358277
0,0769047906901288
0,0771325683367267
0,0730939794033797
0,0756715541136104
0,0731824831961409
0,0777384103468139
0,0771667032572337
0,0772584020106264
0,0748054257015114
0,0750173981978709
0,0744279287706681
0,0768428495262704
0,0728388881689618
0,0743818437677848
0,0712508921149611
0,0746592823945655
0,0722097912036528
0,0742402296215983
0,0714853330661432
0,0728031874466605
0,0696104442648422
0,0702445875606427
0,0722674286575443
0,0738823166609258
0,069963269615797
0,0716750692057762
0,0697245045727952
0,0726240595369471
0,0684030896632951
0,0716959058045232
0,0693383669801376
0,0711287731497456
0,0697543373835422
0,0732978573260255
0,068216177622285
0,0726039148920535
0,0721850710507043
0,0735960806617741
0,073100726107259
0,0775777939355765
0,0723153089345332
0,077493735517869
0,0746806329651959
0,0795553327544854
0,0731412153952217
0,0763783535114962
0,0752171237992809
0,0793572771408989
0,0770861649050503
0,0819969433603396
0,0767979807289814
0,0810876516910089
0,0729283701822162
0,0779017489032268
0,0750680720013166
0,0832530540038231
0,0726524403990383
0,0804558650094644
0,082550511906475
0,0808752928893982
0,0716877217175931
0,0862172973513598
0,075723911863884
0,0823817912795069
0,0756090667998445
0,0801531928521054
0,0712956967981017
0,0772901517425567
0,0704709029319198
0,0813704896137694
0,0693295422331966
0,0753647197847688
0,0644010313089401
0,0752759738866503
0,0630894080247723
0,0770833373457238
0,0705245206731966
0,0770943129528538
0,0665411305454495
0,0777038506724282
0,0699695798384046
0,078073991457157
0,0652004186786117
0,0749487058328927
0,0632383362035465
0,0776720201934335
0,0681138593473793
0,0745769047072554
0,0691336933766454
0,0769478126196316
0,065699179944989
0,0731540935811877
0,0705777310532315
0,0725940228576793
0,0773597866380802
0,0720945965866759
0,07417031811542
0,0654628478079052
0,0832047765652736
0,0633695277902203
0,0829543318476183
0,0555106533562709
0,0910217452547953
0,0530315642032571
0,0893747164227422
0,0489535386132187
0,0863265604461337
0,0468979830751637
0,0853705016969462
0,0531926930936345
0,0806544558960099
0,0593943817909154
0,0765234562815159
0,0675490448919493
0,0704610039269739
0,0686655266504546
0,0631972686807602
0,0698621399715048
0,060543755953831
0,066323968091881
0,0629702103990533
0,0631690339005246
0,0651674881705758
0,0614306053855024
0,0662450461263586
0,0601956593197901
0,0642518201449738
0,060899416001313
0,0625366838230932
0,0594715005837451
0,0618781788529591
0,062125424219771
0,0622880317255271
0,0599705225997602
0,0616669000762635
0,0595139296172438
0,0618793177205214
0,059403266663769
0,0584791126708409
0,0596069532889891
0,0609059960120908
0,0592746374945624
0,0594084733170104
0,05933572009322
0,0599869259077911
0,0607350326860682
0,0611610078386997
0,0595863580493487
0,0629405000152734
0,059913167323625
0,0603072968822329
0,0582010016526743
0,0594461083018183
0,0592254768381929
0,0599729086381644
0,060413738644287
0,0603275568281212
0,0578230321239484
0,0599781932568904
0,0602186699227108
0,0621062919526625
0,0598484384331188
0,0610997585145558
0,0608563877060571
0,0597520688992859
0,0600419882262262
0,0610893338001661
0,0570701574769773
0,0580674549001183
0,0610317484988781
0,0624612409977279
0,0596410314115256
0,0601058591772591
0,0597293215596796
0,0579790150694935
0,0599884395293444
0,0586865467049104
0,0588821970419508
0,0599293263996636
0,0596756991026164
0,0600952465242397
0,0615339790776011
0,0614151664822116
0,0630305862097491
0,0589845783507436
0,0599486527685679
0,0583158920363456
0,0596909460029224
0,0601318665639708
0,0586529953764746
0,0596444874987352
0,0595330228135903
0,0602096413406693
0,0616391314742621
0,0611191623058948
0,0597139520507426
0,0591967374680528
0,0599783323774489
0,060254120296019
0,0605394639661353
0,0597570199853186
0,0594331821120167
0,0601281455150966
0,060559208445962
0,060140884863554
0,0609610000090582
0,0588470979800295
0,0608592168602345
0,0613447232470915
0,062002576089648
0,0620057772168092
0,0620296992288914
0,059448773364222
0,0627446666842874
0,0621111797416381
0,0616889008000721
0,0583054554573619
0,0620886544143946
0,0629018146113982
0,0619802631955662
0,059175709206842
0,0628279744872557
0,0638793612723425
0,0630738796996613
0,0610551310857671
0,0638720628029918
0,0637687266993468
0,0605969862375531
0,06037732560907
0,0640292383221847
0,0609613321523375
0,0623592904254536
0,0622622755081559
0,0619359357370578
0,063889357555691
0,0643296153823046
0,0613284053659969
0,0650982421358979
0,0637331690828273
0,0636329556728191
0,0616689759603785
0,0647112845897675
0,0641955939170731
0,063318315530836
0,061828280063617
0,0606363052323637
0,0610921728264849
0,0636056150325319
0,0629624012557436
0,0637557527361643
0,0615933808010636
0,0632104117519146
0,0633874813090879
0,0669300416054195
0,0644747845286574
0,0634497555338536
0,0650187643892183
0,0638365796189428
0,0620769588734651
0,0644314580980886
0,0638425063826511
0,0647537629955798
0,0647315637895542
0,0652756661562536
0,0655534484369051
0,065394791804869
0,0649006190371888
0,0666768420149453
0,0654608952581881
0,0649321297627486
0,0647400735162621
0,0669580333948722
0,0640183071805221
0,064859785192682
0,0626912566236858
0,0661845773309563
0,0658692961432218
0,067627040571193
0,0639593357669549
0,0664035944526294
0,0670016806997529
0,0677407979201426
0,0662000352951451
0,0666783346790988
0,065045161533939
0,0662316682303199
0,0650497078322285
0,0678165338028036
0,0659248782769763
0,0646086481494652
0,0666947284277407
0,0680377772368972
0,066345430537762
0,0642227060900388
0,0633043065781123
0,0664681902688014
0,0625854741482208
0,0647420542455418
0,0645565558810836
0,0660054202197201
0,0644450556749139
0,0642303246426195
0,0634979677445969
0,064700344821039
0,0625209274030341
0,0635367483353646
0,0644660905614593
0,0659602738507797
0,0618996254686538
0,0629270207520125
0,0609792865878867
0,0641246468190519
0,0627295739328816
0,0629138364208391
0,0634416481345845
0,0639384689867537
0,062501015509278
0,0630218797754529
0,0624337844324171
0,063298832164186
0,0610516939504632
0,0632265829373428
0,0611217375365
0,0635526153672306
0,0616661839660431
0,0628055033638535
0,0612053271414374
0,0614015636285913
0,0590410763831364
0,0625721255855141
0,0627291644802224
0,0631289699911871
0,0613379645135956
0,0637056632121918
0,0605364089535335
0,0617255319182992
0,0619801790110605
0,0613470554106773
0,0609723945110909
0,0619303995780382
0,0591904360646687
0,0606782682730638
0,0581345973218789
0,0608253135380851
0,0580080023874263
0,0605705322930641
0,0596776386767573
0,059993049269609
0,0597606369110156
0,062355681476959
0,0608120561476055
0,060059864672839
0,0569860542897101
0,059785473402974
0,0572222332533704
0,0578948624420929
0,0591669886762032
0,0625920710203305
0,0571540762878757
0,0620163985764227
0,0619802995029385
0,0607837972635847
0,0589931464487931
0,0617962920222166
0,0581849398494711
0,0595363563565781
0,0587716970320532
0,0613861718331947
0,0585176226672296
0,0615964757658939
0,0574846250421067
0,0602625761080747
0,0587672237298308
0,0596141123916519
0,0590189218736911
0,060484504814554
0,0594229150005174
0,0612217344437811
0,0566389092970178
0,0579875239272822
0,0584716542428938
0,0595134708156543
0,0576836318821137
0,0606736076399454
0,0564444566203696
0,0556002511001582
0,0564220226804457
0,0593762000705301
0,0590832381842217
0,0579802905660906
0,0576344648085048
0,0597355987418092
0,0568642536480095
0,0580098941420541
0,057250092682983
0,057672568880896
0,0554271451535209
0,0569661251310596
0,0553235603101743
0,0593258432625252
0,0533410124844257
0,0580251968120393
0,0585634649266219
0,0577756617622479
0,0549312984169737
0,0579135198452808
0,055842842257794
0,0574445838813773
0,0558895129775962
0,057390675824615
0,0565952094813895
0,0561718097281692
0,0526489889806776
0,056107787635808
0,0527780301510437
0,0541920454364705
0,0541282230255545
0,0559232423382057
0,052582504922507
0,0542756902443589
0,0549569402050164
0,0550009550882499
0,0511282811933221
0,0515813038241302
0,0511686759502579
0,0535245902518005
0,0529433321377277
0,0555192247455195
0,0571722403939494
0,0564333021935163
0,0548506815780863
0,0543141364302618
0,0509371341815075
0,0530832208260873
0,0509212683783435
0,0521046836471021
0,0501072986420279
0,0545791980913524
0,0489038124918322
0,0490694598854384
0,0480124482288769
0,0501183965301646
0,0503057857012221
0,0485132842020857
0,0498296970753484
0,0513281736676082
0,0482990680024551
0,0501035940391977
0,046273676883125
0,0486628272530135
0,0489878361518311
0,0483856100114238
0,0476618615926422
0,048658006145466
0,0505477696990156
0,0586493658569245
0,0496152331194215
0,0488265523131288
0,0502812706867214
0,0510356364590123
0,045070079752482
0,0474102402044499
0,0472683319188702
0,0491328052002514
0,0454380909847348
0,0502873631382969
0,0503524343909092
0,0498584917765422
0,0468446259759015
0,0493815152436472
0,0463322631014538
0,0491762680497225
0,0479437917054958
0,0468735716753721
0,0431603842054366
0,0485953595310874
0,0463505690622182
0,0464935030602311
0,0471612101484601
0,0467474685165286
0,0469174980576796
0,0552649332925918
0,0488155946594558
0,0491218022136158
0,0450475650121363
0,0454989483946563
0,0440161028578679
0,0460072707993029
0,0463336217404775
0,0458994764207859
0,043913790479704
0,0481971833229733
0,0462490917010362
0,0457344707139689
0,0449421843403298
0,0464983915169677
0,042276525771615
0,0460796734979356
0,0418501967478402
0,0454660834170476
0,0408176954057379
0,044441735834914
0,0429206034413552
0,0453431552754609
0,0443028232269747
0,0499757039548797
0,0423759189728542
0,0497539463409704
0,0583538702118725
0,0483502612656205
0,0430281064530754
0,0453750822989284
0,0430497012023605
0,0458435248387922
0,0422331872990906
0,0454064866629124
0,0432297841721814
0,0430072743162344
0,0432712186244807
0,0452142830044098
0,0405267523227791
0,0448045433380109
0,0429554516997271
0,0435016117176824
0,0426998951618229
0,0442069673747276
0,044728794398279
0,0439240012653056
0,0484021631402865
0,0576464508461926
0,049214030611474
0,0471980834244537
0,0435201575424032
0,041433945051735
0,0568752196987613
0,052408746464879
0,0422917239911612
0,0441491832004812
0,0438459735821875
0,0441866350624813
0,042064079708521
0,0422071961202874
0,0463661278567157
0,0487202251798387
0,0433692123383662
0,0467723577925477
0,0410824513738159
0,0461720977448113
0,0410025629531638
0,0432501531266905
0,0418120390421068
0,0457644771840948
0,0418149830613368
0,0421033639364749
0,0409395711423504
0,0436578722505151
0,0417593926679079
0,0410453863532851
0,0448040292952121
0,0488592362568323
0,0436654491758944
0,0453861693479764
0,0413931581254882
0,0409172615415988
0,0455279291964284
0,0584606505665913
0,0444017539165893
0,0464437454069761
0,0402085490632215
0,0460753097568246
0,0424888273616833
0,0432689715079772
0,0409219940024994
0,0434493832269067
0,0399813293041668
0,046206019968837
0,041568063880007
0,043364723664379
0,0427313678024975
0,042653876742399
0,0400804860977022
0,0447794941386483
0,0419192279207353
0,042569029365111
0,0418304801416475
0,043308466263477
0,0507168647812475
0,0651070759820984
0,0543478670758768
0,0527918760905256
0,0488875660003634
0,0424878665310071
0,0410613876080593
0,0425947798609583
0,0405220966285462
0,0459550260827134
0,0413869379906368
0,043625692126711
0,0419819007626145
0,0460098770481278
0,0420250959537201
0,0449343419021967
0,0386933769677381
0,0452955734046268
0,0397874793070394
0,0460547750452283
0,0400048430096574
0,0459121460419437
0,0367389779519753
0,0535530441063562
0,0472458226051942
0,0517443447799669
0,0375256751661386
0,0733545241117075
0,064004326712567
0,0520645613436056
0,0476666601716049
0,0442605958964664
0,0458566559464026
0,0432730922005112
0,0420559235405868
0,0484846231430313
0,0443828101943175
0,0453296800564036
0,0427883970954474
0,0472220833721325
0,046925222229355
0,0413964533425372
0,0481456321549767
0,0764359914198886
0,0530375079655584
0,0487567603675558
0,0418018785805122
0,0540015340262679
0,0663429367403763
0,0473962144738402
0,0477675534532198
0,0486569779997131
0,0439611820218847
0,0468494469401582
0,0440402250607167
0,045713479898246
0,049040137030183
0,0504887573826018
0,044941959025964
0,0500175528144107
0,0422595589076937
0,0515464974082009
0,045538699106976
0,0570871658011041
0,0583136544463331
0,045377872990677
0,051660955337326
0,0501215564381205
0,0456339529377055
0,0502664901559519
0,0472670519755747
0,0443272578185676
0,0563481959694591
0,0611758900513121
0,0481058886784139
0,0648214912762827
0,0577424579489802
0,0476751711465595
0,0532715320579271
0,056542208223911
0,0558371968400889
0,0435232837484123
0,0607582398341868
0,077594185599873
0,0636496784759227
0,0706912752208242
0,0506509832535824
0,0581490815988307
0,0485668028818807
0,053574690270705
0,045264373202059
0,071913194254497
0,0473836337631012
0,058985085744002
0,0427390383602285
0,0691696829957248
0,0594497261842831
0,0579161408645337
0,0543075869482351
0,0502651721029385
0,0499486059403859
0,0708015818335988
0,0539609931242603
0,0532066185883703
0,0728994434337856
0,0877294551818603
0,0804352869891277
0,060116563074596
0,0488047390443577
0,0934903327230819
0,0602954599451593
0,0624914138170177
0,0514232316422285
0,062184640375126
0,0517192547282389
0,0613757338128574
0,0829897025411025
0,0683951521088829
0,0568263220375285
0,0679133907516514
0,0507907404693955
0,0805406604590448
0,0655839941173504
0,0644838707616247
0,0559570060369867
0,0682962393224635
0,0521923393048219
0,114647770420214
0,0735817398621206
0,0832410912294744
0,0872920919877093
0,0840553063707553
0,0783998834267909
0,0733133255453909
0,0644122273131702
0,0819473916574592
0,0883441143035841
0,077119684214795
0,0613243048745567
0,0924847933060477
0,0959248280702918
0,0720821290871792
0,0825305488690758
0,0749015227280648
0,0728883477418181
0,119337582966965
0,124189758303805
0,112565790799687
0,0824695345200662
0,0820002141829277
0,107409151556774
0,0862454029410074
0,0812228404516366
0,0821844161170025
0,085554735784752
0,088215566407298
0,0815582518630008
0,0986228788825735
0,0877618185072003
0,0953618693993147
0,0896270774060043
0,0925407130660687
0,107528184513393
0,144583682853314
0,137835324247361
0,100050419660986
0,146700111260625
0,126148153292559
0,110547806391852
0,101902714603508
0,094895021006616
0,114527507825253
0,108660920172572
0,106688549710618
0,101814948546153
0,14019355562672
0,124578811634036
0,127848682153991
0,134824884492416
0,117158210640587
0,12786105910946
0,108330336460859
0,294230677330117
0,148696329735203
0,150734895080904
0,140304914778769
0,156338951397521
0,218064639537339
0,159018368960083
0,156847831020028
0,157407462611007
0,150680647633747
0,165875903948362
0,177006377980509
0,176894448531889
0,192222384839406
0,184927946211612
0,182322600333205
0,207257585806632
0,289729912165842
0,257854217720789
0,230481022809734
0,206900561117691
0,236194640058096
0,241479350412535
0,227298504227329
0,239153975357397
0,238270050588328
0,243858451548109
0,313341810047325
0,256694701961399
0,272183416702759
0,266820973009259
0,322367405129193
0,258011362212784
0,354652158215568
0,316361505302559
0,314186420026348
0,294553635727723
0,312241623054056
0,314348773695503
0,306203878836218
0,365122762083775
0,351430796932246
0,333909080888915
0,345664352693059
0,337997406560483
0,351143819847347
0,34400106170704
0,362317173344632
0,347862745386902
0,421051641066963
0,386627254976337
0,63191916360169
0,398138566093581
0,373323601918457
0,365668039093033
0,372651190001986
0,414859402243924
0,398023471584282
0,426858820533767
0,408610484950379
0,370066416824255
0,385267179500841
0,371338108484521
0,388421315282626
0,369922762939794
0,398206130760177
0,357431478586917
0,413875829181527
0,374000960395389
0,436816495045805
0,455904728601294
0,389504771303
0,368251159940033
0,375823201203471
0,362847918829503
0,371465442792742
0,358711801659446
0,378947474215945
0,405398125537156
0,359536524119202
0,368087662446567
0,347152344845449
0,391327990235466
0,389045800196092
0,343216423664906
0,367302550494405
0,332609951090198
0,353383827129366
0,323102854260695
0,361280026408703
0,400370172797906
0,338096982251155
0,334038865944943
0,328327180674606
0,32192845748746
0,329201024356783
0,319798926032046
0,327401350561865
0,325114692768816
0,321438127184851
0,328002731006331
0,314534084991334
0,326299604883388
0,309575166928673
0,32113884147087
0,313368819307802
0,31264084445536
0,317732332294138
0,301005423579993
0,313173951678808
0,311124109802477
0,306248632162456
0,305439087921849
0,315214494369282
0,312237797526518
0,304912433774321
0,30589558263354
0,308475082384796
0,303311015186511
0,30970942878171
0,302783566433634
0,303661390939954
0,29956712627285
0,307608290262775
0,298169402583181
0,305826155380641
0,298747190552678
0,301384086175699
0,296612171265146
0,306408398127104
0,285973198154406
0,30626207264562
0,27798162304177
0,378774139838716
0,320794010995991
0,289787401536373
0,290090185766154
0,278877768948843
0,288207850585286
0,271165276531545
0,33966648219402
0,305712287662491
0,27474155788128
0,272645082367397
0,261846861460044
0,285058994079356
0,274690336364206
0,258686194058706
0,272294487010077
0,241561482390996
0,313779001730488
0,330967155500313
0,320238173264438
0,353848674521786
0,27134059278078
0,248918918020852
0,253969463592118
0,300504949284998
0,233368812266944
0,255831775088408
0,225972604303433
0,307830694846157
0,25540705005984
0,23745968328967
0,241834843794794
0,228110316380407
0,266405751585177
0,271345674916967
0,232203108205792
0,25380399833459
0,278908159625832
0,245445020735268
0,286234923362383
0,295842863405113
0,254863739250659
0,216212442829926
0,226984343445334
0,218257523363244
0,207980292865466
0,294311030876544
0,214387728737376
0,236034178013254
0,204545406131683
0,206038664754936
0,208604576007972
0,22500382278675
0,217584378871732
0,200597899813867
0,266042322251544
0,179689802496205
0,226731022957954
0,213909377892615
0,249673945853791
0,254439059132564
0,209575254050365
0,187280084977522
0,226579066861619
0,244181026584773
0,193657475629957
0,218845727051064
0,177627286462645
0,183559317723922
0,215137964283051
0,178616337970247
0,207924024567267
0,209005863279567
0,199558755072614
0,264857999891307
0,247999741358765
0,251629614686295
0,195935994062905
0,175051298738275
0,181883674039463
0,177745197817183
0,191565338038827
0,168225441660746
0,221887106496062
0,194155948020005
0,169886486755442
0,254786528914644
0,189033786468893
0,189942594703938
0,190886286689747
0,184479182887368
0,193243342165113
0,223540042817439
0,242524799728906
0,215201986398028
0,216922430092067
0,237700933971007
0,201559297855314
0,219127488476838
0,203894297239977
0,223165410869946
0,216852013705556
0,243812093430381
0,225216608393827
0,235676858154101
0,240346431977587
0,244973281237234
0,2610924941788
0,298382824088409
0,237519211120795
0,319731561843787
0,269451983727892
0,356028614711261
0,290920450755911
0,286365375975622
0,291508334289946
0,294204563865021
0,302778666845633
0,3023054420461
0,312652479233375
0,364185059504306
0,300619637035167
0,330450467716745
0,308263790382357
0,338875995235099
0,317367345885819
0,389883186114276
0,343618641605188
0,421634592010792
0,401703546895213
0,364314505858011
0,358050341934768
0,341678122479716
0,367350155747145
0,362229642507519
0,352209467223075
0,355367051141332
0,345047841000498
0,3990463729256
0,362660722093489
0,370573748042641
0,367222428773505
0,368067208570553
0,364695622925428
0,373609065909736
0,375561643759102
0,378086471553845
0,378627718217831
0,393625604327732
0,362234702526503
0,488575079577584
0,400026822356917
0,39987685670833
0,395555476052942
0,408807870580543
0,408309853790369
0,409306280182173
0,423979744363285
0,422355058426251
0,407072431288777
0,426697238651563
0,415260940722547
0,434861691904405
0,425659175048769
0,471017138695992
0,419482443968771
0,454867984285992
0,420561336574267
0,469287697062679
0,501947799829427
0,455215550900955
0,477244027420356
0,448688045956601
0,456678582024996
0,448976521069418
0,455911636802422
0,456820326363202
0,460523848308211
0,453812935477432
0,455679827200117
0,455357347751027
0,45010015770116
0,460968103959347
0,442146445061787
0,48948151447192
0,452595298080724
0,455600114089009
0,450751724937548
0,458556278072824
0,435680652401757
0,475996475402722
0,464173668129474
0,45425681908028
0,455717099719741
0,459428483870202
0,477381502801218
0,473536469017557
0,444737393244221
0,457616827765184
0,449816095468482
0,455927359173552
0,449583447964885
0,464234300868818
0,499385720244348
0,465156790450966
0,463018104190429
0,463709624872272
0,463075799799404
0,46178288869568
0,469217583819048
0,465809935839249
0,478304336643803
0,46632865915299
0,473450627699999
0,476253509629583
0,478677593038908
0,49671493122553
0,492938174848865
0,497095372007969
0,471213800248811
0,474844461574723
0,469887877943728
0,468420606883592
0,471974572685257
0,470609601753617
0,458838909818754
0,453715389491425
0,456012600784525
0,435155825635808
0,488172069831476
0,439926557674427
0,450889682601381
0,436387577873608
0,426315336826965
0,43532156555424
0,428854633325627
0,422276307392852
0,414916722430453
0,4226601890312
0,413493750198673
0,417626247355947
0,41071225282774
0,406536283280351
0,409489944479967
0,41760746815982
0,403259752334647
0,408600206067389
0,404750443617282
0,401798766795159
0,405320327846648
0,397312093675728
0,399864002885914
0,397930040418892
0,417725617662893
0,420336407991624
0,415901594746033
0,403607345105272
0,396862522546344
0,412548949694689
0,394452931548739
0,405574432388696
0,392918454968903
0,397775013320336
0,394734606958057
0,403318451032551
0,392601300448465
0,402968983959665
0,395157620814546
0,397270467607989
0,391228872231014
0,40088415783901
0,390631993874056
0,397586837084205
0,391516522685456
0,400373107076024
0,388029586473849
0,406879376596645
0,393436824778992
0,397319791172721
0,397013393921278
0,395533408259302
0,39570833665713
0,39894777815772
0,399440956107315
0,393924161419093
0,389651816236008
0,395660102692122
0,386646861700954
0,392166431041279
0,390343424715957
0,387981917354027
0,386449403763606
0,384784187058899
0,38225073294892
0,385125264590844
0,378164037109695
0,381059850100205
0,373970387957576
0,372565250489659
0,369008213440206
0,369117987979984
0,360624121684413
0,357982627827359
0,356091550317705
0,353826546876745
0,350647212241286
0,349866829204221
0,350510749555089
0,345317878214152
0,342597528476318
0,343595982762471
0,338038949647706
0,337633347028833
0,33871821218998
0,34121418577916
0,336747408471301
0,336314135444961
0,336823681688128
0,337898468993759
0,335070909587927
0,337565185816236
0,334451194084506
0,337695775469526
0,338588250540792
0,339589418995606
0,339874348806243
0,340407075211209
0,345070615701928
0,345436007363873
0,350593204175286
0,347406121479362
0,350405801551977
0,348374088508325
0,354620215384048
0,353601727075365
0,355995268607851
0,354087241799698
0,357189596789728
0,358892410735419
0,357984554038106
0,361495435785785
0,360643868564592
0,361238083659331
0,35789341371972
0,362569110895872
0,358215182420127
0,362506292554377
0,359123373229335
0,354968565542937
0,355968484864348
0,354163657187589
0,354692114876992
0,352882212574885
0,35002189522795
0,352696260493239
0,34839379135186
0,349702096444532
0,348081986039627
0,34751121649685
0,341126617332457
0,341919797107647
0,338705920621213
0,340528780691512
0,337213230647575
0,338223579509364
0,334586227025165
0,335787390567856
0,33265442656061
0,333542521238447
0,331652112004995
0,33421485455353
0,333493116854925
0,332586475908348
0,324959615099673
0,326103235078187
0,327998140519255
0,329108662293706
0,327014466351732
0,3252676830804
0,32193508413548
0,321937266014647
0,318876092882368
0,318676941678118
0,316922604360798
0,317145433728913
0,316190304222047
0,313285550982329
0,307925445388235
0,309252676932528
0,306858331504607
0,303259911288201
0,303206464624713
0,298337773369134
0,29602228819492
0,296371130279364
0,29548906134324
0,293858745008984
0,288494424781933
0,289978545689195
0,288235539298077
0,288636963691151
0,28838159609838
0,289266671166709
0,288084481501802
0,285755851922622
0,285154663677608
0,285514282164321
0,282089748069764
0,282327396439259
0,278469437762584
0,273992985311989
0,271332792311623
0,270447712394953
0,263642618504896
0,261386511159713
0,259712148838244
0,258130781495398
0,25333655199427
0,255939880246612
0,253421470805144
0,255016919426275
0,256931821491071
0,261968448952731
0,266944565880328
0,271743517313275
0,277168506766229
0,287738366771056
0,296622510445986
0,308578207122356
0,318955083194279
0,332921930955817
0,344291209723506
0,360887170517177
0,373144441896525
0,385838404080578
0,401971679189909
0,412299382487164
0,427366176809674
0,442479957371433
0,454153028058833
0,467118738986582
0,481149027018581
0,495075247964706
0,506025601885221
0,51919051724603
0,527824602899315
0,537106556531609
0,550578719136538
0,55970673810753
0,570085200367854
0,578362223547912
0,579288380686758
0,588590911515548
0,594826113062603
0,602099462382452
0,604522605718364
0,607601225203553
0,612644500883133
0,614557129838716
0,615094560320357
0,612436412261666
0,618004634123031
0,612902928985817
0,618193313861969
0,621343504549396
0,619481960374991
0,619637922991727
0,621360583239103
0,622159940005507
0,626581592663851
0,630678086194469
0,634678677051853
0,63252119007302
0,637524783111831
0,646496069646094
0,655337632358496
0,656671349425736
0,662098711714816
0,662790418137813
0,670803799961631
0,679884177529394
0,689074906969294
0,700334591092172
0,704457628954339
0,717834286015578
0,722970958233952
0,73195196502268
0,751043834390356
0,757841705874944
0,766190386982273
0,775553523548953
0,780204452141459
0,793192155329619
0,79075737499224
0,794576860916525
0,795217183532865
0,792200084335916
0,800560299659375
0,795699275445689
0,795476602597143
0,787166749305646
0,784669636221511
0,782786255756052
0,781776270267786
0,786333430052708
0,784467743319991
0,79296091273545
0,79591044626988
0,80496547555519
0,803316306280298
0,816889402622408
0,845403715140184
0,850098384343779
0,861133759333584
0,877977477480389
0,898074723236402
0,917164471905423
0,915712905686564
0,924512388030496
0,948496266151036
0,97026647315779
0,975569161849228
0,989086087108219
1,00520630880376
1,02125491777803
1,02698714564178
1,05269729005777
1,06126737920826
1,08927948433687
1,10190406478137
1,13217354740998
1,15782632917739
1,16666257885125
1,17131725896147
1,19527807506748
1,23546359964735
1,23056045484477
1,23907720567451
1,25442342586992
1,29812375302895
1,30678207190937
1,31768705496249
1,30824664312328
1,36554450087594
1,36195257232445
1,36510975822159
1,3504555357152
1,33783135020365
1,35990711251118
1,34681240609885
1,31291795750572
1,34598127124703
1,34650246149332
1,29484954385417
1,30887985814473
1,29437997424849
1,30080781486075
1,33164310284651
1,29825129766143
1,30062944219379
1,33753822482345
1,34960474325999
1,36157188928749
1,36580429148377
1,36908469969722
1,3771077272439
1,37704065482227
1,43597564505389
1,40548270514021
1,39102849813068
1,40765592147303
1,45320605476277
1,43944647028225
1,46513513807689
1,51588583536596
1,47467519438459
1,46083902678629
1,51464604862192
1,49881916267773
1,53894560517111
1,52027298738763
1,51478664818082
1,56518493948981
1,52514696189577
1,4979428159705
1,55032493109925
1,54406741458537
1,53981553280577
1,55604771156486
1,56268104811653
1,5032050173584
1,53260743706611
1,53683082318179
1,52387114409344
1,52848372022597
1,49268713359925
1,48396854819162
1,47139722710298
1,4642972676661
1,47744081864686
1,47818919488399
1,42428061716868
1,35998578719348
1,39495739392056
1,35999257343858
1,31955328737559
1,25402395008999
1,21109751194028
1,16760127186328
1,12218361598798
1,07556261515014
1,03412260260787
0,985250082855694
0,954363803133859
0,919392325184082
0,913434627204672
0,88306097494012
0,858092571267087
0,84639018175099
0,835602724833991
0,835556196843961
0,837969745230659
0,826020161880074
0,819066049897483
0,818193805673359
0,806959881381498
0,795180758078841
0,782935123629868
0,768170980277562
0,757094704060411
0,745257148973036
0,73496466896087
0,71349440067191
0,701745714079421
0,681122216253936
0,660399474251642
0,632678387047677
0,6191130856208
0,59495898716381
0,58184398661664
0,559193594619509
0,535340870469898
0,50704662818735
0,489932711664845
0,458386955124526
0,438836066429686
0,41885637579914
0,401319235065659
0,388597156920379
0,370995843984561
0,347015543603882
0,331230871807181
0,320332335462925
0,310656114076891
0,300826847023423
0,28882612701652
0,279677171057933
0,272264230837649
0,2644992404093
0,263263321049048
0,258928627086458
0,256278759807314
0,252192913126856
0,244941629469123
0,24939030772606
0,243869991444947
0,242537336175318
0,246219668873969
0,249133549715384
0,248828788803278
0,248322020862958
0,252680476869872
0,252602615149016
0,257508373659786
0,256821748003627
0,25768962138983
0,257211227716588
0,256798519641832
0,25719054373264
0,255494164712261
0,256550953582441
0,253893765229308
0,252834982699471
0,252774773650728
0,247112404847426
0,243216786265651
0,241805891124196
0,245720732598262
0,245322387732876
0,239943333624441
0,239306346075019
0,244822329508698
0,240737365003389
0,2450799799303
0,245580241637971
0,244672825707655
0,253436952064128
0,256294450559931
0,25485035950506
0,259469287500588
0,262016703815161
0,263126951989084
0,260861580661856
0,269272838649239
0,272458735143722
0,273071850385255
0,270448013203434
0,272223610499789
0,278124024035679
0,279299069837335
0,275922057488317
0,27866122760726
0,27531614857133
0,277602715042185
0,283088800717458
0,282886573402632
0,283400722996737
0,28418527902856
0,286943479551286
0,295491488790566
0,299515283655917
0,302485040992741
0,30839887352795
0,32077898321431
0,323036658906907
0,337640426962044
0,343144091995323
0,353099356512341
0,354809077101816
0,369410333575287
0,376613039294446
0,388090321127965
0,386585909753006
0,391956594361191
0,387619418473649
0,396080814985284
0,390923743104693
0,387792207380175
0,377851620179106
0,370798061498244
0,358209935613307
0,352426427133692
0,344946668905938
0,349219696189915
0,346211253805616
0,342500378506828
0,341544285480296
0,338833735027443
0,339815614799008
0,34781028252704
0,34489438902822
0,342561010284433
0,338269463906232
0,34486424223044
0,343984053708945
0,336727928120311
0,331661633829162
0,331925460590807
0,3261005459323
0,322280376628727
0,3188443137082
0,32073085788628
0,318096507959207
0,31118370242685
0,310931519054276
0,31050170471497
0,299914865493936
0,302455755180535
0,301762626696826
0,296667675847984
0,294725107193753
0,29267745333664
0,289192660226976
0,295382026435483
0,296535656026464
0,289793295153557
0,288648619423302
0,280732066857047
0,275505254403
0,28495511830993
0,272021702085042
0,278225546074306
0,283773989459151
0,285260618838984
0,278366100485374
0,27409654661644
0,267875492137904
0,270342436566915
0,26805446416823
0,271820805856341
0,272524299403814
0,268888389487602
0,265319363701186
0,270213595632859
0,256189668376281
0,261799639501189
0,262334509056523
0,261462911077706
0,258590028725682
0,265252121798845
0,266664281479253
0,260699652145637
0,256936651870389
0,261914823912124
0,253947108864805
0,264443811429587
0,265284957481701
0,258761806323329
0,26266563063429
0,274343167913483
0,258091337805104
0,261762723108914
0,270385328377476
0,27420476171352
0,267225914342449
0,279610586279109
0,270634204793298
0,280431856795667
0,281345741037421
0,274101782017449
0,276267590998273
0,29749680088507
0,292820174089371
0,285859035013134
0,298735111783514
0,30565114927285
0,304557035303099
0,308443224622855
0,322818145339281
0,327247747316772
0,317917808837854
0,333165401341318
0,332515145710297
0,344256848717699
0,335393408121245
0,360510784881188
0,365908405255101
0,380058266997861
0,386314845972075
0,392304874914351
0,392148225644645
0,421299981559981
0,431328240138724
0,43753530561486
0,44505909407647
0,442918322000914
0,453436141704506
0,478257442702169
0,464750208520908
0,476640992151319
0,492818194758569
0,488466893924785
0,490711263754011
0,502934269711903
0,464807622222516
0,488229210697354
0,498632920986905
0,490298646330153
0,481228835699389
0,480036071259728
0,473241919724418
0,461126187903791
0,445955608410203
0,468474537674558
0,468884612702461
0,469337416455845
0,457977035286947
0,462743584562916
0,446560309463978
0,458940648268877
0,432969235510051
0,459661867887354
0,449268232243519
0,443285511234521
0,423072445584202
0,422308492351681
0,436067619156709
0,444218690972099
0,412055142776599
0,415672234021749
0,412307967407246
0,428320088724092
0,401603105504626
0,418112092391071
0,412579981200369
0,413503714129122
0,385771929774665
0,40463381085777
0,423272421559402
0,402054311199839
0,402371236424535
0,395116161929225
0,38969861377163
0,420789347400448
0,424812184000216
0,420062738283021
0,425619988551091
0,434411859970233
0,42291017385026
0,434038386216452
0,397237478090163
0,404944343253582
0,418951944303659
0,418665486893932
0,44408304997043
0,46408841001898
0,43384488043187
0,472416751104001
0,492280061595738
0,437815589822004
0,427912225829903
0,487440494712825
0,466153304997222
0,473178145197648
0,464290641043733
0,478349315376095
0,466594858272215
0,465826665020088
0,453083689931349
0,465376240782072
0,48111267316685
0,479907338740871
0,489768545409938
0,478167138393172
0,489199100992842
0,508529146803117
0,53395048152976
0,535279867061927
0,493287594612133
0,569571975918053
0,567997638796606
0,542661902948452
0,549100151087817
0,597745933254945
0,690299342333401
0,622117978598712
0,59280657098819
0,586888027455084
0,644777009399812
0,589493965496805
0,642832265129384
0,65277316033632
0,570375852404204
0,650127379418739
0,528013196388578
0,504789891020678
0,567627063034796
0,481706817967319
0,54026087442314
0,552207886905824
0,537367492692316
0,623171896467831
0,540197370205081
0,50317855610159
0,521713909692195
0,499061600923402
0,549121170245872
0,629868717237004
0,603769396365219
0,458936082958256
0,427321812153413
0,649829150535808
0,626924846129574
0,566419619497816
0,522905082283203
0,445526011150841
0,588273927156724
0,470263961194089
0,664798677979635
0,785634001198143
0,526745481449759
0,628900446636747
0,608411481158673
0,501888494907838
0,479197932108938
0,511923917420239
0,447290345259483
0,608174807226227
0,583271484277299
0,523973277979416
0,529640414157021
0,526169466170542
0,559768565430359
0,819844888527935
0,863741619105519
0,51121670050563
0,360984344303864
0,513289475913059
0,584786437898899
0,56150623200211
0,572215027076599
0,470457261229778
1,05762615585436
5
0,662737157537569
