3596
4000,36533379555
650,420452594757
1
2
2
0,0822406885794653
0,0823004726347126
0,0802197394160873
0,0797303834791113
0,0850126328914694
0,0833782777259872
0,0728175919760262
0,080124109968788
0,0783329052165585
0,0831172310088697
0,0815378124977398
0,086719180910343
0,0777186251186575
0,0808909850672135
0,0748568749818638
0,0873071569695895
0,0748273807868194
0,0775427188091721
0,079794936000276
0,0788940052242708
0,0784498715432027
0,0856719017784966
0,0697577626539139
0,0770803230984163
0,0715975567324807
0,0834738243046243
0,0813498909615413
0,0794985823673521
0,0779738508867412
0,0864453841859742
0,076934896546394
0,0792544263223591
0,0803903924400599
0,0851556910820002
0,0738408518429674
0,0720632681168351
0,0728158371059168
0,083933497440129
0,0791970640923663
0,0755932484688451
0,0826911560369634
0,0770413900309424
0,070372868588876
0,0763133848658561
0,0801726813211673
0,0855633136610838
0,0802151850683845
0,0776361267621263
0,0761173247847458
0,0851060404781963
0,081099458212915
0,0722464499588289
0,0856057886176985
0,0917293874686058
0,0840598876384346
0,0960820570671676
0,0825874800215853
0,0776916574227974
0,0805716430089269
0,077141911544322
0,0924682853086497
0,0890573815086949
0,0702048705799402
0,0834034410306628
0,0727919622452342
0,083549922769257
0,0722640205458262
0,074356929940892
0,0676265473171658
0,0816394559307065
0,0689123809461929
0,0939314928520881
0,0970267378772454
0,0855475422532396
0,0856894682528298
0,0826984238298172
0,0786772142850057
0,0681764344184729
0,0657307674971176
0,0854720604987386
0,0847561407144946
0,0877855430852339
0,0779276942101277
0,0710346760818816
0,0846820162326617
0,094296529083672
0,0710482388290574
0,0823207379740013
0,0886684377263773
0,0854658685222835
0,0806281056849285
0,0748858363241254
0,0675259460500147
0,0748291609757239
0,0744600010930893
0,0739450251683853
0,0680475208797383
0,0762228074758357
0,0710646502185002
0,0824705339428871
0,080955917784832
0,084753507524051
0,111157352725751
0,0785525383271396
0,12627690854551
0,0865353061589366
0,0664871123703905
0,108184572334107
0,0868520675995946
0,0785225452664545
0,0696999496574112
0,0774441079474446
0,0708607861272012
0,0826186282306108
0,0645014302725966
0,0963432085451271
0,109011768895797
0,0787509295500166
0,0698999806041042
0,0755278645501248
0,0618706341769935
0,106375205781147
0,113408848241393
0,0797260260608178
0,0887299255182089
0,0761367068107743
0,064287498999797
0,109558133647381
0,104423023330123
0,0815216235628766
0,0787755284781623
0,0687864173911811
0,0657401576604923
0,0676284097029736
0,110599645071288
0,0884316748624469
0,0742909118770792
0,0635557798056537
0,0971118705220804
0,13137732047518
0,0892501965480765
0,0818345311128879
0,0580282097303147
0,0732336660535723
0,118294010789998
0,0862556842104912
0,0735455756929655
0,108284914993817
0,0971771340113586
0,0721151024392081
0,0731752519800596
0,0714174346954218
0,0883065728371361
0,0855079338480006
0,0484387496965654
0,108701903173355
0,121773607021825
0,0924952427882578
0,13508091487006
0,0830792027984005
0,0797721936843426
0,0768981379473334
0,072873846969697
0,0672582691310877
0,0682179812186169
0,0674262418070764
0,0821950459049526
0,114626489638586
0,0738435591731751
0,0772628416261176
0,105235048706276
0,0853572636463308
0,0638572993361907
0,131515252461697
0,0911010371773914
0,0748379462349668
0,111732942566234
0,0872819488818536
0,0652762359902177
0,0795865763901057
0,0954577901150948
0,0739560987855828
0,0741583507068867
0,076902582791537
0,0811971131051716
0,0935315110703703
0,0814893962319783
0,0778896831005323
0,0787035055440972
0,0631149486450407
0,0858563133024918
0,124737717679565
0,108106792158476
0,0817449817724375
0,070997750252526
0,0528103684825138
0,10182746479197
0,109812144418221
0,0742902259341252
0,0749511287384332
0,0673486574996171
0,076081099519928
0,0686010594300583
0,0734433552507408
0,069561812175027
0,0640855651323907
0,114998454968637
0,0960026779362879
0,0748399531345576
0,0708561551389092
0,0816587257361923
0,0751773072394084
0,109348138101604
0,107005627578071
0,0830223741021762
0,0811921272755819
0,0674348682843476
0,0954475465008593
0,0925540148482977
0,0709490949439728
0,0714508697568801
0,0715582914297204
0,0721372336308326
0,0730176610447002
0,073634213681286
0,0780439015730114
0,0741410271380736
0,073756602541218
0,0762570807026041
0,0746109512566352
0,0854631865630919
0,0813612817840935
0,0738346860027341
0,0742579882620203
0,0665801938958094
0,0905406656610087
0,0965145337366097
0,0807337929977293
0,0804579788122058
0,0753344513964295
0,0739416969331536
0,0767658379774653
0,071334315209792
0,0753285714044571
0,0703975685351007
0,0648364329318349
0,107227107369011
0,092753719255213
0,0838551651689058
0,0765601058952489
0,0898292537244715
0,0990019391669704
0,0804569131299939
0,0774614980550253
0,0762929735125009
0,0782372815738468
0,0862883278036638
0,113109564073411
0,0927235645239269
0,0850025738985396
0,0929546942034705
0,0845221435662375
0,0784010841654536
0,069442199771803
0,0805358087544513
0,158695454763944
0,109237384543722
0,0831616046996877
0,140354400787639
0,110243947722571
0,100193735364178
0,0810385444777946
0,0593250555755999
0,180577528435201
0,138903891143126
0,086236029758293
0,0904878563693095
0,0997383385063747
0,0831874332874169
0,0874419018191025
0,0907442473962994
0,102678390384285
0,129654416959557
0,153426732914371
0,131287615699629
0,0830929584968515
0,118650210031462
0,117547554595007
0,0917472411941906
0,0976749747049307
0,0935745326555912
0,0926874358595618
0,100267289505844
0,105200504925841
0,112983276243173
0,0910858914499622
0,0907073718308048
0,126090471812572
0,102475121053208
0,0891410977375166
0,102086150759489
0,104212871349639
0,0940095610071683
0,0942099130653481
0,09741248953378
0,104987989139696
0,0893703103101625
0,0984033053638679
0,147727127353552
0,11672820083349
0,108918037688507
0,126276192576401
0,105022473219069
0,0921230946785034
0,096263205326335
0,103004019539593
0,102922384579821
0,0943783554038763
0,104635018390933
0,132544080428602
0,111409138522678
0,0998375918103621
0,107253295037226
0,103320335884459
0,10455655814196
0,107546941683969
0,106158094413282
0,110888043358069
0,111943467210983
0,105175916961077
0,135952879647791
0,130362518961836
0,114861520064781
0,158581096129033
0,149674927100341
0,126721169365831
0,117452462936819
0,116383289530255
0,122505618498462
0,116085268081723
0,120210806885741
0,115183980458686
0,131342343524066
0,153885938637788
0,132179511797279
0,125969973728911
0,134772984024756
0,191039998643574
0,19158194508959
0,151319493275028
0,128138803925563
0,125690831088564
0,178776652864769
0,166829945884868
0,168441321536121
0,167648600018779
0,147028949314303
0,150165219629974
0,153696888936362
0,149911529276596
0,150265632263713
0,156453859013577
0,152596619434389
0,156787657911387
0,169192004009658
0,170571589979366
0,162282280692517
0,170525584883613
0,208385027795237
0,186681376837582
0,177647081307117
0,177381614862148
0,174600186122045
0,204511031683948
0,225881750293616
0,236797711180762
0,225099501729669
0,220301756913267
0,236179143900217
0,226433806419266
0,212323240974285
0,20544706579376
0,213278203704244
0,220993337439317
0,224558838641555
0,220362885095996
0,222847102700175
0,238478756936587
0,238066199903328
0,236365015077961
0,236292596623532
0,247239264591319
0,27263662675928
0,25509249716089
0,247515547276828
0,246117501365945
0,271772997029617
0,335749847107514
0,32668478786111
0,279808691208615
0,273992038654318
0,281594146401033
0,283018704455034
0,280947900042998
0,285881846122336
0,289596827532008
0,308882706903381
0,330020448978838
0,316687642001407
0,340291752700329
0,33354228735112
0,307553448997206
0,33683635240651
0,343898741770282
0,34996114540574
0,363517749068574
0,349426601865611
0,334987045304133
0,369349322074349
0,367769505045423
0,373153264221567
0,379085810057038
0,359746742915757
0,345306978494587
0,353655019947656
0,36334702612071
0,383584516392956
0,389386522012277
0,393553562502474
0,399075186311194
0,405136881763326
0,397917774710322
0,391816606480672
0,412394671254957
0,421289884745777
0,411536243482963
0,410833494737554
0,412157255027524
0,419350273936703
0,409344653893148
0,451417517503838
0,466642079274667
0,476475557822346
0,469318561365898
0,441322526068961
0,439661028873123
0,448586805680405
0,458711201929759
0,471602032919673
0,47588920341537
0,496973104246889
0,485538589562047
0,496341210141174
0,482822798531112
0,507502748921452
0,507601518764648
0,499532359013388
0,499183475471894
0,511074789268133
0,514033734666342
0,530304714837255
0,532778620638618
0,574077576103131
0,563603849222077
0,5995670872063
0,574465614797643
0,549100228181098
0,552853820560621
0,567021124654737
0,539730331736541
0,552793020359954
0,560643076172719
0,600447349121716
0,599732487667614
0,592067797394586
0,600068841703068
0,607715356990783
0,602482156929182
0,622289750071369
0,636846226200325
0,649480548641062
0,615393111996069
0,628295465948817
0,645558559357708
0,649064006194468
0,624465809134058
0,635364289198355
0,672628538829806
0,67593032557285
0,662600983902519
0,664838512518978
0,662458486149031
0,692996631381305
0,705378120564308
0,705839615700625
0,70142218544725
0,724520702347569
0,729569633856978
0,722236643275567
0,698587233013504
0,727869987696735
0,728653284226441
0,776374350595836
0,752054375446382
0,744413190461569
0,737576215572634
0,754302079928201
0,722169777634531
0,759231075078734
0,745427130563812
0,781163605586822
0,779095634281952
0,811509249413474
0,787442090992358
0,837437742839791
0,779829945518886
0,813175431028013
0,798656078231499
0,818312525305875
0,82629086757456
0,820876874184947
0,804836306244683
0,839217837946306
0,831613448516315
0,875371898837274
0,940623321985429
0,924678917360523
0,816149402802399
0,84386304026597
0,843642060745628
0,895290320092252
0,888237837908869
0,923856325273183
0,882184610744533
0,951429681787307
0,960561689756716
0,912388017757794
0,895257750221824
0,957340260369278
0,929948334891187
0,915712252546362
0,89997896088142
0,940810183622002
0,89853487106882
0,93579780436895
0,952177144924477
0,996646343654044
0,989135740902643
0,979151274165058
0,968339002437182
0,967917948825928
0,973460985402314
1,0467435438745
0,951922855025577
1,04525048125045
1,03337323124245
0,989457269842054
0,910470141505613
1,07749156440957
1,02551306460283
1,05455676276482
1,04606590569451
1,03958948188661
1,04142160910403
1,08938344085856
1,06667129470346
1,00772936901025
0,981088114680301
1,06932866946453
1,04352763337859
1,07526764238809
1,06221875911612
1,15966932857188
1,09908784023551
1,08825172675356
1,0976323610498
1,14166370002817
1,16839342850983
1,16178047616285
1,1582536942183
1,19236821821778
1,10845131365441
1,15074429105309
1,09728086934572
1,20650035115786
1,16120296327715
1,1334810118766
1,07279085761218
1,14623135305383
1,18235368113617
1,20421426082963
1,16045897413797
1,20340737374752
1,14902867319795
1,14642543563718
1,10899986291107
1,20217600029898
1,18774279452581
1,21234554662914
1,10758611875747
1,27078539473094
1,23006061462682
1,2067410939399
1,2778748946494
1,26966126351041
1,1970000443121
1,30294910004281
1,20023984278175
1,23949866640522
1,26004847883232
1,44775592004723
1,27937513601843
1,33884224426725
1,26927931477379
1,397968890366
1,37684267717315
1,45955308090638
1,24792823068814
1,334795977121
1,26866803698087
1,25998761435667
1,31425963791098
1,29612580090724
1,2904980567257
1,30805834700047
1,2505249648649
1,38653953188367
1,30113255763952
1,44326087264942
1,27523392791252
1,40743656128029
1,28081495277378
1,36416571256534
1,30342771777894
1,48975181988017
1,45759766143248
1,41161254559573
1,31670892238698
1,44186748518589
1,29535180025038
1,44315016045282
1,34291897657855
1,45204984363041
1,32601284371552
1,4972659068646
1,38567344541068
1,4505108571147
1,39317868434673
1,48623985098083
1,31020338548391
1,48436980374988
1,40775143052249
1,44660607805029
1,4805802123474
1,59282069878748
1,4170902736275
1,56326111319863
1,41233592743325
1,52839626463915
1,37355091324937
1,39700392989892
1,33040880787315
1,55313112230874
1,26003850790707
1,50893841209463
1,44510711337961
1,53358161507327
1,57893654377163
1,37426197029065
1,53680684045991
1,65429717491408
1,39991335742607
1,5848807055088
1,45756725697369
1,58010589342634
1,45704886801134
1,62445513269306
1,4227184208722
1,71699513924911
1,55353346723661
1,54264515363535
1,46295555790234
1,80828505163021
1,61699519046306
1,47277156823363
1,41080113179788
1,58476600494339
1,38819493703863
1,5405582251687
1,46710992951314
1,60332221910156
1,61458011656406
1,64193042393736
1,54315492125379
1,67995439912292
1,46143905570125
1,56518095203059
1,43132264717473
1,66861798002469
1,4907190562331
1,69301251016343
1,68439664774287
1,56656775566526
1,56450896574907
1,57220571283576
1,50183314071061
1,56094131196624
1,62576376907359
1,47062901407001
1,48821471914951
1,77659404031669
1,51040859665866
1,48804801141747
1,61311951749888
1,59801205584869
1,58404876039896
1,57884500793975
1,49351610422456
1,49792323376517
1,4825852397874
1,58058378008686
1,45524640391533
1,60134163698353
1,49341004365706
1,6206883242884
1,68581999025327
1,7713766332112
1,45380130873133
1,63119853734532
1,50435152183551
1,72726574675316
1,42333272140976
1,49779617958845
1,55520095808661
1,60027608226622
1,60099736255293
1,47225697772753
1,48699110702196
1,62210534852602
1,48849064745278
1,55869979638217
1,68380204547217
1,55438326187346
1,52724178341056
1,64923218791075
1,5560216499717
2,11866625659633
1,86089276925701
1,51306140578613
1,42979472676138
1,70366443462746
1,54910294923656
1,57010278708897
1,57796723533448
1,80539402146716
1,5544685983606
1,52448918807021
1,59364169084917
1,73426489842434
1,56270984176687
1,71923438694721
1,55309011032068
1,69329601261892
1,70054394239466
1,5656374947493
1,66047909945564
1,59236312318995
1,47853053640159
1,82116103805575
1,42867199157349
1,53725812092728
1,60286420937454
1,77245739485941
1,53059443519176
1,5612361254686
1,54064961892146
1,45322719710675
1,4641640749469
1,6560937503023
1,56421719647231
1,64357203772078
1,5630225222163
1,46352441489457
1,47061190301432
1,50139217786766
1,59903312744371
1,55924796667242
1,53605970870664
1,75950744798308
1,58858857502605
1,62922899997665
1,51695763674739
1,64745286180688
1,48831521259764
1,54503301550447
1,47472828834251
1,52913225738651
1,48668008094355
1,93953062555703
1,67653785750485
1,66331768024439
1,57282265566796
1,53503718073759
1,59843188145928
1,60270320233323
1,59637535557292
1,5687371789491
1,4399316120699
1,57076298971686
1,49338368856312
1,63706575648647
1,4578224933349
1,5187608065684
1,51414362940543
1,64345311302335
1,443356884289
1,42852057423274
1,41690363697826
1,56448100120914
1,45019504715069
1,63180669530318
1,42069233091687
1,50763076310736
1,49330214823234
1,52861298186319
1,5568018366514
1,69077873255773
1,46080996932528
1,61326930558103
1,43419504936278
1,61908557425777
1,4378240716046
1,56841632483654
1,58165538270598
1,56800765807613
1,53271451828554
1,52384547014885
1,43410804035385
1,47577033004258
1,4419588983316
1,47647162857222
1,34477265817871
1,4806620250336
1,39093137597054
1,39641229172586
1,43380131466723
1,43113867474865
1,48179664712161
1,45381873521947
1,34793779040823
1,47046697301705
1,35439549200634
1,37321406101075
1,40551102768832
1,50395137013372
1,41558415045561
1,47838239152275
1,32126918220136
1,3321456780893
1,39942730624721
1,45682345666304
1,36177475847174
1,37756551824867
1,3085743064988
1,35359622510667
1,3316601816185
1,3350920762311
1,30044772977673
1,43347855117634
1,40968034349454
1,33378496626434
1,31977870566966
1,4125826102003
1,29786229755837
1,32581900073702
1,35133443813597
1,31595307161043
1,31651812151155
1,4440940320653
1,30102794837316
1,41103876295598
1,27101989223723
1,22916724624206
1,23520689378247
1,25224315523535
1,26237910657882
1,33096982271699
1,21654850018597
1,25556010891395
1,26082672412479
1,25599774974711
1,17399474301559
1,27246874870525
1,198702190757
1,23706309008053
1,21334729259669
1,220419701821
1,22985447006988
1,21383780041118
1,17824138167293
1,25629145738646
1,15971140813416
1,23916578887352
1,21008119172637
1,22137937243486
1,17192708404594
1,19533576148451
1,15804104002588
1,15329617186462
1,1396600714087
1,12351594713909
1,13648926187091
1,20075442057658
1,10032116704222
1,13519983343903
1,11410822723542
1,1320044594095
1,11633386872935
1,12487971667201
1,06642264164124
1,13359759107773
1,10719187660902
1,07471043937966
1,0192778625246
1,05886427439419
1,0494348931873
1,08326450945562
1,04164467648828
1,05736849120775
1,07017058461571
1,12025156133471
1,02712001247141
1,01368173969833
1,02892600734397
1,06062454108565
0,981935404252327
1,04133382466067
1,01752981450969
1,02767489847605
0,957652454706273
1,00192119962504
0,981247020280025
0,974876691259236
0,985273148856342
0,984397199752387
0,974942898776642
0,981261123515685
0,922773434594566
0,97338058701188
0,941727271584742
0,963513340795533
0,961546323143078
0,946961353363583
0,911932448025958
0,938791821765888
0,889884229575563
0,924126168589777
0,93629524332738
0,944848047768517
0,919641940187466
0,96271962514279
0,871449595746443
0,903743088478219
0,879592017456942
0,900031830913186
0,856946984546675
0,907900391847816
0,881317247872598
0,861606387503543
0,843887015759096
0,874229177267464
0,874052946614845
0,857363977183306
0,816439959015513
0,85598363934287
0,819516154741365
0,835476220872274
0,821636365013839
0,83042160252165
0,798289731062175
0,839311413362661
0,809905363282137
0,8204494732389
0,793548143220248
0,800400220803216
0,807099705279667
0,793102499056883
0,796264919631569
0,799484460713512
0,781989451460093
0,816083664986904
0,772419657919553
0,784644154600525
0,754188600071714
0,775630659440349
0,766293732954133
0,762359668382534
0,737963513497954
0,755671327483985
0,720268677824872
0,740082202634492
0,73765698168971
0,740848356502824
0,728820986677009
0,730977972276998
0,729338120290186
0,700792413166911
0,697171401672449
0,715311105092014
0,692895145320685
0,706549051397054
0,69114602263306
0,703084856824125
0,690654037732839
0,696344599873906
0,668879241920687
0,68547630416487
0,674590991418971
0,661083893743921
0,657928586029908
0,669965284355947
0,656587037492754
0,657862622088939
0,654301836414591
0,659307398114427
0,651508126660613
0,641812780063864
0,639035074177912
0,633146550891364
0,628049979747586
0,642092707105681
0,631912717594113
0,630105138703402
0,610498701842004
0,626974496871268
0,621092256814778
0,607317440318372
0,613373632174864
0,6110942520194
0,595002694232274
0,609579509081671
0,595144371726915
0,585980828153608
0,58199866545124
0,59326918053726
0,591249988365825
0,590620177209171
0,582316707332386
0,569126733101605
0,582255695409552
0,572500458760253
0,562187062703118
0,562259596508336
0,553619327935602
0,567193463675931
0,567478725584476
0,559948403087696
0,542937800179884
0,552360486534722
0,539603420459365
0,53947379705806
0,556150125778288
0,539253732440314
0,534663683592164
0,550050109045598
0,528541609288979
0,535380391746829
0,531208948965187
0,539716239794217
0,531023758359965
0,524864633258855
0,518915095420677
0,52985913585271
0,517334293006334
0,51993365178608
0,505817493804925
0,515939197155376
0,516392763625842
0,517884802816641
0,51875696311724
0,514592330960896
0,511696386042021
0,518342838677213
0,515425205391253
0,519790845753738
0,506275043620966
0,515295973525988
0,507199760299033
0,511630530860065
0,514619413932327
0,513834513187909
0,510583740926745
0,521989879016335
0,505631277218984
0,516607316748476
0,507132054610754
0,523202599336328
0,510314916906468
0,519301835872073
0,510603943672569
0,515275914417398
0,509446514554653
0,530898390360144
0,522449758391254
0,531606781697028
0,522527654774473
0,526901389278495
0,520858295425838
0,537323387726438
0,530036579229456
0,53330349145842
0,516849905861422
0,539898356789643
0,532178979239584
0,537665418429444
0,520583124152531
0,543257900089947
0,53403785846569
0,54788824324447
0,532703027984079
0,549150143307013
0,537014533149226
0,556367546908035
0,534410646028546
0,559023092298689
0,559643147875924
0,560609014702822
0,56320479321909
0,568808271845068
0,565910610818836
0,583532556760944
0,568200764913588
0,578352942422418
0,58743781441026
0,581383483867162
0,584857037310998
0,58343538072378
0,597337603519603
0,596678780569469
0,598666438173589
0,603081746044662
0,600999045469836
0,601325660469992
0,596991157177928
0,604435009589421
0,599214837112178
0,606494783702033
0,597213582322163
0,610006881813662
0,602134476432092
0,618758259073185
0,616320762045799
0,611445543522314
0,614987380492791
0,621191915096411
0,604580010316258
0,606063416694044
0,591892587884499
0,616243670204713
0,592280365439987
0,617723098006851
0,594358720485344
0,605160275881278
0,587497541330813
0,608966019049034
0,596060881889817
0,600202867797975
0,594948740627452
0,599199594473849
0,592105600079092
0,613866821567492
0,59528300979064
0,596426972647716
0,582455645483209
0,59985073186131
0,596661762638169
0,600883982365805
0,60047278253824
0,617804329979392
0,597786573062792
0,611920520778128
0,600627699986423
0,615544464194031
0,59689275811635
0,60207753910796
0,59554906332765
0,609760452001917
0,596732041915759
0,607767152258126
0,606416121502885
0,599372287728498
0,591311317406792
0,610583071933251
0,5987652865863
0,599829742255496
0,581410680693716
0,597538216717677
0,591562476462961
0,594371093361686
0,60171737211458
0,602163685081954
0,592514417173961
0,600744644420904
0,589554353618142
0,598407542910655
0,584536955998752
0,595921645862468
0,580919169208613
0,591519732400819
0,572832870282983
0,571223067034154
0,558385652295053
0,568281599083272
0,555409351588446
0,569314181651486
0,564132245373149
0,561448716293716
0,560149766566593
0,547349646774895
0,550569747554165
0,558861439647299
0,54315043799387
0,545660412554448
0,531374646868426
0,530510966468532
0,515477162650524
0,527959984661497
0,525394798770468
0,517343650777636
0,514612717757115
0,514280310522534
0,497043111813482
0,506454828185231
0,499267757809438
0,493651266905172
0,484079515779267
0,492911293491473
0,491675004266311
0,482198234960389
0,472805923681855
0,477174167117491
0,478603971181069
0,476442006141249
0,470837978330825
0,462973868633452
0,460926283442966
0,460064348389983
0,455633075152169
0,456791409877124
0,446246817914806
0,444994357547023
0,444939767008049
0,446724474309024
0,441486828951147
0,438373103916775
0,432424976378753
0,444148950649883
0,425635319037506
0,438833399097155
0,425902406346591
0,430241868958513
0,418911923092493
0,425689199895085
0,420783926722362
0,423107383410851
0,415612419544616
0,414277773417977
0,411319823398699
0,41636537578536
0,402441781355484
0,408908274047491
0,40313331029918
0,405017330654409
0,401406016507422
0,406204792841832
0,408368538621428
0,400714327932388
0,384471561861812
0,399226645433109
0,389988498908447
0,391281348820681
0,385189076252952
0,389445684889991
0,379397292812859
0,390580306284666
0,38499210263758
0,381828948715041
0,377361244851922
0,382434090579316
0,376401658313323
0,379087163134126
0,37144978374815
0,37562738658897
0,370147902175637
0,374404558576733
0,368164339672556
0,372460747781287
0,372585013439398
0,367388144230824
0,36041558350894
0,35480128386766
0,353843879358685
0,363284113413078
0,357859082420667
0,354485154249678
0,354955793644813
0,363343278557766
0,353190649949579
0,35696221870879
0,348426536023641
0,352202418446423
0,343716720701509
0,351538201570575
0,346530543267817
0,349952349500281
0,346870761908333
0,341233349880216
0,34711115092413
0,351864348741028
0,339044013532127
0,342440503092352
0,337028576376023
0,336702029154099
0,334882888336943
0,337690991573899
0,334004323828904
0,33492585758956
0,334448068547314
0,335466468889918
0,327143129013891
0,333212069527177
0,330411360702051
0,329521633560239
0,324155584477386
0,328407992652941
0,319643608210167
0,328042135269255
0,322431536045483
0,325153426000224
0,326116035810416
0,323085984426183
0,322480744510645
0,326036755014291
0,319443319110714
0,320522678226535
0,320450208569505
0,321549278256521
0,316542350365209
0,316936674805035
0,311652171120847
0,311331402871325
0,313288084029168
0,313886129660843
0,316404345982603
0,314005100278262
0,314481520119896
0,313531075674852
0,31067548309948
0,308315565764305
0,312941851207146
0,312927833433469
0,307635505544091
0,311934861568276
0,309130430306419
0,310923042779255
0,309447605472971
0,309099437698717
0,310110621946875
0,307048182801163
0,301142145644325
0,305973599256271
0,306534053054433
0,303119020109202
0,300194996127442
0,304336371375114
0,297927717214874
0,303628789594873
0,300292689261407
0,300052245899966
0,299425759574611
0,297222942381438
0,293224515139207
0,30085902365892
0,298783295921109
0,295458067038348
0,293480697709882
0,293815992572656
0,292160117026042
0,297383472747615
0,290741893390135
0,289888897371693
0,295096863684586
0,293378770423823
0,286467189391681
0,287842092667691
0,283489241389572
0,290118408404805
0,286431016571305
0,281789912028148
0,281900631619859
0,281204614985546
0,281150228600868
0,279493521761622
0,281214461857799
0,283236150258477
0,277324826995921
0,27787351361169
0,275118572249071
0,275722215731585
0,275698471853025
0,273369911273145
0,276192920149323
0,2749059560702
0,27250201932663
0,27350106659321
0,274973025784869
0,277149024212427
0,269412649164847
0,266320941807599
0,266028855299322
0,264511056157933
0,259480777323158
0,265326385705142
0,262987707924525
0,260851002596652
0,25472674106039
0,264690607305819
0,254851081446316
0,255060468611036
0,26043413660114
0,261341113479736
0,252736017819831
0,255087397250611
0,253322660462483
0,252543257991467
0,24903771841819
0,254179577505471
0,256178482459045
0,246905504350106
0,249383067880147
0,248969423135964
0,248636094108765
0,245625632356212
0,240514130555176
0,240788376925287
0,240272924613982
0,241020549539515
0,239762756855914
0,239102487839796
0,237103155763813
0,236131917729282
0,233067280084474
0,231506040762868
0,230831925110447
0,231367402091698
0,229851898804605
0,22670338898172
0,226979023422306
0,225824009203287
0,224894778480911
0,223585683290246
0,222345758332551
0,223670876050971
0,226647838521957
0,223588110991762
0,220923475680414
0,218678394644531
0,215029456002802
0,214488323953966
0,219671393403868
0,216174540400871
0,214534830783371
0,217557863300022
0,2127254369392
0,212261581019798
0,212246967366021
0,211258552708942
0,209408921997823
0,211339648393568
0,207408314789035
0,211906761922814
0,209465871152685
0,207210796999669
0,205855681743843
0,205374056365464
0,204799648780646
0,205499422599552
0,20221962987299
0,204146226644358
0,20402061127502
0,204761872727538
0,199467021876076
0,200043442430974
0,198578955372563
0,199891944764245
0,198292361435006
0,196746420074763
0,193214511374466
0,196779813394087
0,197647454664565
0,196479515766314
0,19405340588758
0,194219603439375
0,192459684454364
0,191761070276494
0,194705728334524
0,191726270108433
0,190143269570721
0,191372776418454
0,190372463826488
0,189606577975753
0,187298313544
0,186058667070996
0,185140708090332
0,187401337776275
0,186423655448688
0,186896348049971
0,187661837867094
0,183561720537585
0,182769248352524
0,182046563867545
0,181820568476472
0,183697297710189
0,179348675985271
0,179326939534546
0,181408974494883
0,178767857019869
0,183230628959566
0,184562607678408
0,181329774406288
0,178118249534168
0,180728897570232
0,177524100696488
0,175616554315889
0,177085600265621
0,175103193046992
0,176038208692643
0,176256289615994
0,17792203432706
0,176576874655656
0,17271122366601
0,174728067280254
0,175520842148377
0,175239041250001
0,176042194511295
0,172304622364929
0,17152200390505
0,173536600186584
0,173198350475681
0,171558289224572
0,17191746575204
0,172551594504003
0,170260602194327
0,168493792164179
0,170559085229002
0,169807457313136
0,167954662635737
0,171472066531372
0,17055430528908
0,169592582862346
0,169984202181596
0,169907002582654
0,16890213940894
0,166695563034537
0,165683846270762
0,167260741857253
0,170406440104577
0,164243218439417
0,165622892055193
0,169032660698478
0,164457066642827
0,167468041919807
0,165068459199827
0,166858887168745
0,160479045128547
0,161851417911993
0,161090187096666
0,161593948078938
0,167131716646532
0,160841325378179
0,160750583014654
0,162657374761472
0,161544313252738
0,163411050907014
0,161469589517918
0,161950440511771
0,157901736005962
0,156519723276744
0,156128503595198
0,15953956465219
0,156435923139079
0,157173211000542
0,157441599327217
0,158552313217078
0,157043988350506
0,156515178323954
0,155263508576388
0,155354956559927
0,155190137755201
0,154111451467909
0,156859168334063
0,156270440568369
0,156266636501828
0,155657087336268
0,155413408643128
0,154031049585734
0,151001835572555
0,154218790765601
0,156140555818465
0,152396863800117
0,149067578124705
0,149458755855391
0,153240899515676
0,152157342765798
0,150322408931015
0,152225212077229
0,150856423844577
0,1538908487958
0,151717230743191
0,148656271539887
0,148753891433026
0,149174147917516
0,14919344931266
0,147374122281722
0,148875350247729
0,147998338145453
0,149099027951889
0,149059513530449
0,144466711284778
0,143642471409863
0,14287193398909
0,144392278946176
0,143588648820278
0,143453257031989
0,141580203987088
0,14421009810011
0,14386120746468
0,140856025491733
0,140375318130809
0,138200793439751
0,137623733312289
0,141227719353782
0,139042889244989
0,138594386519882
0,138746591377558
0,135640497095321
0,133451592363979
0,138574605992067
0,138023794440191
0,13644366879164
0,136146189330914
0,137461173010776
0,134335626417622
0,135359803570353
0,133159606641219
0,134392714823707
0,133085057078493
0,134717789394704
0,133407608323865
0,132273150343386
0,132155164466024
0,134442439671789
0,131335347489797
0,129783014354895
0,12950256980195
0,131110801354873
0,129818603515169
0,131023326802369
0,130988879902907
0,13144364479516
0,126713843317221
0,127759774744677
0,127575767179967
0,12911204757051
0,124975208528471
0,1277591839274
0,124029583781618
0,125295717907079
0,126573392692759
0,12825316481683
0,12578611296012
0,127284856758045
0,124103609384922
0,125184391885582
0,122876255565862
0,126668014406469
0,123366327205201
0,122261309778127
0,122366472273832
0,122928033503552
0,120934689825463
0,123638120344956
0,120884732430615
0,119836118213528
0,119708669857335
0,12223504043354
0,117321096533371
0,118103980606284
0,117624237097803
0,121175968507092
0,117236660848502
0,118923637395162
0,117103945539588
0,11676862797951
0,116240079132294
0,11956078916398
0,116885798833103
0,115239853360437
0,115190608529116
0,119561383684047
0,114916697013148
0,116912924922311
0,11292177573258
0,116985148609469
0,112475898486438
0,115059779577449
0,114368143671129
0,116394650076332
0,113045892852319
0,113766642661042
0,113607299143837
0,115183668997982
0,113300045960014
0,116580036014391
0,111803580851275
0,114618075581016
0,111203408575361
0,115794488260959
0,113838001737131
0,114459023120746
0,110366188543652
0,11268050145137
0,11133313694271
0,115069247779414
0,110314039732632
0,117390279788929
0,114172104767944
0,115642148928955
0,114769528791451
0,119709107601708
0,115612209739467
0,122713091492209
0,118951103380832
0,125194654532211
0,119054907841141
0,119810385343692
0,116273320249898
0,12242041115166
0,119491077336206
0,125904780601703
0,12138615479616
0,126235014759888
0,117197213189427
0,121197996663135
0,119062710502375
0,129235179287167
0,120084840460776
0,122523841637111
0,122437264464119
0,127919778160313
0,115357542512269
0,12470140880707
0,116848235849655
0,123621792323275
0,120320313660653
0,127091609469967
0,117650883244682
0,125644741144259
0,114754496512428
0,127291512085035
0,112681895060222
0,119395072065281
0,109178656807771
0,121209981672014
0,107806034798227
0,123966505637568
0,112747977697119
0,1278123048097
0,113306903774019
0,122877725172646
0,111919889400915
0,124635219992783
0,108572808031378
0,124727408462973
0,110205375385707
0,124275691126985
0,111249561195928
0,119915140004567
0,116229438113232
0,124197209097411
0,108805848887684
0,121142964090555
0,116801307723426
0,119224854619125
0,119095452314347
0,115335907001455
0,11726754181005
0,110744026468345
0,128179132050833
0,109375569613953
0,130000737457407
0,101620981400683
0,139244375392874
0,0947273107716336
0,138680809681732
0,0915869281531642
0,138753102074487
0,0916885559633924
0,135707446409621
0,0975039851211799
0,132636495148258
0,107311442012683
0,127709374250703
0,111220062923471
0,116108901307415
0,114873958374234
0,110707273958746
0,114240897285934
0,109942298228367
0,113681416763495
0,111226980292716
0,111085185826463
0,114175265146552
0,110695496200343
0,114911036797399
0,106092716751949
0,115749998255879
0,109499772511566
0,112619591717001
0,109600051053197
0,109164529707068
0,108768469189857
0,110004867358516
0,107049600563872
0,109483621747034
0,10745996844413
0,11215715317878
0,108560419465208
0,109529143691144
0,109336871283592
0,11058582085257
0,108443992982137
0,110158083764241
0,109379208442443
0,110475602649017
0,110170469076361
0,112389529254777
0,109289722850518
0,113002224155109
0,111475122734385
0,113341765021403
0,10912662169708
0,11130662571531
0,111349658104341
0,112254087782691
0,110484478106106
0,112126048561027
0,110768490141414
0,113618224354699
0,112042369211716
0,113633252046772
0,113172803539922
0,113693331049309
0,11264485041036
0,112779514436265
0,111085358079942
0,115269329143585
0,111651371278338
0,111529702439932
0,112443375278335
0,113823704976928
0,113702396658507
0,113678991657902
0,111776637108984
0,112984252080132
0,115213198200664
0,113888753504775
0,113408895322164
0,116075871317385
0,114061243375787
0,114280688203191
0,116008452683323
0,116454745856269
0,116453865545059
0,114834296770372
0,116870481860342
0,114515845840396
0,113878955396278
0,114972140711864
0,115743152433097
0,117039814791474
0,115797929122642
0,117134278915435
0,11675047345411
0,117124533373326
0,117022085343904
0,118435083977166
0,117774355778932
0,116858458211014
0,117789286564083
0,117633913707646
0,117914835359488
0,116594819349486
0,115834501916937
0,118140895049336
0,117972946389628
0,11705132198862
0,117905506648745
0,11835523824969
0,119936488458446
0,12154195246865
0,120155104784285
0,119077262386926
0,122559415532454
0,121975752929341
0,121962424096538
0,119508145869515
0,122034991348007
0,122456000832611
0,12227974851719
0,120423754711899
0,122529738867878
0,123784617671634
0,123414798872405
0,12326070544707
0,121120169899159
0,122254778812898
0,122371911887808
0,120867643092774
0,125252409786955
0,121138610011514
0,122614754322922
0,126708451768519
0,125085433656371
0,123981197679112
0,123655098254356
0,123168064324865
0,125196579604501
0,12522704838516
0,126584870287922
0,124044982653221
0,127010063537023
0,126066999555659
0,125277738581817
0,125234759507615
0,125702675038804
0,1267068096935
0,12825699254184
0,127938844800413
0,127429148691206
0,125427131545256
0,125757754130667
0,126863932609415
0,12785859864805
0,126558984193288
0,129630789880829
0,128471027627776
0,127108760965599
0,126556195519983
0,127658126652618
0,12900845317268
0,129455374406785
0,1283995067651
0,128311385319533
0,129349149833873
0,130122714428889
0,132304081688116
0,13213198446996
0,130135400628714
0,131553573627021
0,127997932142464
0,131042051253915
0,131888533330898
0,132097851759658
0,130918603373559
0,133362727438298
0,133130637550063
0,133435657131882
0,131469410303115
0,133408788478721
0,132216049123196
0,135236040989028
0,134772464281547
0,133314418421845
0,133367849474958
0,135190853315017
0,132269535995522
0,135210425764562
0,132646442691074
0,132694528919096
0,132115045082371
0,132191025897998
0,133065639654419
0,131897805370696
0,128748705183498
0,131750923811269
0,129471891841483
0,130779667250366
0,131808080462002
0,134103007173891
0,130876677626404
0,131520030848678
0,132359721539169
0,132142822216945
0,131515878552359
0,129921295565295
0,129812395038915
0,130821250926038
0,127606808489321
0,130277165030056
0,130002409295242
0,12990457880736
0,128007754147078
0,131273517804542
0,130206281566185
0,131118456413698
0,129051496670758
0,129703918441162
0,130384115266553
0,131708749771364
0,127755864768722
0,128698295502587
0,127319885402724
0,129075404107412
0,128831559752143
0,12862508000035
0,127226141433771
0,130237789773851
0,129333208576564
0,128725208823722
0,128445193600325
0,130609209604903
0,126558386597395
0,128475721817523
0,127970522755264
0,126437487977846
0,126945223650659
0,127873427796381
0,127636638948678
0,129141539004274
0,126140770799166
0,129615756798431
0,127558214922538
0,127931855603277
0,126267908873653
0,128525156350272
0,12514148668747
0,125352124384734
0,126923905297258
0,12843812216037
0,125732808984716
0,124585050716246
0,123406640429005
0,124950213044373
0,123089632282846
0,123406049945768
0,123603379311217
0,127493598620487
0,122870558154274
0,127226016762597
0,125592210127097
0,1246846211367
0,123091256898956
0,125135721943361
0,124600878480633
0,127433313486318
0,123909510734367
0,124240971229771
0,12317554125572
0,125843214960188
0,121563570849973
0,122249982191402
0,122779929824744
0,124033657115827
0,120217782840976
0,125444401892347
0,125157876223985
0,125494587264283
0,122312726566739
0,122432833624459
0,119841593442809
0,122299420911856
0,120025758892429
0,121959683713363
0,119659878318351
0,119022093391079
0,120263966933002
0,121523401493894
0,120825803079331
0,120599545037208
0,119811114416892
0,11894117793913
0,120220346279827
0,121623298050184
0,118430700776203
0,118899140527959
0,117259306388163
0,120025218878463
0,116802832911089
0,119655663827423
0,114934444426547
0,119741635583836
0,119454222542682
0,118313264336008
0,115904544117584
0,117428461425274
0,116014923087018
0,116927786114471
0,115187953708289
0,116212745382049
0,114538183769611
0,116893585240601
0,114362128765507
0,114428781992731
0,112440729791814
0,11280545729634
0,112282774821926
0,113703708300327
0,111462857642537
0,113019244085206
0,111615178582389
0,114406709257609
0,109862362757502
0,111573148604909
0,111700119486868
0,110650619691803
0,110913957879888
0,112577477718773
0,113580161678365
0,114445448471158
0,108873566473369
0,109869449923964
0,107644563581329
0,109489929686296
0,106806354779504
0,107519647533847
0,105708273043992
0,109358762673451
0,104805862707349
0,106626882053303
0,103974296238274
0,104194526139667
0,104106184925916
0,103243524109114
0,102733967320945
0,10525502969371
0,102207304699181
0,104385512894919
0,101953753405179
0,10337703023936
0,102846280480289
0,102081351940999
0,099952729712893
0,102101814148356
0,105427204653697
0,113440419664342
0,103479445290124
0,102662035351863
0,102588829082943
0,103818542483716
0,0990777392776806
0,100499973500701
0,100652068928016
0,100660649193709
0,0988307580713165
0,101603480224063
0,100245498582708
0,102464274062035
0,0986886389993789
0,101232825930789
0,0987970373382337
0,0993891365319864
0,10000889825523
0,100418818606913
0,0962674335347023
0,0973936059154362
0,0959013488988474
0,09848191818713
0,0971193688698533
0,0968253986914433
0,0957351616324206
0,104828642839575
0,101115310943129
0,100221672760753
0,0955512728788732
0,0957102290370423
0,0930134311977835
0,0946110763255456
0,0947554317252485
0,0942587218565253
0,0916447218097467
0,0964319460181868
0,0960312647623999
0,0945312117493844
0,0947265283658769
0,0968490525381212
0,0935134241671909
0,0951689959741086
0,0923665082672587
0,09557184638422
0,0918801188181363
0,0925819316779505
0,0898880015074505
0,0932197380263265
0,0926635577925576
0,0942346722736216
0,0895774704591392
0,0981205011393778
0,106307776427452
0,0963276865629935
0,0885329750013464
0,0936174423164817
0,0911115574244809
0,093562184301495
0,0882631449532692
0,0924907131140232
0,0899736750308933
0,0923830616501483
0,0922781830186088
0,09065683803147
0,0882285985111949
0,0899642997190798
0,0883233998486543
0,0910314123853562
0,0877912347127306
0,0910687304076829
0,0917733747735797
0,0914641573866138
0,0960083227045993
0,104932961164347
0,0959007737940777
0,0939597259094789
0,0886708733524836
0,0893358477937231
0,101784400592167
0,0994907418614096
0,0896217360223612
0,0879652468634735
0,0885369432725052
0,0886549086625331
0,0867071798660298
0,0895889191483188
0,0936368652971296
0,0949405526509942
0,0882380454129045
0,0930584690834647
0,0877161586513375
0,0894378766949604
0,0869067173463142
0,0898667947576941
0,0859140766731532
0,0889512047624979
0,0866403982819598
0,0887562133104443
0,0861586658014942
0,0893767646357059
0,0875028385887309
0,0863152906659458
0,0908487113446731
0,0944938292824854
0,0893289626154972
0,0885546645520952
0,0854550990431463
0,0855406549607932
0,0909250587700114
0,106029056964457
0,0900043643652297
0,0907463918601181
0,0853778513389397
0,0881874369092613
0,0879021117864019
0,0886824320927612
0,0874279087471804
0,0867498696582921
0,0828929811400341
0,0898896728173297
0,0847056513851659
0,0867550029280308
0,087358778781867
0,088143705358824
0,0845975213830717
0,0888431326540945
0,0843780445731279
0,085791958696155
0,0868651727863573
0,0894014655732625
0,0948338626362622
0,108003509139868
0,0996881663466049
0,0961562158918012
0,0936234967242401
0,0895927447506732
0,0865061763591831
0,0887092872733459
0,0867289686918312
0,0889659820028542
0,0853164881253626
0,0885233036459065
0,0860153797762997
0,0876248972532175
0,0847180950077197
0,0879394432873137
0,0836227838381263
0,0893735442505621
0,0849498067628279
0,0903116482181338
0,0852373047084551
0,0905014767738016
0,0847253767439653
0,0988138937201278
0,091413184083183
0,0935382037779374
0,0815795169374371
0,118826196454515
0,110833009749562
0,0953871593995344
0,0939008682250674
0,0868761641709409
0,088905111810624
0,0870023797932601
0,087028525452242
0,0937074587500704
0,0877628147995853
0,0899845032453178
0,0871155683370329
0,0922254647180814
0,0909665480420864
0,0879767897097886
0,0939008706231979
0,121207212399026
0,096935003508597
0,0946126882248096
0,0868271812291292
0,100184363037782
0,108032777258687
0,094250884041518
0,0917924424943826
0,093008649410539
0,0895943405703721
0,092095103666793
0,0887614274822593
0,0933610251934653
0,092847901352799
0,0951833589445598
0,0914108161911196
0,0959150666524401
0,0880415713211369
0,0975703571994382
0,095405933235606
0,105991313662143
0,104712180709134
0,0931046866591252
0,0980390522660919
0,100678785983867
0,0934464682755094
0,0955031138691931
0,0931943793187134
0,0903779674942951
0,104878466135098
0,110757184696955
0,0955192881099002
0,113190649132247
0,104841020663709
0,0970327960303258
0,100071975869189
0,106582143855666
0,104325073667777
0,0953603519328432
0,109821489137427
0,125607456077328
0,11614664752441
0,119996191850823
0,103468420581256
0,105545660378989
0,0981575937499293
0,101482512912556
0,097627551424379
0,122712078893348
0,100659687913383
0,107627754896177
0,0959369809067418
0,122577642544352
0,112562522446831
0,110482225419593
0,105822089148883
0,10217263924952
0,104270510051906
0,122166847593594
0,106300348894133
0,107147801088764
0,130544665476403
0,142023788036975
0,134620894682796
0,112445553344836
0,104159742280701
0,146846140342025
0,116094273093674
0,11723804332615
0,107385144691147
0,117355363056853
0,107798749354686
0,119915980499748
0,13808217406307
0,122860138007255
0,114777065638397
0,121752058379616
0,108850454454643
0,139920397692071
0,124303869642656
0,123440831221108
0,117105349882498
0,127872971870933
0,113398570299361
0,171872753337672
0,135833308012751
0,143161489991914
0,147201459503267
0,14855060336042
0,139884618232729
0,13776625736321
0,131720349994081
0,150936512755355
0,15415152000221
0,142475454156785
0,125608697640173
0,159780750083087
0,159852699144405
0,13993615901121
0,148839315024757
0,144826507381483
0,140327255080878
0,187773681283852
0,200454789236459
0,183311897800701
0,156484207473468
0,156860926141446
0,181737238515426
0,162068643882507
0,156674398937159
0,159715972550909
0,161597533307814
0,162906120808969
0,161082551218025
0,178159206705525
0,167769818114856
0,178629692869306
0,170430110588706
0,176943428114131
0,196633332281312
0,232428108985616
0,222838331162696
0,19172630178572
0,239001282268618
0,217945412199994
0,202057536738386
0,197364272698071
0,196212646751119
0,213278013145045
0,207676372309581
0,205691951944447
0,203189484972905
0,244957509711437
0,230124393980113
0,23378132414883
0,24386460199953
0,230236691138407
0,23774664207849
0,223163604637305
0,410612426415165
0,276657456764306
0,27454182127087
0,26431769553736
0,270212569270551
0,347020339072149
0,284698934176185
0,286812943274975
0,289427308133463
0,293450898727668
0,304116789408788
0,322304533889229
0,326769176836504
0,343877498587889
0,341819261800547
0,331208092831315
0,365543652784431
0,458059139420268
0,424439488658662
0,399783078824488
0,378773368612891
0,405632673175266
0,409958004038875
0,404526098769653
0,420372276940461
0,422416741648383
0,423869885356067
0,509723139179586
0,456804254139273
0,468235058803304
0,460924200192025
0,52450213702534
0,468478219880747
0,556927425831559
0,530408011810228
0,526720739652431
0,520311173757095
0,534482068094414
0,542237240617905
0,535752481061486
0,585976310222645
0,597190510074927
0,572615302744103
0,585247411394615
0,585560578661008
0,605867677004474
0,601110456022062
0,624042646244522
0,599558408766337
0,679077028064861
0,623721477220321
0,909312910432616
0,674747589428453
0,647572041818158
0,642305750020081
0,637985161323978
0,701037176365657
0,674506757030227
0,695990805557835
0,712692943179126
0,652067545110351
0,661963448046117
0,647391171759937
0,682880339967141
0,657237741502896
0,690483404947828
0,649276275360001
0,730237052774195
0,669364909048067
0,729492771630395
0,769925621522722
0,678288012802016
0,660959870836541
0,673579211808362
0,657791681040465
0,669205357733334
0,655254221399301
0,658054291249873
0,679106107852674
0,642003599828321
0,638611845343339
0,622386330493588
0,652368808827753
0,665006658018099
0,614712714241511
0,615240544430755
0,594742453087131
0,607215342482623
0,569973271372576
0,598498166986057
0,656794076628719
0,579231541953915
0,574037756495486
0,572974557116698
0,560935583502585
0,560790862575023
0,541808438635321
0,550278086432134
0,541082295527611
0,538812118808477
0,542610050291469
0,532707387131561
0,53370915954802
0,522225306321759
0,524237326675937
0,518380184475022
0,513736757222567
0,517546436470055
0,505139693576354
0,505569124643954
0,495731875880675
0,494957273040617
0,492331172820299
0,50205948876549
0,501460021639956
0,491300924759109
0,494500620722086
0,487187312601835
0,48403667834853
0,49317412140829
0,479421761905228
0,480861423736957
0,481709170888019
0,489111880226582
0,479591343560427
0,478834660552648
0,475223337891294
0,482391292533603
0,477980612116787
0,483209985244023
0,467653448693336
0,487128626310772
0,451951836330138
0,55027093513941
0,501608016977688
0,467720489361866
0,465732916721168
0,459925193051201
0,462721226876424
0,440929178861366
0,500406504609871
0,49087057898129
0,453745225645325
0,449569184089861
0,434077431564508
0,468045355946451
0,456423751826691
0,427716847414868
0,443537967949389
0,410685362392555
0,473412498554855
0,502283184471625
0,510477417937619
0,538805254933365
0,441195623366457
0,419783175503198
0,414011881242276
0,469937141744301
0,399108389265104
0,424057325733933
0,386861878765554
0,468446013453119
0,419719168071907
0,396139778273021
0,401904545425935
0,391642469621397
0,414810237654407
0,426054916727441
0,396223484016916
0,409383724043106
0,432206599177588
0,39403884643992
0,441558291479084
0,459945133754979
0,41742753611264
0,364091107895345
0,369872614153525
0,368472818765386
0,351689610906748
0,444136864737097
0,356416505874749
0,378850562574217
0,348328928514676
0,343912282946842
0,344104336762241
0,364844496017474
0,352794025493615
0,342750835821861
0,400231828976293
0,319614873390401
0,352916495986458
0,344175309121372
0,378151490902876
0,390099875795456
0,341813644418144
0,320828344483457
0,365644731047769
0,376266783352227
0,324726956937012
0,348947999024743
0,307301594801864
0,318978523212611
0,341190547420455
0,311268747461092
0,330179245435886
0,337804156164702
0,324646576750406
0,378942690165498
0,362129677389142
0,360007807403505
0,319582714029441
0,300293952367492
0,302358719786247
0,30443136655892
0,309802272879681
0,284918435409335
0,339848296582477
0,318901240555133
0,287608442388728
0,365548978224349
0,312391216531796
0,307228938437711
0,3108916904154
0,308156263070869
0,316164124185138
0,33885200392017
0,367132564031322
0,335403459328971
0,3335371639316
0,358548970962783
0,320769701471172
0,337218510816824
0,326600273626322
0,342066553129516
0,335415431695575
0,369682999512528
0,349116472598405
0,36037232465185
0,363014730313765
0,371104638271223
0,386063222726234
0,422847221003731
0,365840433151669
0,451997555595255
0,397922720022089
0,49640474695693
0,428248357560873
0,424042639755538
0,431858204953438
0,43276064827475
0,4419514600722
0,448242891178639
0,448678132317121
0,502980961405138
0,455498479604607
0,482687753608886
0,460316112285602
0,489174674907098
0,465035857255253
0,525515181988097
0,495936505891029
0,572086110945242
0,556182019701861
0,52007393127768
0,519349140653742
0,496665092073548
0,514436608889695
0,515501337525543
0,504203125661928
0,51473380563537
0,502180379620566
0,55537211914274
0,513208770621997
0,518941573356929
0,516571573577588
0,528332029158909
0,522493130148119
0,540083130921671
0,529053496279829
0,545183227603968
0,533092019278217
0,55268763765789
0,518408230451955
0,650988704160973
0,558608213347712
0,566860130271735
0,563431542665148
0,572127151692608
0,57024780851731
0,570332926011865
0,589118716269568
0,588148303660642
0,585765347638044
0,598759432769794
0,582751816086363
0,601108327976611
0,59119654239204
0,644209471670411
0,593326085831356
0,618845543450675
0,593040994851379
0,642617213434605
0,680566602377707
0,636955646355779
0,649336447782919
0,626124065308473
0,622280578406425
0,618979046221629
0,620907846693705
0,632745924634109
0,633907836587023
0,622594092594241
0,638549075321208
0,628966543491725
0,628390714950735
0,640535882921678
0,624212221948204
0,662871349382763
0,633077236478129
0,631190215862388
0,625569123119573
0,629753931230435
0,614256027534295
0,660220099661789
0,643295643472791
0,634623564082495
0,637074921669922
0,629874957713098
0,651337702601781
0,644754406076606
0,617325451243116
0,629531295448185
0,619791400578052
0,637380008534812
0,622074500429047
0,629896710807755
0,674857391594633
0,641682290994894
0,651514482156556
0,638362659880262
0,650125283243902
0,643727095586215
0,649205347460937
0,6511469023415
0,665413521605789
0,657413053297012
0,669637730705825
0,662405815487754
0,672650875911626
0,691451300146012
0,688052134930153
0,689342846086859
0,665423729287702
0,659130313229972
0,660677478537338
0,661588235274114
0,682141299138981
0,660198306092985
0,651289331785894
0,647357559738292
0,646656231833452
0,630554391164821
0,672789107534011
0,629564580191744
0,640300475205183
0,61989428691194
0,614648639249783
0,610822038927027
0,600728260660756
0,600489927480598
0,598009465009531
0,606534698373753
0,594162029376949
0,59558794728581
0,594951559532167
0,58841542532676
0,582101501078704
0,596613940792989
0,58827111505241
0,586092965571128
0,587301613477426
0,588434774021477
0,581147245968091
0,575748780553728
0,583253570358343
0,574183894469397
0,589360383020324
0,598518174693131
0,596572654593432
0,589571954307313
0,584403183993992
0,597233233962323
0,576695054447665
0,588014581942414
0,567295116717449
0,582206291913275
0,572181653483538
0,581944763011576
0,565382655594014
0,574722341133537
0,57094031450399
0,579207196595029
0,575992758682933
0,57191805116867
0,569784109370268
0,572243718285175
0,565204369300141
0,576398726625658
0,569378694209963
0,585971774824752
0,573924842313885
0,570487909990442
0,569664981117365
0,572810357113011
0,575955980940336
0,573043475324218
0,576067166673308
0,570828103585254
0,566968164631098
0,569473248192753
0,567562017115297
0,566209750441957
0,56082135747171
0,564764844498456
0,56123356695937
0,565249329137449
0,55772249011609
0,562247858224567
0,548041330968505
0,550210317126892
0,547955121108857
0,54375937229429
0,528140706335944
0,535963796860843
0,526472715560712
0,523102130228053
0,518428599762773
0,523694193896865
0,516170279392997
0,518938653934902
0,514213101237989
0,511352182370557
0,509921903697108
0,510732850357039
0,506937767640121
0,51048866100202
0,507387960403395
0,5065249445738
0,503630618931257
0,499222285110221
0,499468714710271
0,503058528689577
0,498673117424605
0,504183507374057
0,502638896753921
0,50449538577575
0,503737312965502
0,502705573283251
0,507544393232032
0,509771251977746
0,513837176669464
0,515608702763895
0,514434863077022
0,512815172501459
0,513984015807294
0,519370718299788
0,522238536373736
0,525060398378811
0,521026796060695
0,523867964854593
0,526818334949521
0,528042682412843
0,525609749264234
0,529643170949672
0,529919225882609
0,531623433854548
0,527467535046632
0,533801070369863
0,525266435636572
0,531749601781091
0,53087552958734
0,524921886183543
0,52529152432963
0,518622977589947
0,517235791941924
0,519311866228795
0,513096286188588
0,519711424235759
0,517774506289393
0,513961376011079
0,510872589354578
0,51081413927097
0,508536416430182
0,506584459283431
0,49830832088541
0,501087029112147
0,498935812144855
0,501284838093855
0,498315234676921
0,497823938817822
0,495900359577914
0,494030469845134
0,491184299661555
0,491157400980082
0,487812981327678
0,487251261745069
0,482576973289585
0,486554418868302
0,484673845555957
0,483193148759622
0,484141464647281
0,482138706863762
0,479365368733103
0,477981630396525
0,477376030634412
0,471965021800375
0,47204421805939
0,474173824065796
0,46607600162609
0,46050614085038
0,46039170397151
0,46058313664594
0,453211223028404
0,448497576855429
0,451030454959617
0,446977103837213
0,438837161204603
0,438428414347485
0,435702948953993
0,4352414103621
0,433216117108477
0,431404509581098
0,427341666812695
0,428712958100255
0,429461281530242
0,427817574443417
0,42762401175369
0,427114291273341
0,424878127035309
0,421639306794812
0,416919807589719
0,413354857755043
0,410157441108403
0,409764233537552
0,401205009370387
0,400894841947098
0,392674652170052
0,386475834921753
0,382991055515302
0,381887400218261
0,377227942659062
0,377916314542857
0,375584903903931
0,37956887415636
0,380832718409877
0,384462564551606
0,387062377792094
0,393882760462116
0,403268318771797
0,413844287881326
0,421473827677421
0,433424650879059
0,450335000892648
0,466324595145396
0,47808743992105
0,499112995341344
0,510174574565357
0,526752598902483
0,546277057613272
0,566508753473664
0,582781874112368
0,600716267329134
0,615623317688402
0,6355144551159
0,653152881504732
0,669283729749372
0,684177231454652
0,699930130113314
0,716914673046312
0,732984869377162
0,743916244508503
0,761413579611749
0,766284178996747
0,772974138035469
0,791528263661188
0,799034009938175
0,799509210073181
0,808586829209628
0,815204004911663
0,817074486470873
0,816252699858271
0,824729424790631
0,824245524054833
0,830595497753262
0,826818888000768
0,823860885878205
0,817359522853146
0,817941370017757
0,826123777681742
0,821615680824454
0,82292493463417
0,824963923194446
0,823254263138084
0,823717802634777
0,836125382690231
0,836241665905389
0,8459715012591
0,847957350053866
0,851435769720764
0,850212345642899
0,869084804374958
0,875787676582245
0,878573525950715
0,886571211398972
0,900157544493364
0,914244603492007
0,92659419359454
0,944747180151769
0,953666599475718
0,973343643506154
0,978078294860466
0,988521138876653
1,00777075784086
1,02495047640919
1,01514717470793
1,03150413502761
1,04385025397672
1,04399135785363
1,04278614230318
1,04383298008783
1,03147435986667
1,04661745505865
1,05698547076997
1,03351921998108
1,02375302703549
1,01611406089563
1,01003945075013
1,00384939668638
1,01778364216953
1,0215390887232
1,02651913201031
1,02859664346104
1,04154436804501
1,05091585904579
1,07990366436929
1,09374963439866
1,10962349048945
1,11622170653564
1,12984409883479
1,15361554091182
1,18528970040564
1,17205370872888
1,17636780612111
1,23179462746975
1,2329892301077
1,24458552918987
1,25440146186239
1,26228916676794
1,26639821237497
1,29849337342893
1,33816168400456
1,34757312670516
1,34999935905377
1,40283958724656
1,45038163081071
1,44016229996897
1,47308064314179
1,5201945989953
1,52781828564663
1,53658716398941
1,58142646422915
1,58153088792815
1,59849043501825
1,60023549214512
1,62975463641512
1,65159322208664
1,67808824998831
1,67017313052852
1,73753788090475
1,66281125762221
1,67319466412865
1,70996257500762
1,67643369987401
1,64827703911321
1,76477135716107
1,60843780550695
1,73315100285478
1,6128634908447
1,6547209870562
1,64809190088359
1,66712835709123
1,61540503668719
1,64714198395946
1,71976812125589
1,6864654541585
1,63251575128127
1,68401799853782
1,68689591926649
1,71947523816547
1,69297915095389
1,77063156654525
1,7577184592118
1,80980108652423
1,76018247064479
1,79482510438675
1,79171565295188
1,85451320110966
1,86907045357913
1,91933511873949
1,86340815431736
1,95413249983066
1,90492560324353
2,03691395408682
1,94611101458435
1,9055693565496
1,85491467850982
1,93129358203727
1,80661139806448
1,97388530960622
1,90216719440184
1,94503342221814
1,95197336694999
1,95184265204136
2,04945628961874
1,90182074692937
1,96342157659064
2,02013676829493
1,92138717942703
2,14182693878969
1,88698245991912
1,99741380738102
1,91453449813785
1,94610560366837
1,82482180396409
2,00106935389721
1,91038670961769
2,01398650073665
1,80951235007349
1,78902734608923
1,67468122497204
1,69212717008175
1,70304268292839
1,69283522641062
1,54880784178389
1,53670232728479
1,50685583826813
1,48272460381976
1,3732461437049
1,38615319351898
1,35272958130869
1,32606564520338
1,31445461409452
1,38421105032808
1,29434917355337
1,27778602049264
1,26957165391373
1,27311745710537
1,25632480916285
1,27490863763771
1,23176981160058
1,23286212049978
1,21182795612019
1,20179650730677
1,18006949270458
1,18642234800483
1,16732955625642
1,14560046625347
1,10701925793113
1,0953323744485
1,07620810629004
1,03092273424257
1,00486580219986
0,987331380726006
0,950277112592799
0,928471839115769
0,864572156295629
0,845532859897312
0,816775673827666
0,789151817874794
0,745703324661858
0,726373054543275
0,700329482421865
0,676709894433033
0,649266359117959
0,63050399007155
0,610611884210942
0,59577959917824
0,58314585284436
0,564119188636017
0,550068456075651
0,539421700640896
0,527296081415635
0,529856704858931
0,520465588806972
0,50918672200963
0,509399279939402
0,504749414173638
0,504434246388939
0,501265714949746
0,502444097228459
0,498066302948926
0,498968777117313
0,502766112534204
0,501967960248405
0,507352985351501
0,505288070619177
0,514199324808135
0,513004242955893
0,51606995253241
0,516027148998365
0,520673562323177
0,513845455925105
0,511314556832997
0,50135979619579
0,507004319898737
0,507628269779011
0,499008527249342
0,498808147015797
0,500133245879771
0,495452862783015
0,49595329476368
0,490725747133233
0,48616181979772
0,483858814951024
0,491642688550491
0,486174148541067
0,494954256426595
0,489684183978904
0,500413639390643
0,506428360562624
0,507760649307759
0,504513088223868
0,513806140410806
0,519639021657101
0,514627594655014
0,51755729539339
0,527563926120733
0,527782995690033
0,535735814941919
0,530328122785699
0,537185498601433
0,541345792403087
0,540463530018743
0,534251962595642
0,536697938312608
0,530180823864323
0,541555377284021
0,5456970669789
0,539545765199012
0,544462203020875
0,556708721885261
0,549023847447848
0,557478037265795
0,569181114627595
0,578640536176713
0,57832141863114
0,585352809672033
0,601563078766238
0,618892273087145
0,628724577462367
0,646812601018806
0,649731314679002
0,681697761709635
0,684070774669778
0,693993785700918
0,701764633049734
0,711800126704836
0,707913893356999
0,715843322656662
0,707060557716477
0,700879529538941
0,689699646020502
0,694833882153441
0,678309752125139
0,662855652987566
0,655919496962846
0,667814013357846
0,651547594329511
0,663129759830228
0,657509581844076
0,654650168968233
0,671502237778756
0,670051846973502
0,666417306112514
0,666136359636411
0,657208428177676
0,656616141956844
0,656729007730983
0,662925863359897
0,674881164880986
0,669954793331104
0,629938109680283
0,645691488817218
0,645121654023117
0,644057089481477
0,639345340521419
0,6380292359397
0,633861251832064
0,626603197871338
0,628921068689341
0,628738893074858
0,618738608932304
0,627883739918181
0,631999362123382
0,631669349865849
0,636479294257452
0,637506384215112
0,625460821806915
0,627689963667513
0,621551539466903
0,609897283074962
0,621299966938058
0,621672160484905
0,607137211121069
0,615361277858188
0,622847298160465
0,622966116105015
0,608979151582342
0,621429106222633
0,619749739430851
0,61408429706004
0,620900392925346
0,619532687352317
0,621010594324153
0,616241078770675
0,607653429003822
0,624514072753667
0,618014238270374
0,62072548524459
0,61687920787636
0,627199578444441
0,624097102835433
0,632300242187032
0,631165588213986
0,626774061946664
0,614014943305185
0,621428758380941
0,639315447382041
0,644159889804516
0,625619711108514
0,639043310856893
0,630869169943629
0,64913371732728
0,633312813222236
0,634403974198718
0,637092619048715
0,654691738746503
0,653298562620344
0,645620436158282
0,643055269097818
0,656637635214925
0,665300739527238
0,657541205496252
0,660926242259612
0,690993285766704
0,679113370843007
0,678440725385905
0,688057990044858
0,698121357655016
0,695328057751394
0,72811963232043
0,710441119335103
0,724638221286814
0,717191659780327
0,727688661332009
0,722791559106284
0,737170798426825
0,748314933683689
0,752951071905396
0,797951678273364
0,815595307276004
0,778189629765992
0,802669002252515
0,837173513574596
0,901412171493661
0,857995527157872
0,886917611337144
0,869015227363101
0,854960619609704
0,940825804665402
0,942831183389032
0,90811360505401
0,914096370889808
0,923449737583479
1,00092237206415
0,964487060221544
0,987891499043068
0,950400704214634
0,910833462837911
0,977615411251159
1,00911580512377
0,952434858650697
0,996018655122642
0,981471026460743
0,974769009343706
1,00947279777562
1,00653094727415
0,9393582550577
0,973687102640321
0,981423898609262
0,986775383843145
1,02299999843174
0,963097363385311
0,879271366049993
1,01710348355399
1,04526918463327
0,979230445549828
0,937921714750798
0,986212765213553
0,999140622291599
1,03683099793228
0,976018335079264
0,963803610882773
0,896263926836731
0,896504290244703
0,975592186466317
0,921353106607153
0,932316163164298
0,98310428413292
0,888795007766057
0,861725148444171
0,86638249437922
0,911488463285987
0,964748710920823
1,00922346844214
0,978030596311657
0,932082084343152
0,923150495329698
0,929018433057434
0,969086280093381
0,973871255309472
0,949781083287559
0,981949995124921
1,01902143219179
1,00790993001548
0,906477126829793
0,929533909777485
0,989555138341512
1,02524118591303
0,963554980944425
0,951723329822856
0,985747952675729
1,04503297586544
0,946224837190985
0,972010289289278
1,01758793090013
1,09769501435165
1,0378725919039
1,01468464501607
1,14829955224244
1,08309114983522
0,958667228290217
1,01302835166982
1,1830418278044
1,04283755834447
0,974480302929456
1,0348390720174
1,03769418580097
1,10684641358457
1,33080772406112
1,24998901175831
1,1685214631704
1,12136096295463
1,25409274755563
1,07118573303034
1,12139833041484
1,41139133971871
1,20584841527623
1,24646204517166
1,28434772817783
1,31789279795149
1,438077759846
1,12595719095265
1,31141738946681
1,30760092339742
1,69441251376477
1,3444442834248
0,930807471555294
1,02177210707075
1,16360693915314
1,30295681845836
0,990982764412572
1,02393899581158
1,06240776710197
1,28139609833522
1,33483713306127
1,02809252807762
1,03105909993282
1,02139161963605
1,3755176814707
1,11573897437602
1,25507145238681
1,1653962573789
0,94942308995133
1,05325506746916
1,17010412724347
1,52822604934219
5
1,01832939609281
2,07638907823549
5
1,43261366981631
2,86182284498997
1,33492738050865
0,944691513714687
0,926300440482716
0,747082208120778
5
1,86945936121258
1,24386398638989
5
5
2,0021118689266
1,14081996743041
1,17672228307651
2,2643096479952
1,00014294725218
0,993769789221521
5
1,00850386959844
1,04015607501881
1,17543991708865
1,06602601091666
1,02412339612887
5
1,00121713957329
0,942132705363691
0,891921952177684
