3596
4000,36533379555
650,420452594757
1
2
2
0,071538158519265
0,073319981363148
0,071504542613901
0,0768249300724729
0,073769122378711
0,0783607133014476
0,0647614569381957
0,0696586389017426
0,0698244630097443
0,0748764484926839
0,0710201103754814
0,074828894303668
0,0742128726314119
0,0751337121334231
0,0702517239450847
0,0764193831267261
0,0640181062544428
0,0726113789577274
0,067599471157881
0,0625414340930301
0,0627559095959646
0,0790753790705488
0,0616065354669662
0,0731292250393853
0,0727907065296562
0,0675608585159076
0,0743651093816673
0,0768091732086383
0,0686296468597285
0,0803977854849637
0,0711489701448725
0,0793779410192815
0,0723732009484364
0,0748192706227819
0,0692093811474343
0,0648272126258558
0,0681357590688175
0,0762009043798587
0,069448103206023
0,0735692081483872
0,0757842188559347
0,0690973687781752
0,0674708054578691
0,0670582756406933
0,0689637940710058
0,0725925183579796
0,0694086092617507
0,0714380948230407
0,0668880743199938
0,0784808202073653
0,0699863361727001
0,0619989789933779
0,076718620068926
0,0871039769940373
0,0730964851823023
0,0848859719626392
0,076812369641771
0,0726718958255951
0,0697117929645767
0,0758683824216287
0,0834704750703002
0,0786314152788734
0,0654464387229801
0,0726126171509267
0,0684488254291262
0,0708612688169735
0,0650554549909412
0,0716369759782648
0,062705512339271
0,0651243911518637
0,0638438374815764
0,0840869911638908
0,0835049529205914
0,0825387049857951
0,0767424363639361
0,0721326606462753
0,0666793303081053
0,0666395974570293
0,0662239795060714
0,0803422841271751
0,0788044434092421
0,0802808014746757
0,0723826517831076
0,0650751937134905
0,0655506154864938
0,0849657095295313
0,0644724384176936
0,0755123353522946
0,0824368532321246
0,0693406394938147
0,06623445798021
0,0688787770147032
0,0632991117211189
0,0691496542853132
0,0597207388944986
0,0654377886894301
0,0619878678792264
0,0721026462444453
0,0630083052480516
0,0694034336163074
0,0658358472287233
0,0833047911301924
0,10995790366395
0,0754973641666028
0,116292773200074
0,0800538755587837
0,0672011686420406
0,107286504690587
0,0801327096304073
0,0729293645386855
0,0643103140199045
0,0685328393658752
0,0596359300570237
0,0780925931490834
0,0607441777993149
0,0995367425367252
0,0981531973720954
0,0694202645903067
0,0608126833475409
0,0678360258635116
0,0516669189127443
0,0972320511973918
0,101318216815512
0,0728805479551051
0,0755924393055292
0,0714694132484663
0,058143929386809
0,101617216153631
0,0893920466388689
0,0628756151892022
0,0669622313609556
0,062266528796828
0,0599200491158084
0,063549612095142
0,106208347370936
0,0768411845681442
0,0655825322673176
0,0591531075390211
0,0882017580190208
0,132975532562825
0,0802597211822761
0,0707640331324081
0,0521244482917014
0,0733402446409661
0,108955488293364
0,0771840065258276
0,0635448827403508
0,0971931521988386
0,0849046685906596
0,0647229926052007
0,0609750495743022
0,0600071069969098
0,0833235889595499
0,0790876072399489
0,0414781756989475
0,121385012805174
0,12013357830325
0,0821578327714432
0,12872633182349
0,072439463639631
0,0778822894196579
0,0693481738234732
0,0658714357390902
0,0629055747489261
0,0689376354837375
0,057512786352857
0,0785447592378266
0,0995987999849088
0,0586670871952515
0,0695751305111985
0,100618193431645
0,0812705151512573
0,052466332110543
0,114944071141894
0,080190320063258
0,0617408803195147
0,0922592668452045
0,0785990412027702
0,0524051745399477
0,0723802004772827
0,0895103988456377
0,066457166972677
0,0685471295603406
0,0644837772636214
0,0697238457839259
0,0862700875535526
0,0706975676570189
0,0721082946002526
0,0653653159000779
0,0592949533420371
0,0831506461424129
0,110189063048629
0,100126807443869
0,0730042499055413
0,0692567036638514
0,0498637878334206
0,0964099666045594
0,0965690905055348
0,0610218594495472
0,0588967874485353
0,0572040149931308
0,0631829520227937
0,0573944885142287
0,066556687725875
0,0611289785067422
0,050811548917728
0,102685385350215
0,0898082113722854
0,0646187807716806
0,0586710850906953
0,0703030569510268
0,0638938880651237
0,0975979594881154
0,104252901206734
0,0790991542613774
0,0714298131436197
0,0618222216860929
0,0883731681651704
0,0792809609310564
0,0600549814945463
0,0623523918445415
0,0665498886699192
0,063760372391747
0,0577805109951229
0,0581037815169892
0,0629491242357857
0,0618038751589417
0,0616356570010127
0,0617918836620881
0,0656220196861514
0,0743860326225172
0,0645547910192943
0,0614793591265471
0,0635014433638432
0,0627297044160943
0,079912752608355
0,0785889569259064
0,0691244403012184
0,0671102473099906
0,060495315560641
0,0606517099478713
0,0636350200391849
0,0582158806087121
0,0590960587864898
0,0618443485297216
0,0586673971696367
0,0963884183578346
0,0746591744467277
0,0619190738765778
0,0577982748333299
0,0842420747841238
0,0791590847716147
0,0596094831292092
0,0645452817654205
0,0647998244843312
0,0613478940531785
0,0729645663541795
0,104014793378017
0,0790989786247481
0,0693760709840328
0,0770287503709517
0,0675045097554366
0,0646003544698139
0,0612481843940154
0,066887512250219
0,139164163408386
0,0853079017627534
0,0708195941613003
0,131732365306173
0,0988961259598743
0,0885781528530162
0,0763471541169418
0,0504662049689705
0,155336439445886
0,127010646458717
0,0740070462578336
0,0764768223180616
0,0849943006776681
0,0703696263398066
0,0741215318992079
0,0709638605014229
0,0863824702919617
0,104366767871039
0,132996894346492
0,126547875532695
0,0638183866839115
0,0981066950025494
0,103260736774939
0,0727945661083804
0,0728886961001984
0,0745987142221674
0,0776766904992308
0,08747911759806
0,0886275262614694
0,0865066436838566
0,0791471668306498
0,0801216604554797
0,107738811546737
0,0812938693172385
0,0637623795306999
0,0846041044330189
0,0909058213342935
0,0726687522148586
0,0712124728577106
0,0697916324363815
0,0830876554004545
0,0700635273469793
0,0787038374851315
0,121961029638269
0,0937744583098168
0,0848367990302078
0,100981758937946
0,0819476120779829
0,0729557190113526
0,0762413847661622
0,0745030048317942
0,0776469857462952
0,0732574246764718
0,0789585222287693
0,112102667643938
0,0829994117756581
0,0746784786445472
0,0794634212190385
0,0755581547494751
0,0773365686124967
0,080466512270452
0,0811834106214197
0,0807716513431811
0,0817556687173224
0,0767825206886174
0,103675452738506
0,103617609230269
0,0824457457449035
0,123389418197523
0,116090795707999
0,0914536903508564
0,0875839953607151
0,0845255967309869
0,0885970981041744
0,0865842545683716
0,0894020516870119
0,0846912722414658
0,0907061715135437
0,11500838525126
0,0997237959949158
0,0907256624730318
0,102746759584972
0,154806272538714
0,152129245907683
0,107167185909216
0,0938108626278608
0,0932027093675805
0,134533220861991
0,125034647550913
0,125299069220571
0,129731853858038
0,107904500320673
0,108973275956086
0,0977607495799625
0,10351739789508
0,108181949942395
0,115027712918351
0,11421622721836
0,111742909243852
0,117451646876044
0,119424379985784
0,112837317588767
0,125978463454139
0,159810790654673
0,136647202892752
0,126576404503866
0,125995153165586
0,126861392507804
0,161655139003189
0,178714160460324
0,177467237053363
0,163831422744567
0,170929051435257
0,176117215224006
0,154822296131101
0,146811968264906
0,142011134876369
0,150981627701257
0,14995333453687
0,150307801704987
0,153551143790489
0,155292091340669
0,171329376374627
0,171352197858861
0,166577254781618
0,164478548861935
0,175236368086428
0,194332586533955
0,176628719782569
0,172438417142939
0,170926507085396
0,193176574591948
0,250328864715921
0,228633428674069
0,190971203205104
0,184060946899678
0,186890711241455
0,184448014034968
0,189245561065228
0,198218491117231
0,198729577013435
0,209571311061206
0,246717945743291
0,238210777461733
0,233182242053532
0,219399904840869
0,207437678787093
0,232372737355347
0,230874084202444
0,24026488496738
0,255053114623257
0,232078835568645
0,224070887055647
0,264794380885076
0,257841726857303
0,25705880915386
0,267890084634677
0,249136190077057
0,233763154747126
0,24850312542157
0,249477007772425
0,256787797185467
0,275077422371312
0,26031998558591
0,264707751138592
0,272505855960885
0,272456676168503
0,282382915635739
0,29162251820858
0,278598803534542
0,280474055137748
0,29330136300721
0,294400338839458
0,297643069798988
0,290411272986086
0,321314791693444
0,33045046812345
0,342586376506029
0,330665263905966
0,31526831501353
0,309840572736714
0,303737439972232
0,318550318469745
0,327273843600209
0,334263106477045
0,33947207277434
0,339034372655104
0,331319475222161
0,344404441014713
0,348052374286197
0,343223196840077
0,354711913751269
0,346899543561425
0,354830381182832
0,359340084304881
0,36678808561596
0,373410170885879
0,405827324763934
0,417661704451685
0,423694995663301
0,394170090872551
0,378216566061279
0,388579029681277
0,403254373561553
0,379232311007457
0,395363866699381
0,41114978544712
0,40653384439187
0,39863138511814
0,40764036734279
0,416191282400751
0,425936381410621
0,432605163598332
0,445947580353865
0,450855260019517
0,459101015714991
0,444805340633458
0,460254028439129
0,446996882767301
0,452276256796833
0,480494818078739
0,473047505775399
0,46681506675293
0,482532594069937
0,46121995184046
0,459505118375574
0,472971488784164
0,498034402779366
0,492728584314363
0,490918936593004
0,499029044247347
0,522323614777451
0,535603590450167
0,522894769850883
0,514152808309951
0,544889375993428
0,528210867120515
0,512208095566837
0,519601513001845
0,556894159073195
0,557001276334497
0,574431363158841
0,54052310051303
0,564352559882132
0,559713773475556
0,564776009626292
0,602395127791243
0,623545169271854
0,562657129608116
0,58006189343043
0,601998629400587
0,585076795276509
0,584679645801152
0,594869222386282
0,621430098251697
0,607429412488893
0,599394674016687
0,635548231835839
0,616518533809371
0,616597715732773
0,620811662822316
0,649619934194013
0,632353178583061
0,634404344067158
0,66677424903689
0,66718602103194
0,662088351886891
0,663088752886895
0,648045470280158
0,682432724545892
0,668188788049859
0,693929763392057
0,700965954422058
0,702452917694879
0,692052853508545
0,717519953671779
0,683984159352583
0,703110878220756
0,69726458333954
0,687505889744362
0,72731124694828
0,729852161839532
0,726184857609179
0,710769267035909
0,733991969361878
0,760113032021438
0,719195859064645
0,774153101576714
0,752886830261812
0,761166014783636
0,795146460619744
0,800740026319191
0,747609354854382
0,765186049065095
0,783775590902147
0,842306110597734
0,771483662155577
0,78686866227978
0,786464714178741
0,796732177896864
0,78175247172756
0,809290448693028
0,820755678716116
0,820512713162229
0,81546863328432
0,882480380607513
0,783122316739266
0,810702811911197
0,847129560754723
0,847730188732284
0,86754480234831
0,868868782840991
0,854293802560461
0,864444861962255
0,862018108583125
0,883252198088964
0,860760481233269
0,874059161391644
0,874775352699633
0,905475898404673
0,865262500370132
0,903148638032327
0,89866833131659
0,941959235044242
0,909447849558914
0,933228235978075
0,914079426754554
0,940818743318219
0,906764150419105
0,926372739355814
0,955580609112257
0,961571162610167
0,9251429488161
0,973551456852254
0,958648715988346
0,952923217614121
0,956806930792539
0,984032034681417
0,941073255715968
0,944840890764522
0,924864600750476
0,965165954838313
0,98021041593273
1,03018946816194
0,937808880886351
0,969367966753082
1,02519665207627
1,08903156124177
1,01475474886933
1,05613436837602
1,02586377507707
1,02673094682628
0,971395326730664
1,06652805918597
1,04752883262177
1,03938409561411
1,04309019794485
1,05904927479281
0,989991550956948
1,02788194108627
1,06956270444357
1,06904307901966
0,979217120116395
1,06949165954979
1,00352005827427
1,04921001441462
1,01451043999438
1,04511094052654
1,01625340683131
1,10266582935626
1,05665212830217
1,12894750604002
1,11254597020732
1,13802432644169
1,07129525938919
1,17214601985049
1,09146445786561
1,13511076859082
1,12463965593719
1,15546930341008
1,1041057166485
1,17281467380742
1,07303138583208
1,06780100860773
1,08620757147558
1,12774447110934
1,05819970166492
1,1303603658307
1,12072307746523
1,22456606401842
1,15182741027138
1,24774606691691
1,12050090857633
1,20683153822233
1,23012111977049
1,25016778622623
1,1616207498684
1,14221155469737
1,10336216495536
1,19563188642152
1,17514651004549
1,15918032414506
1,09634079136985
1,21419525560462
1,15400617992682
1,22171390368623
1,14276830343853
1,26327879665074
1,17150662820869
1,14661081889484
1,20078942300221
1,21106114240198
1,20576613148714
1,17180060983306
1,15489282496924
1,32888001288976
1,1932132802819
1,21268493934701
1,18271177297804
1,28256548867891
1,17424484062636
1,22099897399951
1,17361719567414
1,21487381101364
1,22302380289382
1,2855946096563
1,27071287474039
1,28032811816598
1,15221144538111
1,22687005612219
1,20146216277302
1,23876592102876
1,2262363592787
1,20434115084902
1,23490879261088
1,26515204440659
1,18785814707828
1,30703481435213
1,21973946443625
1,29387857114016
1,22101813236548
1,22520327891812
1,27919953428564
1,22952457634159
1,12973506674391
1,26836408356612
1,20879089192028
1,27497440623911
1,25478741225882
1,29213953260572
1,22453714596083
1,18453288583718
1,16535975790121
1,31626409668225
1,22687802854283
1,27003158183593
1,24410455166371
1,22632198376695
1,20044677471741
1,41864352340946
1,22334035626027
1,20141438135753
1,17990371427403
1,34424578352709
1,23477775524936
1,30721704414581
1,23385716780217
1,35191337895751
1,23746227701034
1,26876943761261
1,24988188052276
1,31837979420634
1,22958647767742
1,20719412570917
1,23999379495183
1,28426932942167
1,20471113478788
1,29393655838786
1,19881604051042
1,2038263036664
1,21223204283828
1,24326971653181
1,21580632215933
1,26949778414041
1,20456224839811
1,32271002511336
1,27853274156413
1,38799775157427
1,23884269428663
1,26839560353406
1,25716455182472
1,2884702976764
1,21756149433652
1,35328121833245
1,21194859803213
1,24934977658075
1,228030972965
1,24447854113785
1,23881202940597
1,21205694429091
1,23922944028432
1,28875152885265
1,25200386129634
1,242524270928
1,19137688166433
1,27689648982331
1,19088510870144
1,25158725596503
1,24166680626126
1,29099213172673
1,18020181356617
1,28599155180336
1,23283818680873
1,23716330427366
1,15371948902224
1,2432403528158
1,22730773351274
1,28703386907065
1,26581321222886
1,22833837385703
1,20895303715915
1,30571420754323
1,22882041373565
1,26507216459608
1,13398828997333
1,18585574669986
1,20450649856043
1,20979672040856
1,17974626086322
1,18580029659288
1,18975315820193
1,23845555909398
1,19902969784893
1,23109759752781
1,18151952786149
1,16587074277621
1,24029645027058
1,30231845976849
1,19179085762309
1,17475848852689
1,1949231453058
1,21212889909911
1,15487930390114
1,20569291732729
1,18260148406128
1,21105444211243
1,14229950128826
1,20244110325165
1,16055049418254
1,20073256982575
1,18259344668412
1,17588337370759
1,14483084810152
1,25379311780683
1,11636950562977
1,14607496145378
1,14024161664258
1,13670656878388
1,17292744110477
1,21156542528591
1,13985740168981
1,1793453198569
1,15624261744513
1,13732463935239
1,15678017761229
1,17377437453978
1,13410143362095
1,15721564004004
1,13387745647068
1,14267546666902
1,08202040539918
1,18765673018264
1,09217050882226
1,18201775895346
1,08569399391945
1,11226336585204
1,10337760843209
1,1161864310111
1,07547758337528
1,12955438175573
1,04086288265072
1,08742702955261
1,08485745169314
1,12305424841282
1,09537616464068
1,08223454413687
1,09595016074409
1,07102737111525
1,02106373323689
1,07890993501468
1,062236015226
1,08546408148145
1,07746273017379
1,07202179286645
1,05884740002784
1,06137494673982
1,03050687510605
1,02416749069032
1,04126980685663
1,03492869528123
1,01776767619484
1,04280634554729
0,996591371029939
1,05512240871806
1,01038107326392
1,01638668751984
0,993489744761011
1,03976153046973
0,967587264445213
1,01058671258881
0,951774893224667
1,00531589658736
0,967241362831398
0,991418850863771
1,0170271889907
0,939695061344515
0,952091307659687
0,956035300229368
0,951901476572322
0,999553170507672
0,96136937241844
0,94207217335384
0,951131338329772
0,96298781367708
0,928511726289099
0,92074885783987
0,909174758714306
0,953079578542247
0,938567764865331
0,900553738449668
0,909878856401225
0,931120405913511
0,878749139729391
0,91429874845056
0,89195335492073
0,89794991095562
0,909148345092213
0,879377939619776
0,871391749629577
0,86976550866705
0,872796041195186
0,882273025618379
0,865957235730598
0,875168679584005
0,858441841827962
0,879787131677177
0,846884107716863
0,835944189374158
0,84568745932299
0,858895492067268
0,804605825169739
0,856938887900267
0,828343616124794
0,825564137829847
0,793075143732763
0,823782824766825
0,781027795300004
0,80056816778082
0,819546767514772
0,809778628850322
0,79155292389425
0,802656845873489
0,777907121047368
0,778885891848374
0,785963565339945
0,793990421765962
0,78455807617865
0,772409907532897
0,752471468796221
0,76922284411921
0,749600548577321
0,761388260284823
0,742040974508926
0,774562906476667
0,764076015116557
0,753125419990706
0,733832619715785
0,731942305783833
0,74640250403786
0,741295060431738
0,733206018400978
0,710920400613901
0,700566334236908
0,705765063774895
0,702551824704064
0,72063636966799
0,69357800979786
0,708520643203811
0,688660871298556
0,693668736387785
0,690648685125727
0,683953859792311
0,67737977000707
0,673525722824635
0,679042081814115
0,683162172552984
0,674527305693816
0,677998011217751
0,666160540960639
0,676683972387913
0,66228234517502
0,659863078339788
0,646154353278831
0,659009868926341
0,646197139678814
0,665938962828118
0,636945534460945
0,638304601601111
0,633416295568991
0,635415842535297
0,62916400488373
0,628190793957257
0,620755001686633
0,619981705610706
0,60962404035703
0,614515167032113
0,603473122444159
0,6019087153672
0,596304908609004
0,613419966492564
0,588194678497016
0,600652284227538
0,579299442859453
0,585932320737279
0,572181026358125
0,596259662966089
0,573146237250067
0,583425843569123
0,56709337119846
0,565431001884406
0,567561193167409
0,571105665109817
0,572291468690836
0,563826528632029
0,554166112923033
0,560207056761737
0,550196091252188
0,56406986681543
0,542404505773145
0,559015025147886
0,535886236666886
0,546612063627414
0,534354692803575
0,541638185324786
0,539506719116271
0,534050096735533
0,526279687132946
0,526393134556754
0,52572484069978
0,527319909216131
0,511309626094389
0,506971747112603
0,504702555246153
0,518285461353537
0,505505528913061
0,514186654380688
0,504403712671122
0,495419605329632
0,502848218237949
0,496252579334688
0,497336263572773
0,494864119455035
0,486604893736791
0,481308753998124
0,486858541001081
0,490097980898692
0,469915069774195
0,46930976710304
0,46186000154065
0,463816033220662
0,45771560011842
0,475898006689336
0,470123613223113
0,467677131797416
0,452381331326802
0,459479168180164
0,459316760409029
0,456857139054445
0,448787679646873
0,454187590406592
0,445202939069229
0,446409546913607
0,44832593158157
0,440500807284435
0,439579381847508
0,444353776176344
0,429655481521255
0,436201621663845
0,430507658560069
0,437860373160907
0,419900922026427
0,426150216942164
0,418417744983211
0,422992112894791
0,414930541198077
0,420273681412094
0,414373835790427
0,41780115966305
0,415388188914922
0,416818243659428
0,406802166930487
0,413886606129421
0,401079835997964
0,415034255477893
0,39670302133415
0,40783594992214
0,399235326834214
0,402701609614661
0,397457867483038
0,400946478701277
0,404862896688796
0,394869282736227
0,393900693979652
0,404262823681087
0,389424012186012
0,392736155190198
0,396254645564142
0,400006984339079
0,388000323277133
0,406661394845139
0,388715034155739
0,401202517071206
0,391321949246319
0,401182531455173
0,395949783339991
0,407160171633509
0,395546672126531
0,404080521661323
0,39599918692428
0,39681732413285
0,403508770741384
0,405672208814587
0,394420931518114
0,408243426937782
0,408656987740224
0,415496996543515
0,408173681919481
0,41031884197554
0,406914637778536
0,416693598487028
0,409103255370957
0,419125254382808
0,422891782972267
0,419214901417623
0,417404091170946
0,431643999786021
0,421374754280278
0,423246915411038
0,42584913785426
0,438605415790592
0,424263270368547
0,439225996507423
0,426294873847625
0,43506770947458
0,434480921613333
0,438626309102488
0,43730900670602
0,450342623174085
0,453353379819572
0,45212784869195
0,444089036213225
0,454466449291917
0,452847697063446
0,462590554472602
0,458413551732925
0,46503948229243
0,464497662969915
0,471058748758556
0,470302566712621
0,485973901395536
0,474846642644714
0,487715939127833
0,487312562644242
0,494445088350874
0,479651809933777
0,502162399281133
0,494825143155336
0,50006811675734
0,494019234811354
0,511876596030191
0,504521543923368
0,506545300268269
0,508385509828999
0,503694740676066
0,511670222717098
0,525412503934976
0,505579887270641
0,519656319106219
0,501520824596704
0,507199132885653
0,501733063459061
0,51657652231835
0,510507338139127
0,509552026129993
0,506081479924906
0,501651242268768
0,505933002745291
0,507942018530391
0,48716149405284
0,502787176952982
0,501976511284376
0,501816284824986
0,501986592856554
0,502556814418459
0,505080544998463
0,51772580169933
0,498768814796648
0,511529338211593
0,501537590067613
0,512482700277431
0,492213743547845
0,508531995822121
0,504944821530558
0,50976770831308
0,494381099789766
0,50713575252455
0,510422174607673
0,511161323717533
0,519619930044203
0,514281503054713
0,495606974853213
0,512371689108497
0,50425261324595
0,519147974074244
0,506141682452916
0,514460869770905
0,506228632263174
0,524075888690927
0,495284627579588
0,515743799626726
0,50984051279221
0,506148909861634
0,504984057692309
0,509505211195972
0,500630844938628
0,522810049831046
0,500124783881002
0,504866956905621
0,49842131830144
0,506177990130854
0,49935103014403
0,502084774538573
0,48924548458701
0,503049573782503
0,498381705977903
0,493143184445522
0,492675056032121
0,487754747053819
0,483665284738068
0,481811537491119
0,484612439143438
0,471232171511659
0,473409673841933
0,471089416635233
0,466231503231466
0,459258165038995
0,459389708761773
0,45466562367969
0,455004361253448
0,457589723736176
0,438802735003726
0,450839130360375
0,431628240002156
0,437384885873851
0,439484573859606
0,437761716530473
0,423704276142984
0,425123473243489
0,417945290778061
0,421546491699696
0,410565656213849
0,4136392070367
0,40579253840307
0,408910622809782
0,397744397261332
0,413288667212017
0,400578089037243
0,39605432011592
0,391736138752722
0,396148791459198
0,387144555283185
0,391323429045062
0,392424213363702
0,394214286845423
0,376629033363847
0,381338653102494
0,374074380065923
0,375480835729841
0,3728881101999
0,370396937048743
0,366679507709513
0,367321835881968
0,357371408710566
0,35743647552278
0,362651563208578
0,361960411018785
0,356612003214662
0,35638163608712
0,351093066268466
0,355104307668739
0,350360007157046
0,348476615069531
0,345502906840968
0,348236968807887
0,344643283513852
0,347528685476077
0,337784895945347
0,334203907574333
0,336233504906306
0,341822509587652
0,335445157111114
0,334025165124685
0,333424439961315
0,334859489136689
0,326100653176521
0,334618375651558
0,32622804895234
0,33100060088111
0,318658283253889
0,327649141259152
0,318264187460611
0,322833601598745
0,316186950492169
0,316574445194788
0,307826667375889
0,317056023063213
0,311372194762139
0,314375699610476
0,312993587765482
0,312726700356247
0,309030553039455
0,313984218381872
0,301900804246943
0,301315262026498
0,300605676102752
0,308201993965041
0,298647385322348
0,302368274443693
0,299391029065336
0,304645513002727
0,299801019678104
0,299674161160229
0,294674325909941
0,295227485421245
0,293534130435141
0,292004891298849
0,287614189951938
0,293885335829124
0,290625672996336
0,290929032737519
0,283395724743681
0,292789988683126
0,286616588201814
0,284683284062503
0,284323122961053
0,28687300905681
0,282740517937593
0,281360649022123
0,27623206364723
0,280686672112954
0,278124574090189
0,278214370108791
0,273167609759509
0,282046012864631
0,277224878063675
0,27941750551545
0,276992281095667
0,277309231798727
0,272979596034664
0,273908536571473
0,269206110935296
0,272394372819843
0,27168142247958
0,270139580815587
0,268221279123856
0,271810439255977
0,266814233234994
0,272715442147293
0,26936147859401
0,266820599597106
0,260236814248864
0,268928895925277
0,267321824979118
0,259747370176111
0,265225188940932
0,26459198372116
0,263388348535645
0,264797189199686
0,259475198534484
0,266441997494379
0,260475081968975
0,261943979075834
0,260202363101783
0,261122564587336
0,25750518130983
0,259732405898773
0,257097437541116
0,260694464645253
0,255843188253534
0,258008443190908
0,25821579488357
0,260821914960563
0,256285009238911
0,256879915431978
0,250781445735589
0,254821663931528
0,250895770407986
0,254603588994568
0,258760514341235
0,254192347529233
0,255465296725342
0,25200616126008
0,246259718801275
0,248376722502689
0,248139447966966
0,254501497229704
0,247495091649302
0,243133857866007
0,247607590274433
0,250643313867476
0,246233831994496
0,244739630484462
0,245990165467889
0,245978205106883
0,242593826984176
0,242462388092132
0,241430958390248
0,247945149116391
0,241143494836275
0,238917886247973
0,239915260862329
0,242876465477389
0,242506180167024
0,236556391766104
0,23660738804538
0,236624912412176
0,235572508028659
0,236857550781388
0,234140295581155
0,229967171146124
0,237388153391844
0,231741719086249
0,230650393595043
0,230978786105086
0,226887898027331
0,230992972163288
0,226900201143137
0,228666477032707
0,227623800282677
0,226984586823337
0,223707325717127
0,22324075367636
0,224411614345215
0,228775464384114
0,223168144339775
0,224234655533812
0,220860996748385
0,217893537906823
0,218350056049543
0,223093390594594
0,214273944181059
0,218583334828649
0,216067298223724
0,21339162211409
0,216938653264925
0,214168336519289
0,212792652911694
0,216078065646446
0,210540046249091
0,209662513775267
0,2085928169506
0,207196444341662
0,211303447478126
0,209426244904644
0,206887687102586
0,208892150637245
0,205382543437318
0,207743735235338
0,202899829026378
0,205545405528375
0,200443742189586
0,198819557346944
0,198917131030986
0,199923742708202
0,193581062750642
0,198976623729046
0,194989895025514
0,196957135500813
0,195158048987213
0,19327381443858
0,191741160752903
0,190874666914405
0,191355668757905
0,191482301942497
0,184354575268087
0,18915878733916
0,18803499665745
0,182803252909702
0,184781325271
0,186061733915208
0,183892548150281
0,182700036224042
0,181715646564152
0,17994712033788
0,179864957434758
0,180003973585003
0,175998556747146
0,178850747947678
0,176257180311947
0,177459719072334
0,175700357234165
0,174677659709655
0,178710837365031
0,175848424123313
0,170293799341264
0,174268838078023
0,172254372597574
0,172859147846417
0,171280376054184
0,168076738742837
0,168486741142199
0,170068249870102
0,164842159825549
0,165035203889423
0,171324413645847
0,170042410166622
0,167351179974682
0,165069746812053
0,161042410532772
0,162413323982146
0,164016255603273
0,161182202544833
0,162249033871257
0,162512863651473
0,158957503471472
0,158601206912113
0,159971542612139
0,162132266346315
0,15655402180534
0,158407506106035
0,159048292070855
0,158473921922728
0,156759545061056
0,153277249539282
0,1542125232869
0,156934046254278
0,154820105802277
0,155933320076811
0,156258974921164
0,15510121969002
0,150714212183153
0,153195438420652
0,150329932840515
0,151169180720212
0,152357631320179
0,1508002766084
0,149878109358752
0,146984828249507
0,145604941867786
0,146847187107212
0,146781059614458
0,14729663359456
0,145949248714779
0,150451885304068
0,147997742216288
0,1437959546068
0,150609108968965
0,145897584690474
0,147590656700407
0,146565766728504
0,143013296573583
0,144269362929495
0,143001236864347
0,145166223893206
0,145149455408337
0,142067769370348
0,144503468636565
0,142850529468346
0,140701910878265
0,143241363045581
0,141856778967988
0,139696917170087
0,142682302068859
0,140449370187326
0,13750777424603
0,139362978799764
0,141538861229409
0,138942763478333
0,140501900740776
0,136575356058808
0,139818244485751
0,140638846750694
0,141256650686402
0,13932145937213
0,136903960055209
0,136454872148418
0,135944806791149
0,137538312399743
0,136555938230894
0,135188314640675
0,132572694311197
0,136726054439237
0,133578180002645
0,134584559650043
0,136860391770141
0,133506853116479
0,134329338928101
0,132516066783442
0,132875016359856
0,132087756865586
0,132493872009515
0,133405119435272
0,131668610037848
0,133803586701947
0,133117845996315
0,130607184636396
0,129291352055186
0,128811411219785
0,132195395031038
0,127558001730345
0,130344125710003
0,127221710346709
0,12576752577267
0,126762159515787
0,129515290490642
0,130744168757799
0,126272093387997
0,125962317684638
0,126802396637022
0,126181601987034
0,125189994768093
0,127059304917333
0,128601259718338
0,126418195221047
0,126342482020582
0,126170761972239
0,126633300730491
0,125272092860494
0,125546670067632
0,125054695208143
0,12411720732895
0,121017206445451
0,122700872211902
0,12332636121747
0,123058090652952
0,121855467457628
0,12211765979043
0,121280914753507
0,123850837943321
0,121527468161556
0,121728498999482
0,120466755683476
0,12403225663966
0,121803728866833
0,120383068506906
0,122315140733939
0,120468960470059
0,116030742879661
0,118400116099249
0,118846132054578
0,117940929831445
0,11637804819953
0,11579367465036
0,114646449847545
0,116632555603536
0,116771506205156
0,114624040176108
0,114269357397643
0,112418994721
0,115853616141506
0,116706710899629
0,112417196561351
0,11380485592265
0,115530716578458
0,111997935873906
0,110678733926308
0,111579998650509
0,10986595591013
0,111580885939936
0,108599907800407
0,1064678837234
0,107791910423715
0,11071485823445
0,108801720594533
0,108783800864209
0,107288198238753
0,111180307383029
0,10620900248442
0,103933702892381
0,104703719035278
0,106229493411528
0,104272602526533
0,10251121007243
0,102307044592768
0,104745642319825
0,103471714766903
0,103269867568224
0,100717248160735
0,0994378198339062
0,100702891552996
0,103843861283715
0,101673737970222
0,102237085340915
0,101499565603768
0,103280100593512
0,100254734152667
0,101378875086043
0,0993579794472692
0,100005685271952
0,0986593334720621
0,0990582377724723
0,0997458173815299
0,0991300575115961
0,0982756369635837
0,100270041725785
0,0964259641114063
0,0957009110025583
0,0951274345456375
0,0978030352269901
0,0953141409768545
0,0985631811635265
0,0952082209624884
0,0964306092580851
0,0937901630750493
0,0969197543717148
0,094248747322666
0,0942558259025213
0,0928130632489589
0,0926122882088805
0,0899994007088313
0,0922284993386772
0,0911720310984098
0,0920416245895359
0,0913697271986661
0,0931167906254076
0,0892264030400622
0,0904411123996486
0,086174869097905
0,0891496235870946
0,0877634719852509
0,0909943221914352
0,091476503919512
0,0901953514937971
0,0866439755504529
0,0879901620290853
0,0877534561672381
0,0909978376504286
0,0868534184567381
0,0893048166774647
0,0844057344736897
0,0859909402901631
0,0861776223609282
0,0855586678355512
0,0829011447996974
0,0875748933329116
0,084691188118525
0,0858416498682258
0,0864397337189385
0,0897127531601706
0,0831779968785412
0,0859202742621985
0,0824159791239095
0,0853625781363776
0,0853691662283409
0,0863925826080443
0,082547119281812
0,0875774100539411
0,0832576338937175
0,0853967562491374
0,0839487702149315
0,0868058547156216
0,0847932824501395
0,0861914184850397
0,0868594864940566
0,0920579815681136
0,0865868849159783
0,0928573992082259
0,0900964123424873
0,0936991648205354
0,0871658742487216
0,0912263817366436
0,0856417343951022
0,0907096096450318
0,0895263757002706
0,0976006284909587
0,0903213794982682
0,0941140522139194
0,0870334514103728
0,0926161619538749
0,0886270907881395
0,0961559909826882
0,087696144205384
0,0949055707890941
0,0925605315252262
0,097858300620987
0,08610899650432
0,0979149723138498
0,0897773273927517
0,0977904823355088
0,0873954592572611
0,0963907740592385
0,0835535174916574
0,0952887600380282
0,0846795438543863
0,0944181405219401
0,0824916394725358
0,0913806381409515
0,0808306378505395
0,0945304965677911
0,0801848744220573
0,0951106798957197
0,081461869659653
0,0938238745524834
0,0799017765195769
0,0975028951082019
0,0823952310633522
0,0955369608760211
0,0755531089159248
0,0919328163591976
0,0738138773997274
0,0903107583821813
0,0794647305526328
0,0920033323665307
0,0801748684579011
0,0935766640317443
0,0799047398250735
0,0927926708018439
0,0842243895519794
0,0912922774553606
0,0859163669864099
0,0864515162569641
0,0872335317892438
0,0811898625901834
0,0987401763111149
0,0792575725013699
0,0990571710536441
0,0691409420325873
0,108759097422413
0,0651753869374329
0,108638140943017
0,0599201861456068
0,108632438635228
0,0581958942148576
0,106060026000206
0,065267959316318
0,100356838251862
0,0701731609891078
0,0934704123672656
0,0787477217508593
0,0867687843808757
0,0829999866983581
0,0791846889515614
0,0815547690952081
0,0776424526307578
0,0812824731950117
0,078945434800662
0,0761510431491399
0,080377508850151
0,0773421234803447
0,0823358936160383
0,0731775200729818
0,0821628152506225
0,0743990549873287
0,0778882417049595
0,0756656580396728
0,0768808045736607
0,0766456939943738
0,0795891764999583
0,0734962559144058
0,0761874572401627
0,074002232616257
0,0786642989451149
0,0751133018799557
0,0755503830144172
0,0746459063783653
0,077137348119386
0,0725500009721957
0,0755813466211492
0,0760177486370637
0,0764942049898058
0,0751794955355698
0,0770703039794543
0,0746077185763875
0,0778630433462365
0,0738187850050716
0,0773384308083971
0,0742563937960897
0,0768429376749268
0,0754851116035986
0,0760711459489129
0,0772718458950409
0,0772082957366724
0,0723505114626985
0,077785238935579
0,077611851123814
0,0777422290430808
0,0740739863537241
0,0796021301583119
0,0783273984286722
0,0792734215273051
0,0773075173953513
0,0770851202642175
0,0737020028132236
0,0752336874992969
0,07568175890887
0,0782738592227518
0,0755618064646987
0,0769426782510848
0,0757431072287521
0,0753852488032454
0,079337037418289
0,0774091902576849
0,0738662362643861
0,0771720472292316
0,0774679869326002
0,0780960493857584
0,0762750902742175
0,0749128118682474
0,0791256516299411
0,0789094436285983
0,0761328943874937
0,0757400616200679
0,0759851831523923
0,0774880539632007
0,07688168393408
0,0778449032806434
0,0758104658170961
0,0766269840768499
0,0781788010743259
0,0799995777022133
0,0769069904953807
0,0756633224292788
0,0771817695909761
0,0775754631308717
0,0770362731154145
0,0782242431909685
0,0758127087033847
0,0777869619611829
0,0779477493486373
0,0790384853252523
0,0790535417616758
0,0763955923819107
0,0793600243299651
0,0795021450399964
0,079685012541681
0,079709086859828
0,080933532885393
0,0805722552213663
0,0795756111514063
0,0803464532149842
0,080006836105514
0,0784822967657516
0,0803537430216362
0,0806734769436717
0,079408310416296
0,0768653125793516
0,0794789244026918
0,0804469572213089
0,0799567297734827
0,0807277843755302
0,081795564927257
0,0815440203521606
0,0807580429095299
0,0807884150269741
0,081223780371287
0,0790990521821861
0,080088059659645
0,081345274736094
0,0810612507059231
0,0823039522084123
0,0817178504018424
0,0793676647238585
0,0827727547962505
0,0814656382319659
0,0813250713643685
0,0828758068437594
0,0830759195012682
0,080730679997825
0,081840481104537
0,0818348739795053
0,0790708627724008
0,0796770416508913
0,0829477593469288
0,0837185361914118
0,0826680392561604
0,0807205550003907
0,0821036132250774
0,0814620189950649
0,0823315370827798
0,0823368279646702
0,0835573907536272
0,0834224914396511
0,0819199364606252
0,0828060207896977
0,0854190174482993
0,0842178062183551
0,0821664113425574
0,0841361779852934
0,0828853228082828
0,083631008962058
0,0852743389127914
0,0850737458929247
0,0850783455620117
0,0853297624417752
0,0856856769562818
0,0843524156658114
0,0867005422680086
0,0844145962097222
0,0856767640914663
0,0825089519560458
0,0857558166466863
0,0871928507357352
0,0870062455531238
0,0845568087023834
0,0879075579148091
0,088824688134461
0,0869703848466098
0,0851657917274192
0,0853080454088477
0,0854041408440695
0,0890684088210107
0,0861655782826334
0,0871877204734662
0,0867148992007462
0,0857471279791783
0,0869946094190203
0,0865463061372645
0,0869641344571057
0,0868221077650348
0,0827610141904287
0,0864239049957575
0,0851460515291722
0,0845265920308066
0,083885801970413
0,0874260617789746
0,0868190308527312
0,0840725766693749
0,082702855954686
0,0858165199904201
0,0854705054986799
0,0846078424192597
0,0826178113262436
0,0831527611004409
0,0834450465496354
0,0846943057898735
0,0830160584314576
0,0837929540963123
0,0818837052966354
0,0836671393557732
0,0841288487406405
0,08432483531582
0,0819527253489537
0,0813904720749056
0,0821184911045514
0,0831886326394227
0,0824497520323339
0,083505467800301
0,0808108677741456
0,0825262790965087
0,0812394478986184
0,0828050144372184
0,0818031500605855
0,0822886625277301
0,0810955111483283
0,082244241424925
0,0812982735099639
0,0813792404917066
0,0815131239528465
0,0840479551574414
0,0809684018703371
0,0814276477424532
0,0810282495526461
0,0819413051619146
0,0810229750254269
0,0826967030632993
0,0825494145439059
0,0836694085452526
0,0797406140389199
0,0799033908681475
0,0794272585239849
0,0820244101697669
0,0794012226515998
0,0781559871837626
0,0787979238436112
0,0815902419365068
0,0808019925126234
0,0797886523985807
0,0782335519027357
0,0806471948148248
0,0774234314445782
0,0787814106258403
0,0792199043333199
0,0817524739419258
0,0771865964754422
0,0805238912703664
0,0818702769348328
0,0820682708264398
0,0773193391987585
0,0801100372535776
0,0788245816769309
0,0783997903568821
0,0780607499618836
0,0797341634927358
0,0782919582496281
0,0810531569612391
0,0762514978846475
0,0790237068670614
0,077541706031175
0,0785194412391185
0,0799000653840105
0,0789717461379279
0,0789811769320577
0,0814763942179451
0,0777938579053159
0,0791294548519882
0,0776450518919799
0,0785694636707297
0,0766202130426936
0,0764854664462005
0,0759542606679581
0,0773300086901797
0,0778378436094173
0,0791834873367755
0,0787868221042562
0,078655212268692
0,0765405502790326
0,0769161362530939
0,0775361965233996
0,0783968823988415
0,0757191166696789
0,0751108759171456
0,0753415929650761
0,0769621603367152
0,0760597515045721
0,0767011127378528
0,0731842929107569
0,0777296615007384
0,0770819081914643
0,0752673128631886
0,0736624486772734
0,0763078011102143
0,0749056773979315
0,0759112113713585
0,0753096006560367
0,0757286331689071
0,0742677801535351
0,0738320534161252
0,0725850491169713
0,0748728336489963
0,0726274036847689
0,0735577592196213
0,0729205772581654
0,0739754039936539
0,0708942877324155
0,0733152384440062
0,0719694529493087
0,0722506571118667
0,0703512550661415
0,070265118676908
0,0712666738558136
0,071180274893542
0,0694334717534681
0,0720978930808345
0,0734636993691304
0,0752424047931014
0,0708952380237019
0,0701015779232765
0,0684889689219383
0,0701314748943477
0,0679085455677906
0,0672802118107092
0,0677197948199818
0,0700877865632596
0,0660000279062784
0,0695770271423986
0,0659685541980554
0,0669403578960025
0,0661819381818509
0,0671067329845234
0,0660391061961941
0,0679549533241799
0,0675093682404227
0,0690808470409634
0,063695958776076
0,0668788205045853
0,0660959312644239
0,0660630111647827
0,0631624825438949
0,0657145309407977
0,069260370128962
0,0750920678884716
0,0655452908239942
0,0660702060808263
0,0661369854270703
0,0679479384945803
0,0646071716070858
0,0652546002470817
0,0637317951857269
0,065669255658717
0,0637648079561569
0,0656774137139675
0,0652936321198398
0,0656741808645756
0,0626248842162112
0,0673381498376012
0,0639293343981127
0,0646050688438947
0,064588368362077
0,0651269507958308
0,0623361334754099
0,0645855475032483
0,0625339878055676
0,0630518859684569
0,0609459423435356
0,0624722744630902
0,0625063154389188
0,070064034089429
0,0652736396880786
0,0660565048296459
0,0628351959025956
0,060934660871174
0,0605957682653359
0,0620879979706277
0,0614703365137762
0,0618593714830211
0,0594277656136709
0,0639386585629136
0,0608768457264558
0,0609425180852835
0,0607876592136861
0,0623569598545523
0,0599284853851429
0,0622238861184604
0,0596480389159358
0,0614186013425438
0,0581172936189862
0,0581829513060908
0,05827888294192
0,0608963574358182
0,0607326735800722
0,0648207004211579
0,0580333173449631
0,0660783038328576
0,0726700662288469
0,0620735607386929
0,0578317029344408
0,0618893356970552
0,055828490521053
0,0596069660730657
0,0583471726012315
0,0609981765345634
0,0587502649572823
0,0614114034136051
0,0585932435513673
0,0619153514764944
0,0571847402744406
0,0607935133059143
0,0577258453156271
0,0615623108693806
0,0573271382693642
0,0589631122012361
0,0589305848139723
0,0582728131769394
0,0634692101921367
0,0739068416357499
0,0646148677746274
0,0619274499471544
0,0567449859554246
0,0570255136616537
0,071386207771183
0,068323638766399
0,0578873132239183
0,0591881140433174
0,0588330702223764
0,0586066258831974
0,0561613277998914
0,0576602412657312
0,0611023094542309
0,0646390202292002
0,0598313411152904
0,0617989806465521
0,0572661070188059
0,0600763895176784
0,0556802380434023
0,0586535807296228
0,0553938468590172
0,0590663899773783
0,057116981151786
0,0581794140535201
0,0538893808725259
0,057222793339872
0,055768488558423
0,0557116790516557
0,0590098395281543
0,0632446589119694
0,056799349709473
0,0579889466625752
0,0550525872812894
0,0564273185721727
0,0615831031432288
0,0725600060027271
0,0584945608700474
0,0593381163730303
0,0563030645308604
0,0593005514032471
0,0565403216614539
0,0573879327095043
0,0550376523609957
0,0575185242565099
0,0552758671197179
0,0584374481347124
0,053901600477078
0,057406165011978
0,0551718411312121
0,0588926579390623
0,054147798122161
0,05601372934675
0,0543289416004812
0,0581113744935865
0,0578548704557875
0,0604155288722896
0,0662540714413722
0,0779448804870591
0,068579928586204
0,0681106382752669
0,0638976689780514
0,0570552980424101
0,0543763928589704
0,0581469590104737
0,0566306263663497
0,0598367237710971
0,0550448333283561
0,0577075701595012
0,0567656739226178
0,0581494640659115
0,0548399679471922
0,0570639529421634
0,0533650709207338
0,0582544001373475
0,054312372338516
0,0584738756694169
0,054783621878502
0,0582011306510801
0,0557176838770992
0,0681480994257001
0,0628924613854159
0,0647764761967487
0,0563256706577774
0,0848988312955276
0,0757038968543581
0,0641025201394661
0,0620398455503792
0,0587322904712542
0,0586285909645371
0,0581519162912889
0,0570447027252599
0,0617980266485216
0,0592628522765167
0,0582609102672621
0,0552235006749402
0,0597317423648191
0,0578612153394042
0,0578553415818589
0,0653047677625684
0,0883465656390169
0,0680569457408844
0,0635298715917028
0,0567446420213902
0,0701375790504657
0,0790716124741041
0,0641521791723463
0,0631978168975091
0,0633737291219775
0,0594154057920112
0,060193108150416
0,057957607703452
0,0617202735666083
0,0633128688693729
0,0627921469578183
0,0586758073472058
0,0633584531189273
0,0567997052186451
0,0656625191394093
0,061425712990367
0,0740126514044234
0,0702278669487617
0,0621485918094805
0,0664724996179643
0,0658386806848183
0,0594562109639455
0,062646331994655
0,0618416880052235
0,0615695900085562
0,0733866607743233
0,0756137287645538
0,0659212645043409
0,0789674690329481
0,0711460318387596
0,0619573503127381
0,0688588712412862
0,0735029458619044
0,0693799917202438
0,0616776990306013
0,0772208363211485
0,0925614503668614
0,085218100203753
0,0856583958415596
0,0676706901331856
0,070432930145391
0,0653844981834891
0,0657969967705275
0,0648399051755263
0,0861802011502777
0,0665585458182368
0,0731714073955411
0,0616764413638348
0,0860629964576019
0,0778202318068182
0,0742260280752535
0,0694521376321612
0,0661540426993066
0,0672842825847095
0,0858371537791515
0,070691333627603
0,0704987540060033
0,0939353685498281
0,107257265054315
0,0952209152615433
0,0757158781895072
0,0708048810001873
0,104755777604242
0,0771009687967439
0,079538351528277
0,0684923261555974
0,0758755746220978
0,0693816272953982
0,0796939648928189
0,0971846549682287
0,0832160499889259
0,075009451560747
0,0817673275782009
0,0682264652009371
0,0985675706776731
0,08235629181453
0,0797155875000705
0,0740773016809255
0,0837891863098068
0,0734006308581002
0,129283001579862
0,0919624905827285
0,102567722465028
0,104182001268721
0,101955735356699
0,0934962568051413
0,094473480741647
0,0837359672467496
0,102460273183483
0,105495880244366
0,0945223772966815
0,080985857130689
0,112295779973193
0,112386766773146
0,0924794779977021
0,0974429662614732
0,0931987082924392
0,0937650188923947
0,140855766916345
0,143608207548614
0,129984034631267
0,102466413432601
0,108168495460589
0,130180554168702
0,108701557508741
0,100338050667557
0,104175035050799
0,105108669566527
0,1070336296918
0,105806007122672
0,117842924438353
0,111540358964708
0,11820997244572
0,110868530062804
0,118651277209832
0,133225675374051
0,172348795390617
0,155458958062617
0,12977642003979
0,165219460286974
0,148875005900509
0,134589084834522
0,127611228436015
0,123013327384095
0,142080228809941
0,134016374674878
0,134489533873448
0,130517356698146
0,166489442306887
0,151263813274924
0,157324314922292
0,163066226871552
0,151654308605232
0,155972910530724
0,154897401883423
0,296322933100329
0,180379578704262
0,184172626959997
0,172701370787581
0,189058205843534
0,243774641247366
0,187099224779741
0,187314092702319
0,190062117432777
0,190821191068914
0,200059812841649
0,211087924024718
0,212833319798597
0,232639521087933
0,221799368361633
0,224108022274626
0,242546659116945
0,312785133195316
0,292231410467682
0,26757093484712
0,250243142883995
0,277523690036072
0,280670514251046
0,271664648194523
0,278893193722951
0,280931332641538
0,293619802242277
0,352083739565409
0,297081500157109
0,320889105858057
0,315685915411654
0,355149747772318
0,310496564881835
0,39251140584616
0,356154592403237
0,358491193720568
0,349652366989414
0,362362602133383
0,362102014872946
0,364947770730803
0,403566281695536
0,410579335796869
0,391664146895399
0,403023761670809
0,395203933199195
0,405852449409505
0,407639297585721
0,428000402051973
0,413836322604592
0,477571779182351
0,450417092737192
0,670888230380498
0,469249641736289
0,439157823818794
0,429791273710803
0,441973828697322
0,474661169622186
0,480035098147717
0,488461356445049
0,473702660510713
0,44272754220093
0,448465047565167
0,444962266399188
0,451303754348588
0,448749864969128
0,464867637135731
0,428625321125322
0,493732543705132
0,442140666415502
0,538133984426082
0,525823770941602
0,457291152113999
0,440181276906678
0,458839192337101
0,436349649600906
0,448413162190974
0,436333418176126
0,454281720819711
0,461008024931683
0,441698416320641
0,436124374216315
0,423415698266163
0,461447774150836
0,462133510339816
0,414685558222885
0,434008990259143
0,404160209992714
0,421788410498131
0,390523742561486
0,432399389308124
0,45437523347595
0,398440575957916
0,403106513712329
0,392061428816096
0,386609715029863
0,389383765486116
0,381745807651531
0,391029190400377
0,377133091480226
0,378651519586867
0,376208947083492
0,374493572366725
0,372529110806364
0,370128441337158
0,372642654730896
0,374477363685993
0,368868767697132
0,370425002948216
0,358252634147797
0,368062004725953
0,357398333690767
0,365983369145517
0,362135835064659
0,366607738632426
0,362359325169874
0,359236163361464
0,358311562131459
0,358104402087758
0,356522838897364
0,357320319320953
0,358363861553199
0,357494175715471
0,353664258242227
0,361914237053567
0,351722091088237
0,358103584873411
0,348302991285268
0,351969396148119
0,350077113540501
0,355324272647055
0,342843070798262
0,365730060416086
0,332939801319287
0,422297111646864
0,361601444747192
0,343945868179608
0,342593865360969
0,335618249925235
0,334952620580869
0,327481525331868
0,380090694154678
0,356115380348342
0,326985410622872
0,329603158861693
0,311411632435256
0,344380927903179
0,331824131314664
0,315587934271171
0,324669781715456
0,301849381119491
0,37474632124168
0,377390481400863
0,386242091833053
0,394282301831711
0,320071803794476
0,307198288800301
0,308313529267533
0,34631499106093
0,290986743060081
0,305784502335223
0,27918210448157
0,350775619299297
0,300615355748237
0,289669587838001
0,28864623328261
0,284659859957662
0,312790987887528
0,322236018540645
0,290416652540084
0,309614007422944
0,322341022661595
0,300283719269221
0,337677827290965
0,338588957661918
0,298546453146419
0,266695639254644
0,269740296056975
0,264100431563756
0,255851732759112
0,336192610274619
0,260172857040045
0,278331679019562
0,24837095695602
0,250194813734585
0,25191990202771
0,266090450931935
0,256031386230812
0,252917639292809
0,295364600214127
0,226609275415196
0,271548350398522
0,263244946728482
0,288112545640097
0,295997527792475
0,246854567979995
0,230478253838323
0,276957223178701
0,284959091369044
0,238307103971342
0,256536848070551
0,218101902131913
0,23001390149192
0,250489631900391
0,222679653151546
0,250320248235987
0,246975241154113
0,24676246248797
0,297610646416336
0,284715540679013
0,279474612070969
0,230585302458765
0,213680432073208
0,217952631871271
0,216154142871845
0,224599682756985
0,205573668049121
0,258289793697593
0,226276079363281
0,20438590249285
0,276966246492939
0,226571682647268
0,220597644430298
0,22234830057241
0,22377229309012
0,229445432401489
0,257598028860519
0,278243093664275
0,255089031166724
0,252126104189409
0,271883560322965
0,23570084691826
0,25403096424024
0,24192095410982
0,258227013326628
0,255812539796288
0,27976986686482
0,264170066178773
0,271927793996562
0,276056436054924
0,279398005147664
0,30127766928818
0,332312955366602
0,283156558034807
0,354291497817654
0,314274287132579
0,390724377358701
0,327536862765896
0,331072824232867
0,33267048645728
0,337643800585803
0,344845120207828
0,345127535231374
0,352266530652781
0,396140877412393
0,348609629835045
0,375667353856219
0,35797333211576
0,380145251528294
0,362668884589413
0,436782961663915
0,384546041269905
0,474755677543166
0,433894298322544
0,4213056974013
0,402710840106324
0,384753877218224
0,412545665226635
0,404311949083309
0,400198317197523
0,408141903239291
0,399745559256095
0,439017440822718
0,403128529627554
0,41700067749885
0,411559928704
0,420035559838371
0,415692486017448
0,423254478521987
0,42351073526176
0,426785461060095
0,426883950034572
0,438660705860539
0,419848726130197
0,531622664199535
0,446375189372689
0,458726349253905
0,451094679186085
0,464503902035145
0,456487688618098
0,465082081816362
0,484123431864715
0,470595052463104
0,465900435697625
0,483839327889596
0,471933120800485
0,484084147465151
0,47149624835957
0,52844987393953
0,477809317675782
0,51103784325305
0,47570355541941
0,540605288555187
0,547991457455683
0,513007353568515
0,529275007674744
0,501742772995423
0,50411432131852
0,507912280496666
0,503263031910387
0,517124812524451
0,524943016956495
0,511759537622153
0,51832022971023
0,51711084614306
0,513374551690427
0,520729049725938
0,505529113395976
0,54445382227182
0,509505576549408
0,51490279746022
0,507755419301464
0,516936289380222
0,50304116269599
0,540075040216211
0,532376794900855
0,520210050010171
0,52937043102798
0,525459483218612
0,530359817690761
0,526518392257254
0,502842001732486
0,515533329173983
0,50745839089242
0,514669114916087
0,508685277590115
0,528189151268596
0,553245155575428
0,526315008243283
0,526641530154871
0,527014316938264
0,521402447485582
0,525493968413053
0,530235475092549
0,530572782867196
0,538713336081226
0,538042145951502
0,550119937343794
0,539026537125856
0,545097412903253
0,555964997081019
0,563938353898075
0,558731263947567
0,543073081724979
0,554974596530525
0,540407378728444
0,5398586617904
0,543901431401745
0,533209757664102
0,53187461307426
0,523820567100874
0,527807552857809
0,512222549206727
0,548586785716264
0,511868475510539
0,515002788111912
0,502994626235008
0,499731651813369
0,49868529269793
0,489100701872875
0,489853513019196
0,480825034110946
0,491369841152679
0,479674873865707
0,476592476735717
0,474809864355969
0,472170907269952
0,472317558367672
0,475590861688249
0,468901835044528
0,470826723793521
0,46842998709835
0,469645656066366
0,465792393908823
0,470753306358435
0,465815464169402
0,463998113565514
0,482068166011359
0,48427560191456
0,487353034430811
0,471153490731692
0,464889699015931
0,473821808622481
0,463828587103582
0,472509437857116
0,457175672353363
0,462869331216672
0,457819340805955
0,468871678523511
0,458027781654547
0,462470721919696
0,461312953996413
0,46469472973059
0,4568508294791
0,46407791167452
0,458864601519323
0,463957395597801
0,453967570110488
0,454581866697173
0,45423125325299
0,470951362098667
0,459247543370787
0,460221713827352
0,458104414385259
0,458325741673243
0,466440614765654
0,461199123619947
0,465947962920637
0,457399864706416
0,456468002578891
0,45758962340718
0,454545367775141
0,462251868215639
0,452637960041475
0,452612859854967
0,447682286445952
0,460499464589586
0,448498968032859
0,451528791769957
0,442237173746376
0,444666829425287
0,438187909339109
0,439649070878138
0,428623601196444
0,435218888818882
0,421417043155371
0,417712264111259
0,413205059310525
0,416397934121115
0,409893685974656
0,407946759862602
0,403333539766723
0,406524221544674
0,404702032107992
0,401794826136684
0,398996595222459
0,397663919889008
0,397716876773919
0,396169955465675
0,396156059109254
0,394238749988314
0,394135887731182
0,395989276873528
0,393733781255006
0,394637307486441
0,392970982637356
0,398006804096697
0,397445966510288
0,396176593409635
0,400343828409679
0,398745505583315
0,399846121528239
0,401134255063409
0,402437999177555
0,407968651279
0,406940846889208
0,411456349487733
0,410965674039701
0,4142681292076
0,415400209227163
0,414847015743081
0,414012209263355
0,419382839121356
0,417855033174661
0,420479619931925
0,419824632080812
0,421200436333691
0,414780616198437
0,418611998312557
0,416646735284854
0,418988763655268
0,417981686476534
0,415416604830836
0,414691098634668
0,413327540614649
0,410534942917025
0,412505090475246
0,409104015863041
0,411276185299808
0,408993791950744
0,405466213195884
0,404847632910122
0,406845871610237
0,402674181425689
0,399332476148142
0,396492936499742
0,398844331833677
0,394172933097295
0,396955664092202
0,396429858167217
0,394841514017575
0,391165369601945
0,391728133254028
0,388275696828427
0,389177349102655
0,38579540728287
0,386774132492716
0,383137318322611
0,38033066398428
0,383081585431127
0,381669893292763
0,379216389684774
0,381313052768207
0,374930574021892
0,377910943857221
0,372774339868447
0,374645536157253
0,371690934975955
0,37090792865338
0,366192869758112
0,363038660549475
0,360061080687987
0,360674849582756
0,35428690418036
0,354943675918502
0,350873214363558
0,350414350237275
0,346724684488253
0,343040408832429
0,342401012101723
0,339297402949552
0,336010529283819
0,336180750790501
0,337072204679566
0,33586583994679
0,333732198707596
0,334310722248113
0,333128732509059
0,331791158610946
0,331791882571711
0,329255845139983
0,323202244391278
0,326370414686769
0,319108461023289
0,317568016795929
0,31496550574819
0,311521558746827
0,305138670718235
0,302180184386961
0,297658017625646
0,29794376730371
0,291907202298047
0,294864285081112
0,290256807850505
0,294202906337398
0,295618191610665
0,29973764777152
0,301298142425864
0,309855186464715
0,317020293685553
0,323449411456115
0,33637105515367
0,347490935063777
0,35829579054349
0,370710219474663
0,383692936739877
0,400464550013694
0,41190737456741
0,426856354152509
0,445437906632775
0,461121701756031
0,472835502143299
0,48714555222073
0,503723763696876
0,517822834666024
0,5350390557328
0,555157368575914
0,557182814270069
0,574666015691028
0,585643968247933
0,598389051750299
0,606659693841318
0,625930244470587
0,62930094259293
0,638465493482606
0,648175325145348
0,656991392531803
0,663818717882166
0,669058062064974
0,669308205073154
0,674801430423043
0,676897609123446
0,68095143348804
0,685106170095568
0,68052353909849
0,685002451812813
0,688702582874424
0,682655835023959
0,684150137717307
0,68169943487746
0,686573769177878
0,692829055450633
0,693289535592853
0,690466338666773
0,694274645923506
0,699324020676332
0,702138991028247
0,702453176316303
0,712701157481925
0,722279799899424
0,729516202688496
0,734613818340018
0,735655698245567
0,745688102777889
0,745795547565066
0,757424245168617
0,77364517185036
0,780911503744414
0,78915074533748
0,798207586368028
0,804132274350578
0,821483758418978
0,834453139484045
0,832673799735557
0,851716507455724
0,857902807505956
0,865988177057793
0,868918246787138
0,876662404312711
0,879228132636183
0,88311519248664
0,879777954909024
0,878549814222159
0,874482844433544
0,874146399495316
0,871832849126102
0,858688313671817
0,855663662485352
0,856730989676793
0,864921480862396
0,869188018314557
0,869864585147827
0,876798064556694
0,887414208800881
0,899903000919929
0,919207821995974
0,932184781743781
0,950163523730897
0,958540992988399
0,981195748318824
0,994183400267646
1,00258617220592
1,01966481395728
1,04291947717904
1,04508695150675
1,06795867365753
1,07351061720464
1,08124182268279
1,11149092387643
1,12270407962379
1,13966561540507
1,15317559027685
1,15697492364393
1,19003804464693
1,20151986479076
1,2319747008134
1,29958638107121
1,30914762479205
1,32261529359081
1,30872042701086
1,31491365350898
1,38251234996122
1,39008660968056
1,38262282043659
1,3937852977669
1,39938125065765
1,47477885191035
1,46172950613749
1,47934228728488
1,47360942275726
1,49411858329869
1,46450530285408
1,49294021363271
1,50379303676268
1,46971536206081
1,4736858581875
1,46217897940765
1,47831335963424
1,46385561049427
1,50366056060722
1,44522685424579
1,4406500088899
1,48252315338157
1,49941953862432
1,46388168568857
1,47269065329499
1,52288830866517
1,50964254291036
1,50602119608213
1,56652479956923
1,54284505016871
1,52225361646223
1,59093397151637
1,64380882842785
1,57777043789711
1,60706428085912
1,6010604208105
1,73557616788216
1,65003199389462
1,68957534093011
1,71611986262698
1,72655016537508
1,70706320701219
1,67070985167371
1,68530951997085
1,72738235530886
1,70546222859296
1,77212998225225
1,74370735863847
1,80607324648805
1,70207395155486
1,82110689215467
1,75537384706361
1,78769320763399
1,7455218620412
1,81019396319342
1,95875918851589
1,86010286428327
1,84499775801583
1,74265241805276
1,86568826165606
1,92080066307713
1,81928314845826
1,91938864222732
1,81058237253778
1,86084482492061
1,76083809607136
1,73080418506323
1,72214079449964
1,78073194115833
1,72261109348952
1,61179138400605
1,56114667003752
1,5415383624879
1,46258347611469
1,39939973545382
1,35767374588562
1,35370709384479
1,27863990939324
1,23751262223021
1,21993421207226
1,20927022499575
1,17745852493007
1,16575658090349
1,16306632156959
1,16092243461599
1,13660355551006
1,12819629376163
1,10898184320031
1,10641397841267
1,08031819368161
1,08707766910266
1,08545127134419
1,06779169568324
1,05598494328407
1,0309845817809
0,999214630287396
1,00325312364392
0,960778122781266
0,944272204450722
0,921297444287452
0,896406809104889
0,869548274727659
0,833052212240767
0,806886335316238
0,769589150756442
0,728760727342246
0,708690133564121
0,674786659812517
0,643461220055119
0,620919944022926
0,590271028964056
0,553635595112144
0,527613714187607
0,51179623933619
0,488559919367798
0,469823089810535
0,452017900556181
0,433146226326981
0,423005469552273
0,41084496954509
0,398832633318745
0,38812673607753
0,382497952851887
0,374807146184783
0,370253116408033
0,366103520692201
0,363236216381945
0,359412991299824
0,356108965498719
0,357378045958467
0,356318870720787
0,353421784705966
0,355730558279296
0,357072829948953
0,363027567831754
0,364035847182967
0,369310325869445
0,373097703305168
0,369219596921563
0,36727190217517
0,370843632580113
0,366991559363185
0,362994756950498
0,362941862279514
0,358826035566024
0,359771205234978
0,355935869076188
0,347790697146535
0,350198320187301
0,353875307734709
0,346145282281361
0,345165579836418
0,346823245956607
0,3415579076904
0,344279893847779
0,335087313179478
0,343015404164954
0,348196640224114
0,344348032780492
0,344409823017275
0,357950889605264
0,355531146394529
0,358467977990536
0,361900902812084
0,358650080166712
0,36670515547983
0,375723225125081
0,372632360008736
0,375261895027652
0,379430009219347
0,378619295285071
0,379291046216963
0,384297578165916
0,384360979052059
0,385305962926347
0,380514743082889
0,380508052617962
0,386531627584638
0,387575146860915
0,388308544927425
0,393841946807749
0,399129582348354
0,406635318777679
0,405718768428311
0,408935176857569
0,415380635237683
0,42327546104704
0,426387024832118
0,443459752447101
0,457656568517837
0,462997039835445
0,477945607262066
0,495224318311622
0,496750158302172
0,514318876067307
0,515231887310152
0,519708868558213
0,520038629186167
0,536320113817512
0,52625674367663
0,514067879774757
0,508173688626825
0,504687051936747
0,491127816102471
0,484930437727815
0,479116983183717
0,4722355481792
0,467330573766885
0,470469749596019
0,470167016874629
0,464189445618347
0,461766562989103
0,477138950650567
0,468335880369657
0,472599276305092
0,467958962322584
0,463449271250898
0,466538619952039
0,462342441529391
0,457832089940722
0,459986561219688
0,448230149377564
0,451339710980734
0,443538706684666
0,443780810900714
0,440613308582674
0,430326710000275
0,427938286527556
0,427301190159487
0,420924477262388
0,419098693270819
0,421708052467063
0,418447165621538
0,409429301246997
0,411538234762366
0,409064505781197
0,414882428891437
0,403699834358205
0,399809258461996
0,406058540583401
0,408925114857327
0,401694201232451
0,403808179565887
0,39453301704051
0,395525784792216
0,394323366511483
0,407450883188501
0,396178709266129
0,395099759663277
0,391262048340784
0,3853150968285
0,3866660213082
0,397223950423847
0,38651833122457
0,391958244584437
0,380035435156047
0,383695554739415
0,38269680105894
0,371384656780418
0,371471016829529
0,378606966356502
0,368274207252345
0,366393474673519
0,373351756367801
0,371156696028086
0,37258530774494
0,382478762827553
0,362989466494623
0,382619191126948
0,379766699546928
0,382795272706889
0,385640964941161
0,379794343909786
0,376434963571164
0,3829913724967
0,393805262742267
0,397012541036229
0,379758544436415
0,397235541803647
0,400274795336915
0,400190461738199
0,393297773993328
0,411001085448955
0,413725073975895
0,416276811972939
0,415119824135438
0,420836407990685
0,419142378838647
0,420324809414449
0,415356975780105
0,418733813222344
0,42349197040374
0,450900069477184
0,451615707410497
0,452483860251309
0,450974792339062
0,476159715159771
0,478348799730854
0,499277456232585
0,496611419244807
0,51831715820222
0,531630296761284
0,53573912351797
0,541425737400894
0,552757863982995
0,585492954481507
0,609408399307001
0,588835548297567
0,613887958136654
0,624806890390096
0,62246597230392
0,639237593988136
0,669479388046179
0,663402890894793
0,660004929725723
0,644715275371916
0,675242952606876
0,669574879677013
0,671801118623566
0,653867491606567
0,673274649246514
0,65947763233845
0,64321019238044
0,630300940913059
0,634243445362198
0,636181742699711
0,649201652336698
0,645477464814451
0,649994580790176
0,616826143919775
0,625790746307754
0,615458556922854
0,64670702022193
0,636280754621275
0,647789689856517
0,615658442056398
0,6132579276998
0,642751088395427
0,625016368437869
0,590543967825818
0,590787238970884
0,584466388242219
0,608222904759677
0,574069915477238
0,594232471293787
0,60079442617681
0,590071360263528
0,590730634339749
0,636476399795247
0,583455859557409
0,601304198354715
0,573055738971913
0,54626080070491
0,590924035280748
0,585738698237533
0,604190566278332
0,652958563199253
0,6294753482845
0,584942562910598
0,614024041238675
0,623058634355259
0,555397627129369
0,602894324426262
0,583103351238088
0,60205305236097
0,605671646827085
0,619728080441555
0,655688347094396
0,64140268368375
0,612568734342046
0,641570817747011
0,620179872385192
0,617002896564425
0,647950013746684
0,676366575377709
0,644119619459912
0,670044549119495
0,669847850150865
0,633922791735653
0,674626630030469
0,696448509779281
0,615128215845599
0,65599548634494
0,675801009149167
0,647323501696467
0,67934677043004
0,697181214193659
0,686843856374398
0,736569035062897
0,750338587485822
0,698063875902806
0,788309041526582
0,809166040195689
0,68914054393386
0,756141726402662
0,822914167151368
0,782041600315214
0,776967070446207
0,886774419309025
0,953447509143917
0,852593429038562
0,801426076046183
0,756166942949973
0,729679083878218
0,767114951473726
0,782437399824808
0,824101185232786
0,838637405118549
0,852647405072976
0,927183018990123
0,857522640228482
0,85594060969297
0,7629493816002
0,901024065265529
0,840201762559639
0,736323883135151
0,705405056689696
0,734241258524326
0,792601828819791
0,709816810929917
1,01197564461179
0,750811641930021
0,593808844019636
0,746542532550903
0,74613487557008
0,76819113315624
0,821455096002767
0,778740893398202
0,766237612327146
0,825320708320986
0,667456295362827
0,712796898296078
0,747253839470651
0,758190462585193
1,04034744595729
1,02515243049804
0,797484821624533
0,79552684559908
1,1294749550751
0,646858166065122
0,675601522419648
1,28716034528808
0,709300128359501
0,584671327659675
0,952343942610256
0,848643564190218
0,799726043259045
0,647244138179864
0,692573921872518
0,710287394936132
1,34479432803805
1,34663300416123
0,827102268408816
2,01564223478334
1,39532628693487
1,07476929339827
5
0,447041991110951
