3596
4000,36533379555
650,420452594757
1
2
2
0,0700355108729271
0,0710060768128635
0,0688750977253805
0,0763342438765673
0,0721614924506288
0,0693286753830054
0,0626714745077448
0,0774915131368003
0,0604016879077433
0,0709305419114361
0,0688928707831237
0,0686106526827365
0,0653121381341712
0,0718859814750147
0,0709515464675035
0,0728552715076485
0,0630071738660085
0,073842505504974
0,0676162139490054
0,0682185287270139
0,0638101035265463
0,0770068275058518
0,0580629983682336
0,0650845366486579
0,0659953452985338
0,0737924591814062
0,0695478630122949
0,0686017980791589
0,0667964062888917
0,0806479876406082
0,0682965392212166
0,0695471251003175
0,0655498751120893
0,0727223243268627
0,0726263561940597
0,0628110349605623
0,0647172725572964
0,0776041176962665
0,0714130883339066
0,0766148277955239
0,0667945258730951
0,0619751250236724
0,0618553654493185
0,0670884031471845
0,0687812745842747
0,0790480302128532
0,0608294954185392
0,0709551656210328
0,0641671384288175
0,0791248694395861
0,0646702449592598
0,057289423611634
0,0768938931582201
0,0821573442615565
0,0731054112822444
0,0878659262097647
0,0719378587186436
0,0676168565858157
0,062678715414135
0,0689421027026939
0,0907506003486409
0,0903016352789384
0,0618473116767229
0,0677692317198456
0,0638164511310372
0,0683211237609406
0,0552649434370512
0,0728773112184385
0,0540697569506491
0,0735508947139723
0,0598817971161391
0,0881958050805459
0,0776861463396664
0,0774253537762297
0,0696541378160176
0,0713754051053993
0,0622885932323838
0,0608374291098964
0,0526338164401895
0,0854049532839215
0,0738523263966979
0,0756074611696395
0,0606500438462423
0,0711228360605383
0,0706944357566233
0,084519804423827
0,0600601789316178
0,0723161718200703
0,0783655387727536
0,078146329789775
0,0657729603244346
0,0686249961769648
0,0587618748360257
0,0699042762613159
0,0533961726933018
0,060058707938999
0,0554513758264909
0,0717669276084895
0,0576310463532683
0,07766359308191
0,0650338733812817
0,0751381570039182
0,101741825425267
0,0680494300577669
0,119135948876773
0,0746350876112146
0,0639483113729915
0,107710321105765
0,077470325856018
0,0715634813170697
0,0644311412205747
0,066630897991876
0,0561911023672354
0,0757593529841017
0,0531132396392959
0,0933644719517465
0,0853468261592503
0,0667124014127805
0,0574260678346806
0,0677005201121492
0,0476276999411691
0,0980319398857097
0,0997229832325759
0,0732555955553491
0,0745818439125829
0,0695432371317413
0,0544852685952301
0,0962744172798324
0,0930326039409729
0,0679029403029017
0,0686603719043418
0,0664242081169256
0,0598665329509511
0,0576233442293234
0,10235118940287
0,0730521910240657
0,0645552652690874
0,0572465331891154
0,0808604787563884
0,115915958731008
0,0774860846148984
0,0735633194654523
0,0483536587636398
0,0772783352808983
0,100781200762953
0,0722765727307546
0,0582389946098444
0,0949441710887728
0,0736145399057423
0,0632097639500607
0,0622382408226258
0,0591587790248024
0,0833561191632776
0,0782098079431768
0,0340180072291766
0,114890894575471
0,12455003099304
0,0912972437744138
0,117110249842473
0,0681746770433754
0,0751375334310479
0,0634785253142097
0,0632523440664233
0,0576013934158603
0,066130954356288
0,0561507171828861
0,0681535432497516
0,0934732885508368
0,0569832590088575
0,0760868473568607
0,101594289603464
0,0821818314622022
0,0462490237832369
0,117240861909039
0,0801876382227452
0,0619385670923366
0,0964283153269202
0,0763373220900366
0,0508635611410472
0,0755772419308493
0,0788190727513368
0,0559782108478398
0,0673713950187337
0,060631222733312
0,0661870059928111
0,0811967392151727
0,0657759285043706
0,0649398381828969
0,0603152940096549
0,0548273092468508
0,0884511757687373
0,124331466069571
0,0957272241046823
0,0718724883471728
0,0640566679945991
0,0338078469837597
0,100617844087298
0,0942967881459078
0,0548757398852442
0,0554745515063165
0,0551154662171767
0,0661551307824584
0,0533755315060338
0,0596834539111552
0,054614964480816
0,0470782754856375
0,106534144012001
0,0794309701566642
0,0576522076656444
0,0548583381275081
0,0682420501632498
0,0680725592872794
0,116048953372695
0,0959490939527711
0,0651624941547965
0,0667410602323419
0,0575253657128846
0,0829016333526518
0,0746583977934865
0,0609187829809162
0,0633033416217397
0,0612191709712677
0,0621449509181515
0,0555465769272012
0,0515407483091068
0,0647550883464701
0,0593951726827675
0,0601658845115879
0,0603549175800624
0,0647826944133861
0,0697142639406471
0,062464841244623
0,0587893257328075
0,0583651317549512
0,0458439117627887
0,0704750711434099
0,077408380447126
0,0593483027900509
0,0639066263053908
0,05460783421874
0,0552945403253359
0,0595298494063701
0,0557710107063028
0,0602770024507276
0,0553438095984928
0,0572323190858594
0,0927722668684903
0,0647553727963627
0,064816234290371
0,0538028544526678
0,0770512007796435
0,0751577815799057
0,0581581259612409
0,058795982933847
0,0621126710507928
0,0575130292542701
0,0641931974649799
0,0967672272952668
0,0729803479816557
0,0702785092570216
0,0830286449158827
0,0689973579146907
0,0602355730083666
0,0598235902332355
0,056119008765592
0,13486913917258
0,0811975575209935
0,0643694950726376
0,121244319365491
0,086048661544498
0,0788678944193692
0,0719371837303421
0,0471066003069121
0,159399931888902
0,117981755467941
0,0694306406281572
0,0671969191425164
0,0829421400177931
0,064021258839189
0,0725961752937965
0,0650592545037895
0,078902261628014
0,0974340706878069
0,131681142688777
0,123720225124874
0,0601096004980226
0,101132012680232
0,094440964146151
0,0649325919961724
0,0710202914759018
0,0704347461267463
0,073721034464064
0,090278001342264
0,0823471620085795
0,080620256961206
0,071139869074878
0,0756815977368214
0,0954138302864645
0,0729133006034314
0,0656259880349452
0,0730670850201717
0,0825092218294808
0,0664971815221166
0,0671764872213499
0,0632422113390566
0,079522279774445
0,0614454420716479
0,0678234963843334
0,116879707894082
0,0864013722315948
0,0753836451457849
0,0986954895105798
0,0726377443138361
0,065498063942776
0,0653742625785419
0,0672179932015946
0,0684712899706868
0,0670568690717621
0,0645214225244146
0,0985425226876336
0,074619459868694
0,067907323906765
0,0704719775014856
0,0658544707577773
0,0644204191056923
0,0710798110806164
0,0664649747659979
0,0680829497675176
0,0715669575297501
0,0669395851465714
0,0933351823891523
0,0981288777164502
0,0661634360835991
0,108297302432609
0,109809709962272
0,0803684195426324
0,07669394782219
0,0726533655234167
0,0767894493102576
0,0738857111646219
0,0758535116479354
0,0738210873044649
0,0784229340015225
0,10000427528385
0,079764249715357
0,0742270523479247
0,0903954049143286
0,143532563326713
0,139350296201827
0,100872234369909
0,0842036457624858
0,0651645222249504
0,116665971970733
0,107688941935626
0,0991110746286956
0,116023704207375
0,0881901608714478
0,0899914102808681
0,0786240295263316
0,0865371402382015
0,0859284600535967
0,0922139495035733
0,0928648908655356
0,090354919243223
0,0903442561786251
0,0955298981330161
0,0859976066570397
0,102743013194853
0,138381142040419
0,112245295580498
0,0969567153245361
0,0940494236356644
0,0879880327907335
0,134834493602562
0,145012981839349
0,150855972184122
0,13703410660246
0,144198090049675
0,164650095170654
0,125447348844332
0,117731129572241
0,115054279084596
0,122227873415834
0,123658860313879
0,128005390074501
0,121002793590179
0,119449657561931
0,13428720604217
0,137537083679499
0,129705653496488
0,129073008320887
0,131519527029446
0,150526638743863
0,148498083800007
0,138928982890626
0,129329298751896
0,157934109172659
0,210199843647464
0,207131769490122
0,167493544822069
0,150739375863497
0,154980124595428
0,148563131648134
0,155084161457581
0,154760471315835
0,170834342984571
0,176059623839893
0,204402885542783
0,195888421092806
0,192746776436825
0,182741764173479
0,166239458247186
0,193203312461294
0,192986391964269
0,193750499676158
0,212235993402991
0,189226176043579
0,181191785997931
0,218428167046698
0,218453202717598
0,210423599720515
0,219877426457343
0,200163002365825
0,20173780948734
0,199992471722828
0,205019195340494
0,211943587267601
0,220748232391737
0,224094130495673
0,230096632198039
0,226392919863011
0,225946652159278
0,229399198072619
0,236885695042295
0,236851223091321
0,24473417919208
0,243806965382217
0,239553073336455
0,247069695690956
0,237104626267669
0,26931465604449
0,2889579424282
0,281452813248058
0,281246906350768
0,255392459301448
0,258147622841324
0,260824593493315
0,268864516377351
0,267102780987851
0,271933573530374
0,283314229209933
0,277444789618778
0,275586874206482
0,281489448435755
0,291346666484909
0,301219678721376
0,298888650373963
0,29473316781696
0,294407074935543
0,306639394031242
0,296289357922521
0,304326996554058
0,349972745367865
0,358199791239956
0,375623361500352
0,37337813768753
0,341132097505682
0,332593792087592
0,33381248779624
0,324635496433652
0,329198032105371
0,362481359439748
0,35196511651516
0,350163983716153
0,357538353995171
0,362320953933243
0,368150031803187
0,367992854687495
0,384915591374038
0,399499384022887
0,39112559650799
0,389930226022993
0,389704869516703
0,39061914569652
0,40072125961198
0,402786031495443
0,407165103004762
0,409629037575852
0,411653389426375
0,424824341854333
0,419118358091871
0,403439415385992
0,420178113391446
0,446669483306601
0,435105790679975
0,436007774962472
0,444211675217326
0,463130124451296
0,459685128655551
0,450344468288337
0,453405636087684
0,455915527811442
0,448554878741395
0,443077701771135
0,483455347220299
0,485881366635356
0,487660529772962
0,481183961567538
0,497041300009395
0,524320228154778
0,499201577304528
0,516505725286021
0,514767012746216
0,484135570012412
0,510481757233065
0,510272005941577
0,520974689114812
0,517578133039592
0,523654909879034
0,53476315764203
0,540758654297737
0,540477067170485
0,531686869286089
0,556624582407327
0,57991546184622
0,563428031674656
0,56050972522937
0,560012339790497
0,57138641584458
0,562651233714632
0,555543427672493
0,57722436431455
0,597916090913666
0,619499902040659
0,623528232776657
0,593086050490004
0,598137662840969
0,609305676229974
0,615339432728237
0,61754383627225
0,617489284912599
0,611645359347477
0,654308531803556
0,658928681275103
0,652825999894375
0,644037522187067
0,633773450785358
0,629071444296856
0,6509712203878
0,642920025806591
0,664369423784538
0,673447342356642
0,657295695840745
0,674231358711082
0,685703002960371
0,692709056276022
0,689283806915238
0,686945813816627
0,710371183615723
0,69709131648907
0,711686968001941
0,711481910334082
0,729870526873208
0,720868317858554
0,707963695333759
0,709655181955823
0,737160621494504
0,731045496942746
0,721927930205293
0,711746503313552
0,73629478248895
0,737142074068558
0,773256996460171
0,764798377112487
0,74812578772575
0,801961611509176
0,793133173228187
0,758967105759219
0,784083337093219
0,773486652336869
0,806734304394864
0,787148130176195
0,802187844518224
0,787704383165133
0,7910743134011
0,815913938560105
0,837490495521182
0,818723996847523
0,818461011762228
0,818687325661384
0,830329709502522
0,789440292988311
0,821747011913787
0,83994812736078
0,861114100729492
0,866352723308773
0,833006214629326
0,839514638347877
0,857585486773483
0,82339454247909
0,830030607946748
0,884324875562748
0,868199738516113
0,808764592747682
0,85837024744854
0,843794854187608
0,872190441880706
0,924837438055599
0,889848345387645
0,876081188352402
0,941420360925002
0,925168332234858
0,96308409163346
0,938620263145019
0,944434697498842
0,962181109905971
0,943169746461566
0,888291272483869
0,906036225948616
0,911246715645409
0,960508658878693
0,967557833766756
0,955202253013708
0,92096942799942
0,987830268634853
0,935768186049885
0,936307165707309
0,999509940052894
0,940586299404855
0,897054222405239
0,994030513735283
0,964279978635016
1,00740917150231
0,989325635336434
0,990718478496247
0,975410533436133
1,03612245592247
1,01865970045783
1,02322949522489
1,02315271150311
1,00529782778615
0,969190461778615
0,999217132255534
0,999220327327427
1,02890296330178
1,00221353897193
1,03729707720772
1,02106606465472
1,01107379594315
0,987214325047267
1,04466743094706
0,994903729920115
1,04023038008673
1,07841647671871
1,02984948976657
1,02874719985336
1,04471729712455
1,08206569969701
1,08840612666195
1,01432241559448
1,08361737774721
1,18898402837444
1,10709119599103
1,00202599447305
1,07031748596694
1,03406317069569
1,09096982407411
1,07305623718593
1,0652582760226
1,03504980437219
1,06704902641099
1,04670845219098
1,0371944056602
1,0390532707441
1,04112988539562
1,02042158892248
1,01804616591017
1,04321273390415
1,12215494911599
1,108701986179
1,13625269778144
1,13271110423532
1,07757804485928
1,10094136487112
1,13793469194249
1,06801042397835
1,18576747428274
1,11125657193723
1,14236928978466
1,13371960912297
1,12102401670119
1,07469962182183
1,10381314967639
1,10615854437753
1,13100098413722
1,11289472558739
1,13673730377807
1,12214040552227
1,07540008903772
1,07529647557213
1,1030952497472
1,05125540158179
1,11429179471247
1,0663484452768
1,0614694176777
1,09006590437224
1,18537240656471
1,12833866864908
1,11322632172223
1,09317734384716
1,15941851487448
1,07685948276194
1,09935310413347
1,11408269557014
1,16012547799798
1,0773652977431
1,1572720924831
1,09961051078413
1,1360306564604
1,11404096403716
1,09381138804067
1,15364800941778
1,09748741024657
1,05429126045594
1,13686680576325
1,12944851998986
1,18649894718666
1,14686365877639
1,16092777617189
1,11265632995002
1,15704065281514
1,14897759454228
1,0831360488094
1,06757347900583
1,11999843601295
1,11321763396992
1,11990336958912
1,11587102062884
1,1282587870494
1,11762294279205
1,20262678483917
1,09985106411719
1,13530623787159
1,09537455728409
1,11530365749575
1,15662465024122
1,18979568965844
1,10958952020983
1,13847605641694
1,10968209840279
1,10071152079867
1,11108189006421
1,16558132528161
1,10918087174378
1,05888252723531
1,08410044301489
1,14066616949318
1,12449817929988
1,24114030007457
1,12237085966036
1,07270481019331
1,05198338070193
1,15237908612179
1,16297584868135
1,15389577236156
1,14488194053033
1,10817977606333
1,10553254021119
1,15592876165645
1,11218223945775
1,1238822105501
1,09199507411821
1,09071199104739
1,11098875054106
1,11042519463424
1,07479986458246
1,13029558744141
1,10545809878932
1,07866088268057
1,10778565736948
1,10914217998313
1,04363410144049
1,11123941614538
1,08224040303057
1,15246465919245
1,06283291724192
1,08257169131445
1,12978380301284
1,08646235763736
1,07010359610542
1,08948722396732
1,05008825374868
1,05123701139212
1,05449314085367
1,13310014832229
1,05701324048552
1,05778118883693
1,05483128059367
1,06100136222309
1,05973696617386
1,08013832734549
1,05256851632354
1,03445980885578
1,02396342729809
1,05530664902978
1,01605404528203
1,0390148875162
1,00368361529084
1,0222373095649
1,0233860692309
1,02333545811441
1,03352459161977
1,09231700215149
1,01565034161146
1,00753304140505
1,00474289188463
1,01232101241539
1,00305236316378
1,02088171501882
0,983004941585214
1,0490156839736
1,02519665769551
1,00667267927397
0,983283035127955
1,0308445400409
0,971206573500014
1,00593643916644
1,00781535348855
1,02814404746084
0,975166130703568
0,979487652532085
0,959494805817192
0,995354928993247
0,96244101174037
0,991625202042163
0,960178071456691
0,975965958602611
0,988606555313921
0,970636436236731
0,934802486600443
0,998991640583788
0,928361381551004
0,937928719437601
0,896178110435401
0,963227507485737
0,927092165124223
0,919458027206702
0,926465920759629
0,944620783778007
0,904826058877553
0,924384828862266
0,874202595512053
0,916090679948208
0,901784841004081
0,904441365998909
0,899259775864857
0,910095179336712
0,876461731036378
0,882253985104672
0,848271990335725
0,918315858180511
0,878620070841171
0,885857012758432
0,887728096429261
0,874207039491878
0,848192262594645
0,851948607056576
0,853593443491993
0,853556143974926
0,832721065125152
0,861513268636498
0,845160910025219
0,831105943695861
0,828711847527822
0,854169394488938
0,807047922056518
0,822113223138966
0,802895286481169
0,802686971627321
0,822197784930158
0,819081541284269
0,813337745763212
0,809712311824943
0,804711790267938
0,79219547608554
0,80054644778196
0,80048957166722
0,763338146794876
0,787125660484447
0,781478942845709
0,78356411339631
0,753035474201898
0,781781984970423
0,756881701109371
0,750143306228385
0,75257829451082
0,761455390636825
0,738874695272277
0,754002880896598
0,749004541786004
0,753001008193271
0,746557034368521
0,750355832302795
0,717580720864672
0,721532935979995
0,700764942318205
0,730637672929541
0,708715915513436
0,714830446511018
0,69092164492313
0,702684681678259
0,691561951792406
0,718613310441396
0,682774304625097
0,687375869608357
0,691154423662617
0,688599546157497
0,68210884455113
0,679995804079522
0,671261328878501
0,650719294106057
0,637287982654982
0,661319393618499
0,661547751307983
0,662530978616314
0,64408278754912
0,639185215707516
0,629515354700908
0,642888818383409
0,636488932531427
0,632716648279659
0,633961028853283
0,631362384340093
0,624994226317562
0,619787423142149
0,602745417449733
0,622823039246909
0,5975239637206
0,610016326822931
0,59235675516886
0,597711339179736
0,593800382834832
0,608266501595863
0,581917249711535
0,584563762343458
0,576950329951159
0,579784863570737
0,571256039097418
0,582518783480583
0,57655757242266
0,570881985758332
0,554784641463847
0,580479147772354
0,556396625961364
0,567532609812682
0,546909238922741
0,554003468426419
0,547302318772158
0,537366450701202
0,549184223988954
0,545142068652434
0,52975749036393
0,5459933287812
0,524169208673589
0,537984503880198
0,521056000026478
0,535277305108249
0,5105225144152
0,526093234696573
0,518352259642412
0,518364312212314
0,507212985445711
0,51258708282834
0,502331105629136
0,503889527741373
0,491708042136552
0,506454653840024
0,495674508045161
0,50519288738948
0,486015512298892
0,490818668825355
0,481451872211407
0,487399130547001
0,476563227709576
0,497837048452305
0,470611685425944
0,474753101505964
0,469757897183617
0,479664810632648
0,463032416720906
0,459338703940361
0,458424371204652
0,469476311930216
0,452312718039962
0,446578227192072
0,453704577106314
0,462088946445059
0,441468712886992
0,449669138648789
0,43270447599059
0,445675322683873
0,444311454492698
0,443537014327031
0,433495623671414
0,43218959211051
0,427581744607321
0,420402942234932
0,413400303346447
0,422968800480491
0,424919551040588
0,423307997056106
0,416694585211186
0,414489083937078
0,408756251499562
0,406868528361988
0,400951617330542
0,409680459475666
0,404369804458471
0,39650537663321
0,394674759691815
0,400426932202225
0,392880724023036
0,393755840860029
0,387145054598144
0,389407830705795
0,386811952462727
0,387572812361837
0,383874417187728
0,380018680364514
0,38029968734684
0,385149774183267
0,380153734842037
0,372898636928875
0,363810975354849
0,370863331980469
0,365474827527136
0,367980284028248
0,359097584943478
0,369150795849342
0,357736285332198
0,357916496633617
0,349678738339502
0,355394731444618
0,350636323924191
0,352485965928983
0,348105381393732
0,350258826202903
0,336525445939963
0,343615387605491
0,343019735680773
0,340459396811916
0,339850197456161
0,339951022737654
0,332496443429647
0,336684836403853
0,340927622197962
0,327895007736412
0,328646675537848
0,327286378441222
0,323957852285779
0,329180059549344
0,324199820803004
0,325289137162048
0,332385741874478
0,324814117313604
0,322317515818414
0,313741375833375
0,319119145547462
0,322656680987641
0,309500498105054
0,32102063010534
0,312304256321739
0,316127898020207
0,313246011619839
0,317070166728279
0,300086877914927
0,309135173900962
0,312033352880446
0,315972110145647
0,309841473445025
0,308210715144782
0,305626832709028
0,318356094070874
0,312493250675959
0,31627498939473
0,313208504542625
0,319245745053479
0,314244824005161
0,313439615561544
0,316377332921894
0,320160975766094
0,316774189373251
0,322567348766506
0,321325729060799
0,328837806651266
0,323781545079745
0,327166790037762
0,322227405796588
0,326771569303826
0,329284973702063
0,33161204693835
0,332036631155406
0,334126326164747
0,334901671902951
0,335266933580627
0,344024680194211
0,338619374852016
0,33800016508743
0,349928350756031
0,335663045744953
0,352021788231074
0,347232209767177
0,347071411072089
0,346384701615292
0,350486470093868
0,346223305827745
0,352367342080367
0,355028968501179
0,36410352152932
0,359793935560644
0,369041174973219
0,35778585779564
0,370997517946967
0,363349642625857
0,368263498781851
0,365366110627792
0,380148234164847
0,376057378852404
0,388319309436065
0,381114360092415
0,382084910100343
0,380923929040866
0,390710452972206
0,385599120022622
0,401510689577454
0,396384190136871
0,396058670213162
0,402252573297073
0,407837712869948
0,410352782696954
0,412519182186486
0,409010478429488
0,41853596211977
0,413307224454926
0,421732027780604
0,418788939479814
0,424840651222138
0,42178395082086
0,429940706901645
0,417432777784055
0,433995092071139
0,419090180145038
0,432478068341214
0,412244323690927
0,429934818896282
0,424320087961525
0,424338538785164
0,419999537885412
0,429102181062384
0,414060106800697
0,422944841610738
0,421285915119262
0,427128741061492
0,415059704941183
0,428830166873804
0,415216442712266
0,42689632571924
0,41768449254648
0,421936059441259
0,42061974163397
0,416108340551473
0,418563195269407
0,428408976665142
0,410171241516746
0,43007898599673
0,411590906657566
0,426543812891332
0,410416491611186
0,423312424842894
0,420730644440026
0,424368487926519
0,428018739035071
0,421292774209071
0,419671446669579
0,420141132001861
0,4235273831083
0,425292541516134
0,416739186492107
0,42128160144505
0,413012527276854
0,429764718077191
0,423648792058957
0,427257426204969
0,415877168652069
0,416936238046137
0,420264914811962
0,423455761838827
0,416275791386676
0,415406606174237
0,411414499905336
0,417637727117619
0,407900356109707
0,420246768703866
0,410449811671855
0,414092010818926
0,409585554749792
0,418050512131732
0,40299922226192
0,416085507493949
0,405406754321572
0,400545207504206
0,395253708797022
0,401477993026758
0,393147389951655
0,391797707098832
0,386600347518631
0,389223774090722
0,390723711023858
0,381114088129362
0,370311387460729
0,375407668259076
0,378669102868496
0,371654750865923
0,368698791864098
0,367210357554395
0,35201012988254
0,355544812460487
0,353149423035428
0,350853546378066
0,348329427491648
0,352594612312167
0,336730076694307
0,345862331652784
0,32902835026194
0,331192355863799
0,324191804429868
0,334390256141519
0,320062295810665
0,321705932317494
0,320397608583801
0,325820182331029
0,319276252840323
0,315571054977699
0,30911938451414
0,311249250403106
0,308220416518029
0,303187168130622
0,30215960754881
0,307049259607666
0,297518250178041
0,29855296354101
0,284698463272509
0,300334984995105
0,295190598214223
0,289650266556133
0,29186769358087
0,291387141209222
0,293415427249294
0,288397403536077
0,285946860951761
0,285628107895965
0,277946390066225
0,282043307338189
0,280121840740198
0,280138062986425
0,278786455060016
0,27640326140836
0,269437007634361
0,268657715005649
0,266605181142557
0,267905940209207
0,262292476968374
0,263956406093729
0,266165504680221
0,269805377310077
0,262593591290453
0,261598752672127
0,258160885704683
0,259008391719411
0,256165890512974
0,260958623254653
0,256337576321754
0,255492143721103
0,253014488362273
0,255433978164424
0,24867977684337
0,253066254534931
0,250013512452437
0,244937797818199
0,246394423807716
0,246461367323888
0,241999810779658
0,244187191396603
0,242687548626723
0,246432553232958
0,236914741474357
0,248449595769058
0,2404173263546
0,241962729115616
0,241124466754864
0,236131238106221
0,229961181277375
0,23443946511335
0,237938390931133
0,23705564351933
0,234241154588032
0,237320578514825
0,229043915929282
0,232222583718443
0,228895869985892
0,235917676068236
0,22554721391536
0,227827634542238
0,226550429603268
0,228715702512841
0,226030344875176
0,227705295964301
0,227769969144586
0,222375784027915
0,225166248987771
0,224304549679476
0,224135772748446
0,22302594519528
0,217240675557725
0,219075700009093
0,213325861863991
0,219716309776376
0,214039532747122
0,213664994580486
0,216224437700005
0,219882725975938
0,21298663702695
0,21694623567208
0,215031015670232
0,21755564743541
0,208308364416704
0,211900923247112
0,209760498130327
0,208692264150255
0,20862019431309
0,211697988816892
0,209214976417453
0,210298140741119
0,209595158138383
0,204192102932496
0,208784975265354
0,208944184718256
0,203960746510756
0,207152807840853
0,203953685994028
0,206103266521263
0,20391899112651
0,208729969445892
0,202118011769767
0,207848113231495
0,202233424929087
0,203167212103149
0,20057108984729
0,199109895229483
0,203223632107399
0,206136066502547
0,203524751237744
0,205235495549221
0,202613406542147
0,20030080848303
0,200458100506738
0,202140010274973
0,202188337637925
0,198595950459853
0,197430542194538
0,200454031380935
0,201393359739904
0,196710217932351
0,196390326717468
0,196909599187959
0,19484879278557
0,198994636570558
0,192375826735787
0,194666553947328
0,197789255964376
0,198901260100404
0,195361408546262
0,189494888131786
0,190338884587733
0,19481706506736
0,188605196479916
0,192610336530277
0,190232507932766
0,186869045371017
0,189193783679042
0,19014126004749
0,187721837630624
0,191929889429808
0,187611603888004
0,187590687474848
0,185784790175325
0,186844356141825
0,184039078925076
0,18512939117879
0,179339637200829
0,185113547419023
0,181953882399786
0,182669078771317
0,180110105180042
0,182258807470326
0,182324890676006
0,180897115534879
0,179975931917253
0,180118919522176
0,176677386101429
0,176984683885396
0,178255716360777
0,178536893584565
0,179017362801613
0,177027801825187
0,176437700353873
0,17427664326096
0,172598869442645
0,171596647595541
0,174818401980433
0,172892574132615
0,16787663317281
0,170674585576868
0,171798000478819
0,175197192751688
0,170261015142572
0,168964286047991
0,164003858247929
0,167251557903108
0,168482293349124
0,167814606835253
0,165462020757132
0,167294947240711
0,164017167156602
0,165378698336743
0,162037653828335
0,1661742415231
0,163510846486629
0,160915186888677
0,162358804176724
0,159686144458796
0,159812918670021
0,159210871228031
0,1575887761541
0,158177107076592
0,156915821728488
0,153644460677336
0,156337546066057
0,155564851888368
0,154321444125447
0,153821431345438
0,151459358828374
0,150515073963719
0,15093595711908
0,147944617565961
0,149667359604041
0,150625818790225
0,146891267873347
0,147763903757937
0,147577083643248
0,146168600922546
0,146970695994107
0,141209917399637
0,148564860954693
0,146064960425615
0,14269966180633
0,143401676589593
0,141444188864087
0,139848532820375
0,140173076144018
0,140097611647741
0,136243894330311
0,137042203292936
0,138363237367444
0,139145223954963
0,137086295082161
0,13492289949317
0,13797964458135
0,137582879123006
0,133597561541153
0,134868639768333
0,136148396738411
0,132947319453135
0,134092357945884
0,133978692982579
0,135027995756558
0,134124386407757
0,131448668316552
0,129272500753977
0,130301328852496
0,129861611937242
0,131054299141759
0,128467449609131
0,129641485675939
0,126160233947185
0,127876136759906
0,125712088762769
0,125432810710984
0,127284427323014
0,126523173381902
0,124824303796424
0,12468895153062
0,125670484447411
0,119816502136676
0,126993855393478
0,122014149577372
0,122411279122859
0,123466281308521
0,119182268189619
0,121147959026073
0,120198779623951
0,117739377648802
0,119769862447871
0,119329302237433
0,121156915383269
0,118246098879563
0,118618491300913
0,118600569843273
0,117577931331941
0,120461950872741
0,119234220817697
0,114451243305963
0,115110775945755
0,116091353007859
0,112817402401519
0,111843656330136
0,115252022420796
0,11200079822519
0,115299717668298
0,114680556031769
0,111737230909719
0,114135930008617
0,115417193745294
0,113634929835587
0,110560955690821
0,112413913925597
0,111148566482371
0,110725989012999
0,112532870760539
0,111525217895185
0,110043795007157
0,112820170593334
0,11074559333035
0,110267137708494
0,108795673188789
0,108360884861736
0,109926622117475
0,110211358096241
0,111087325497329
0,107201390902965
0,109692477174132
0,106643211008228
0,110189913318901
0,109530564586929
0,106425660858694
0,108393074125451
0,108405838380477
0,106835946459533
0,108479462018562
0,10551564930263
0,102807934371053
0,10481142461082
0,102489308680157
0,106919181689892
0,104340681345823
0,102735154600516
0,105260634059776
0,1070190639083
0,101882062619912
0,104260487264773
0,104273276175739
0,102125689367904
0,102595884327473
0,103898939047413
0,101070659613049
0,103134825211555
0,100581088063075
0,103823822746831
0,10519414018166
0,102482509234945
0,100006825119724
0,101114744396159
0,101042937737659
0,101565813494947
0,0993983899286613
0,103200956803007
0,0984573185345911
0,0958192795566028
0,0959261241227056
0,0990364126997152
0,0981276368783393
0,0977648194532125
0,0951963285017918
0,0967544666907832
0,094767954593711
0,0972082330996116
0,0975093415221548
0,0973900313041159
0,0961245268733026
0,0934321739671153
0,0979904558722556
0,0966872716158655
0,0984579246282788
0,09803518173937
0,0997387036849924
0,0960881286956853
0,0944868988154541
0,0933661800926204
0,0928025721925798
0,0951310112185379
0,0964300566646634
0,0959534169030426
0,0910434084929793
0,0939771033600089
0,0948401795005372
0,0929244452641569
0,0933371642824509
0,0937294384962384
0,0943064636721821
0,0918734971987873
0,0913330065679913
0,0927437788851122
0,0919126507067802
0,0911341905506479
0,0918727234583006
0,0889392867560389
0,0892753893431591
0,092167745436669
0,0896797691350255
0,0895624374392213
0,0872535386291439
0,0865786822587163
0,0851962959499966
0,0876020168647205
0,0898763312554265
0,0887156128800835
0,0872222565997975
0,0893112905644217
0,0867697372254772
0,0864900386001744
0,0833958257266099
0,0828354572119013
0,0821770032834477
0,0857740770715542
0,082816363523447
0,0808471375650845
0,0804770442784715
0,0858672693058902
0,0828087209058602
0,0805171099542997
0,082758071884443
0,085920243224994
0,0801122569236562
0,0803627861750887
0,0757332355595192
0,0804492421084949
0,0795562925666376
0,0778533733536908
0,076653513875798
0,0798890927612817
0,0803645993505069
0,0782322933665288
0,077946728514278
0,0795352969360541
0,0788043581560504
0,0768472484727134
0,0766542689925421
0,0798643282440228
0,0762816458716073
0,0793288677998574
0,0764309227366556
0,0785803691343889
0,0788004858920065
0,0764745429931986
0,0738781685007148
0,0757444801558758
0,0718698032985115
0,0755838616068989
0,0743241262208098
0,0779658613798612
0,0728276648773659
0,0726815740279967
0,0705557458794375
0,073567480484189
0,0711137327569909
0,0756961883334068
0,0716370515286307
0,0729800410071663
0,0693950938697609
0,0730194864176102
0,0711360017732027
0,0738814695821294
0,0715522734357113
0,0712948988996963
0,0701754874165777
0,0710313840394974
0,0672983987617558
0,0703029734921797
0,0696541376400539
0,0710256779973222
0,0669083895697255
0,0726543638918736
0,0656709829597997
0,067329859486579
0,0675579527990152
0,0693420446263231
0,0653036297043149
0,0669554981882366
0,0647096285349977
0,0686128914778248
0,065228415981877
0,0702703449990627
0,0647973968237629
0,0685348598016217
0,0645676354798185
0,0660054336068697
0,0656490388237769
0,0665929668349168
0,0614471531985054
0,0638873193438037
0,0620673670099098
0,0651914595746881
0,0641379972124175
0,06825007957565
0,0607047953381763
0,0646634362713786
0,0614871223093924
0,0657517458194172
0,0625748660365278
0,0637186460248973
0,0626157365374452
0,0652009774663827
0,0629355050032305
0,0670280503981607
0,0626658711952405
0,0658971029089826
0,0638483988790196
0,0650779625193775
0,0649791610510971
0,0728316761205717
0,0688475131985542
0,0720094785413176
0,0662766337163891
0,0717985055122866
0,0636691078740386
0,0759431045181953
0,0691659231116972
0,0723548051474929
0,0699879900400486
0,0755607086473502
0,0664830315050109
0,0743936649612611
0,0668727706757841
0,0733298331881782
0,0670319507529821
0,0749820362088236
0,0650462666526147
0,0743106697810601
0,0700690851290064
0,0759727551135277
0,064253722410483
0,0762118783886784
0,070252812229525
0,0757517325225415
0,0679991069706331
0,0779494051924332
0,0645883023531698
0,0732634465060688
0,0606645396688141
0,0780370881947301
0,063042421108621
0,0710520411888664
0,0561002242545282
0,0733554722821077
0,055994973727349
0,0768569810709015
0,058382583164715
0,0725429601557571
0,0566454188779852
0,0775074404098235
0,0591516077242723
0,0753001541374664
0,0552571322839238
0,0746516017480184
0,0546471282600626
0,073012337554354
0,0521027923553157
0,0709486313367484
0,05658781308641
0,0740767678074576
0,0564816247595821
0,0741079637296991
0,0595768195504202
0,0721336981052615
0,0642907872729254
0,0672474886801031
0,0667168100621234
0,0629622459735841
0,0752743952322677
0,0571548441923537
0,0797654910217394
0,0518150312284086
0,0876229905357712
0,0409913371667732
0,0880851468423446
0,0387316829531495
0,091989964984618
0,0355364577732858
0,0874626158055652
0,0389557237715571
0,0844276754186416
0,0476066794906869
0,0767591429250473
0,0566109265038288
0,067223033653017
0,0615879853494691
0,0593062576114421
0,0618309782906697
0,0561020635031819
0,0580095041320388
0,0562125647365436
0,0587469635929321
0,0630765174648835
0,0553271581090838
0,0628388783501592
0,0521157557127872
0,0594675301818643
0,0528928255817729
0,0606578517393733
0,0545235442877722
0,0565195632146423
0,0551518259501116
0,0572953670625408
0,0543254168077568
0,0587979740364741
0,0519375233331066
0,057776664163236
0,0552657196466771
0,0564303515964798
0,05139236941476
0,054741309166305
0,051650149902118
0,0547924047356847
0,0555374477282983
0,0581618263318948
0,0545329773224741
0,0557866477008875
0,0525439149091156
0,0568822479144014
0,0521640464125995
0,0554934258163273
0,0513093944185195
0,056411310303256
0,0553969058443693
0,0558003827542558
0,0531181547889698
0,0560638428077452
0,0529201686712556
0,0566880349182946
0,052749722944869
0,0574576665575771
0,0552445612531005
0,0562369063792745
0,0547166249728828
0,0565878819706861
0,05333385449918
0,0552421062395183
0,0534404804095827
0,0539894780126317
0,0539027346507166
0,0570475984606256
0,0554803908818279
0,057747105013605
0,0534724178582003
0,0526220364530655
0,0559010704520519
0,0573639648347857
0,0533703370629104
0,0559260821056745
0,0556751138671712
0,0559751424810421
0,0548350899552204
0,0549391976640196
0,0568165296148662
0,0562958624466411
0,0529108613575597
0,0545955946138603
0,0552717325486134
0,0545973139451011
0,0536139831252469
0,0570906106017837
0,0546477076393128
0,0551347088791766
0,0543155658021684
0,0556325779801448
0,0533424365651433
0,0543141438974461
0,0540161362041762
0,0553493836682008
0,054422657628139
0,0546025880508281
0,0534473236239142
0,0537779643468065
0,0542776808489249
0,0559982442262054
0,0546778801820975
0,055362993356681
0,0549329842117954
0,0542916328791472
0,0556078896333601
0,05625165278477
0,0551571825804675
0,0544406133088728
0,0563563286382705
0,0583477078734861
0,0568473840491671
0,0538439326044027
0,0566425359087331
0,0580387168827288
0,0557230561995723
0,0560869975191009
0,0571628548515758
0,056606116983617
0,0565600073595361
0,056816995276432
0,0573007561144878
0,0581844659615964
0,0557449727029519
0,0561491275160178
0,0579783768865807
0,0563753651913999
0,0565414577391584
0,0570826448032387
0,0557111983447881
0,0578131032893408
0,0571336945788481
0,0568369759118832
0,0572545783099399
0,0567398688218375
0,0575608755007061
0,0563158738614665
0,0579113900310652
0,057846186366563
0,0569572986770242
0,0572961803802979
0,0559757075615063
0,0570237877092601
0,0575188363834513
0,0577635972593223
0,0560832729317412
0,0565748293627262
0,0585020099378345
0,0587133463458753
0,0582532668399191
0,0569258518793854
0,058263433445283
0,0587099549710929
0,05713536012798
0,0594229719967939
0,0586831761683709
0,0578819317969713
0,0577886759741542
0,0583522198820281
0,0579666965985255
0,058225433257243
0,0597777830731036
0,0598469329188373
0,0587037727502708
0,0588305000911673
0,0595932551019699
0,059232785760952
0,0612892440430077
0,0589201340188898
0,0585759177214429
0,0582023188492531
0,0600105043098043
0,0592532657141882
0,0619034629457518
0,0593869145196702
0,0603083434019341
0,0613944388849962
0,0613636818596341
0,0605836879428249
0,0593969857093815
0,0598606185748874
0,0615205630831866
0,0580327774219673
0,0617098923898202
0,0609640850937465
0,0580115565160973
0,0602868617045917
0,0617974965904631
0,0608989224553502
0,0583140010283246
0,0565865942899205
0,0597280260543054
0,0590556632676535
0,0588428556154512
0,0594225960179465
0,0617160481962215
0,0599431057803273
0,0584622172482275
0,0582365528197299
0,0597747566260743
0,058782077808962
0,058618732286305
0,056683914899548
0,0593495695413426
0,0594454585016339
0,0571371183421085
0,0578396867675205
0,0580901202055187
0,0569806904616662
0,0592678543193342
0,0587973439545401
0,0585247797293613
0,0573085401572748
0,0587048760775419
0,0572564177634573
0,0560109095709518
0,055559880825937
0,0577257934817317
0,0560158447397569
0,0578299174084509
0,0561186236958983
0,058937353610532
0,057150162545548
0,0565792086376039
0,0560526247896188
0,0551185855707175
0,0555636278473966
0,0584987783088177
0,0576745973615775
0,0572088378998928
0,0563049483537236
0,0558007199091635
0,0543780792529353
0,0551879048941195
0,0576068807962254
0,0570132631873291
0,0544357312032275
0,0559488305694661
0,0561152964407119
0,0584428927114033
0,0548343701491405
0,056088558805448
0,0548809396736445
0,054222614861086
0,0539683608260412
0,0561290383906081
0,0569166351237591
0,0550138801826237
0,0541792869749318
0,0563863238913967
0,0523459144494211
0,0539262114411671
0,0547108760539302
0,0569732320688952
0,0540066468652125
0,0554501247661587
0,05676848334817
0,0560388764843548
0,0534904916033045
0,0558667260958642
0,0534607265714832
0,0545936285107028
0,0548613954239257
0,0542110656256625
0,0528958502963292
0,0565416580124584
0,0520638703750528
0,0550396592649891
0,0556536825445725
0,0540045940343681
0,053576487191837
0,0567679037097801
0,0547075588717456
0,0567916585801295
0,0529317027035909
0,0545507648390548
0,0544685277218434
0,054267790846216
0,0529793799911854
0,0539354746095663
0,0513938178063508
0,0508656411617678
0,0537557325190661
0,0547677343420941
0,0531614863190133
0,0540609077825719
0,0524220707626977
0,0521377853143959
0,052483639734514
0,0560227429364792
0,0538569049113574
0,0531643438555951
0,0527083999048513
0,0535421304958163
0,051489023055852
0,0550086162843808
0,0521349193769969
0,0529364087042435
0,0528859510031934
0,0539714170294874
0,0525455511236826
0,0517480812379803
0,0517870073692295
0,0518561297208273
0,0516616057035177
0,0535323912883566
0,0516388321126796
0,0516784702157233
0,0488727203505596
0,0513760136675478
0,0502279686968918
0,049356516356656
0,0497401250164688
0,0511760086434853
0,049494717974447
0,0511262520955047
0,0501088609493984
0,0511986095379614
0,0488010209227506
0,0498476924341881
0,049638745874305
0,049794021367847
0,0506777217312263
0,0520700136746746
0,053737056837277
0,0523337370717678
0,0489713256332792
0,0492318568214911
0,0470497035322664
0,0490300236973532
0,0476875137789967
0,0488810362826681
0,0469563737161773
0,0475602657334905
0,0447433319513931
0,0480983863521488
0,0463046853419015
0,0475930851568494
0,0467747178545814
0,0477514424493342
0,0475722252134963
0,048008464842184
0,045912492121148
0,0470995572423816
0,0452740965340927
0,0454803747623876
0,0431220554152962
0,0461108244408631
0,0449571495151009
0,0444666130447003
0,0488615271112024
0,0568699947766339
0,0449313083839476
0,0465147315077007
0,0481639985390111
0,049607196825032
0,04408482303506
0,0456542971284642
0,0453957373648091
0,0466269522311205
0,0430149310922875
0,0477455492458259
0,0475170140874973
0,0465014105372331
0,0442266512960012
0,0459247431164365
0,0447354172726179
0,0466066742685476
0,0444342834436235
0,0444559422411543
0,0406565606831546
0,0437428252281597
0,0445572004862293
0,0452205652737684
0,0434345658986321
0,0438746571592926
0,0433244362875275
0,0507445965850286
0,0486335590324818
0,0470966939788716
0,0444500815295917
0,0426079619598616
0,0416397123924752
0,0424392783814138
0,0428217928282853
0,0429484468100066
0,0402825459411022
0,044835088237068
0,0437387344401006
0,0434823499055219
0,0452047063888173
0,0464180108346278
0,0417897227045844
0,0441556831330701
0,0410421282363813
0,0436663151488194
0,0399745040570127
0,0395280375857726
0,0390862374810694
0,0427027457537488
0,0445298656888383
0,0446839039586738
0,0406445509211007
0,0484896034801036
0,056602884902524
0,0476085730826548
0,0414272531122303
0,0430070884358624
0,0399389350641515
0,042284871220125
0,0400053323071233
0,0436037950084587
0,0406647143963719
0,0431407140365204
0,0414226028455031
0,0426874907094913
0,0397353154363783
0,0435798925093771
0,0398627991708869
0,0423457522556205
0,0413611718923843
0,0446528548185581
0,0421998517370829
0,041941287382895
0,0466000310242825
0,0567219725031912
0,0477999677116019
0,045260201503132
0,0415288407878987
0,0423898162541019
0,0538509921428883
0,0528890539877079
0,0404861999895973
0,0426679548826808
0,039020594937558
0,0422928404223948
0,0398205086966681
0,0403179151808737
0,0439219174963402
0,048100864978154
0,0414697906111852
0,0444201586598957
0,0415208196522247
0,0452088995500061
0,0400408064406071
0,0426816327380475
0,0406315535579812
0,042856645833675
0,0393476454674792
0,0415373922051189
0,0389264136072262
0,040393276726709
0,0389863970692327
0,0401643014706787
0,0438133395475825
0,0492445419303533
0,0415975149973344
0,0425700872330757
0,0405998570706839
0,0422363363534446
0,045875713829788
0,0565666820155607
0,0452371239336099
0,0430695881868582
0,0400415297333937
0,0404405082958039
0,0422528165708015
0,0429174125700787
0,0393980685554558
0,0417094582905578
0,0391712861197032
0,0413409051100013
0,0405156778162784
0,038924068759464
0,0400671365315315
0,0418747294091329
0,0386913459633651
0,0433947330163368
0,0382674616513406
0,0398211609512788
0,0402627649627866
0,0451859030331768
0,0511282649162202
0,0652294219167492
0,0551173780304856
0,0531916200945686
0,0471016676991094
0,042428445884067
0,0411070556892941
0,0417083914982924
0,0408024093434291
0,0456598302769017
0,0385566481238237
0,042618678967712
0,039207291596663
0,0434967924373005
0,040608692295172
0,0421230026668196
0,0381119267495137
0,0418726722901686
0,0393310386235057
0,0422169415059409
0,0390607851671143
0,043809896006843
0,0410971412538727
0,0533606115043192
0,0457737911099556
0,0451845702101252
0,0413256869295259
0,0664398091543364
0,0663079902350286
0,0507135468283128
0,0471266529090733
0,0427229819146476
0,0441215197592277
0,0415596636755621
0,0423226378552856
0,0471620285838811
0,0436269732966556
0,0430220136163101
0,0407849371147722
0,0467594420080216
0,0436574506755415
0,0409585757819678
0,0505140597317469
0,0719025264551265
0,052853964582684
0,047115326352792
0,0416728474100761
0,0563018012883046
0,0623513392780219
0,0502989920161544
0,0447519563037375
0,04736871099335
0,0423708366181797
0,0447629141921801
0,0421816650662271
0,0444180155261085
0,0474896640246961
0,0488853755285037
0,043574091859517
0,0472236348397276
0,0409504132896703
0,0463071242387687
0,047030736502649
0,0585072674629425
0,0538320110417525
0,0444611350183242
0,0502130686510126
0,05178964230383
0,0470094367353969
0,0481295060323609
0,0447760070945358
0,0437847835219233
0,0548845488991211
0,0595189424900686
0,0505910617472522
0,0635759467222412
0,0575265828216128
0,0464159608776265
0,0512238464540745
0,0583372168605074
0,0529074934499811
0,0462605224829964
0,0574676959756848
0,0741427629018949
0,0681387587865649
0,065932128012021
0,0518744701777036
0,0515880226662133
0,0503934541903495
0,047960084949599
0,0475656362245437
0,0668125698289805
0,0505933309176157
0,0521001915489736
0,0446907179252452
0,0649403890078793
0,0590607209116371
0,0557411983623719
0,0525635292547416
0,0474327482470318
0,0510422813882199
0,0658201741854764
0,052013436124894
0,0540806865977842
0,0726568774307757
0,0874614474860746
0,0781163476963026
0,0567196589769214
0,0518001334031659
0,0860619528267929
0,0605097676495423
0,0574645153189651
0,051805009302909
0,0579562230252365
0,0500795149172379
0,0622039921827985
0,0800106444570069
0,0646368602670028
0,0547031065466039
0,0614690276544759
0,0512930834643577
0,0764189039244006
0,0641887240947121
0,0599237160384178
0,0545146835343743
0,0623291009100317
0,0560817169671958
0,104896491111004
0,0723855690349113
0,080220370846728
0,0874539041976882
0,0863363217552378
0,0729581321107706
0,0728048695032868
0,0636240526356542
0,0813867698969736
0,0830881648525511
0,0726375330352142
0,0581453708328593
0,0889686901634878
0,0898582952672916
0,0698760482405081
0,073193705431926
0,0720400010418319
0,0711279163742692
0,116563318204071
0,125818969232099
0,107355914000842
0,0795242290462884
0,084065092446273
0,105418434638555
0,0829219244271009
0,0762368055896332
0,0770085112927776
0,0774823421376983
0,077053860373568
0,0765685557848275
0,090175061060657
0,0798641028794932
0,087224542717743
0,0813123912449407
0,0868368563229395
0,10374560715001
0,137783727793715
0,125481158490596
0,100603276479683
0,134280090050556
0,11780701968674
0,101418667617546
0,0937884615834535
0,0913409079806116
0,10491500131575
0,0996281883353596
0,0973082147736491
0,0938401429097839
0,131382881796512
0,118275718000897
0,122060662844923
0,122945814922831
0,112653594883059
0,114081813030664
0,122316950770053
0,254007874286887
0,14745711211016
0,140567838615083
0,135548858286838
0,150751410950032
0,201333411127455
0,148306030403661
0,143993435245983
0,147439492160877
0,144676532649731
0,157689907973826
0,165615709970595
0,169693454472231
0,183334146408984
0,17444855103117
0,176874577516048
0,198989984333443
0,275809277644541
0,243602684175858
0,219385978465757
0,199190521330218
0,225238057176195
0,224399933786178
0,214194747255895
0,223123813242396
0,225993333176583
0,237650742718186
0,284936725547789
0,242505886348471
0,254041699495473
0,25303293003021
0,29590386386979
0,251407322660307
0,327999741048374
0,298286482813478
0,295295195662547
0,283490538659915
0,296501948837108
0,293080393022945
0,295214791867134
0,334582955219175
0,333076808008594
0,316857831513224
0,325581888162261
0,323262691118133
0,335175886881095
0,323816783687479
0,346078495710904
0,340201758385582
0,401044190817139
0,371623989243725
0,5693009353452
0,380047556134205
0,357600295742183
0,353300411437846
0,360421522571723
0,389318273992918
0,388278508657786
0,399882261872616
0,393024142269285
0,359643997365411
0,366102125901093
0,356265315279294
0,360419635546171
0,3590035943158
0,371786276134735
0,343376805834645
0,402591312649393
0,351575782489522
0,418665671700568
0,425495464382876
0,376317650470005
0,357224893812437
0,359788754067762
0,348178056748744
0,361648394236683
0,346471091419299
0,365444045795839
0,37116533835321
0,338784028464089
0,340266075488958
0,326868098085275
0,368435836530717
0,358010596562418
0,329070910176912
0,32428135533398
0,305351811476172
0,320390130719664
0,299746498864479
0,336864869597262
0,361272259852529
0,318936433889
0,300576385827617
0,301287873945966
0,293316360613098
0,297197571484
0,2854571293392
0,301929768455189
0,29114330624441
0,286073217912506
0,287741359486914
0,286156075893219
0,281658715750393
0,280205897619183
0,280918753427919
0,279035181811843
0,281708645146566
0,280777203252786
0,271608525778239
0,279404220512554
0,270015114268184
0,279719291603611
0,268022807927171
0,279241078100629
0,278517797567531
0,27232756444526
0,26905873213296
0,274699559936246
0,27307416790257
0,27394570032609
0,273324108674654
0,273480308761505
0,270242852625512
0,270950471512193
0,269176415799493
0,273266023110075
0,267485657147232
0,267781789171373
0,267239539728669
0,269915844893527
0,259776868504411
0,2743358510096
0,264992544213345
0,352018695105338
0,28751381370448
0,268729687504844
0,256576672353566
0,257832108312377
0,25580868446934
0,252177814892754
0,315557140578056
0,283815200134401
0,256682561132735
0,252474102571596
0,247445393182663
0,271189460072287
0,259203946126976
0,240604277737926
0,251630824187672
0,235468125816105
0,304008005485949
0,329207500735668
0,336597322426756
0,335919659766179
0,264813531692686
0,242474460370939
0,253959875569224
0,291115418296113
0,232080265243643
0,24954348844554
0,222024499205854
0,30277609754855
0,246368569500334
0,234220488895206
0,235091043493862
0,231669093438346
0,268158046097536
0,267699118072016
0,239106281993819
0,26245486516385
0,272710269549324
0,243017107453656
0,289646151365408
0,298581475129636
0,253693893654786
0,21954907886663
0,221821691435765
0,218209493968878
0,212040051707025
0,282646892793926
0,21911869090928
0,233890491768082
0,202061906790956
0,206961120666054
0,2080143124189
0,232296716823974
0,216226134168335
0,214735518694881
0,251376067769576
0,187559431866763
0,224082574375407
0,214827436627472
0,247555721147052
0,250543134985098
0,208001965802631
0,191091618386881
0,237767885759088
0,240923731504234
0,198501550815066
0,212105394508021
0,172933821055992
0,187535253646421
0,205762116982428
0,176389654095628
0,205324971957878
0,21026970713812
0,203419125556724
0,251171469781464
0,252509409386783
0,241809021187382
0,186871652938644
0,167376529586863
0,173019043184906
0,171651313227714
0,178483418131871
0,157881873504528
0,210270493767661
0,180656748869575
0,160493794478271
0,227149102930704
0,180766551522316
0,17262398158871
0,174792780407214
0,171668265637895
0,182848231464538
0,207433528549424
0,224250454586815
0,198478767652414
0,202664288264485
0,218559253618333
0,188731800636583
0,194758309368923
0,185337126771675
0,198795577041169
0,198230499238906
0,220172742550963
0,204785146493123
0,20844634177508
0,211879851562943
0,219472676250265
0,24295011447597
0,261269403437345
0,219095046262038
0,286365167043118
0,243806244271952
0,325965906051718
0,261366694829128
0,25977709738285
0,260035973671536
0,263170906261677
0,270850307124211
0,267589490192892
0,28209467635637
0,32432218326747
0,269589882127464
0,294538526548504
0,2791710446223
0,30536153991758
0,289274886215612
0,353944142579923
0,307520652108878
0,391356779228615
0,353790954178235
0,336501103089872
0,321686369171106
0,305212569652214
0,323754171749516
0,319372933683604
0,315415916758504
0,318908026407498
0,313376958620642
0,355909749647401
0,321189823291411
0,333353352570226
0,322644188507027
0,333323578546266
0,326117104874038
0,331760135994474
0,330130338493235
0,342878253832684
0,336407308900557
0,343327180101827
0,328707531651289
0,428776608837704
0,354638478235592
0,361339501425631
0,353131953569318
0,363581802801975
0,360024399622162
0,368301338779681
0,38376305494164
0,377722383370343
0,366500728365655
0,385184672720168
0,369544076665764
0,376482445084706
0,385895089909509
0,421253540387417
0,367622191051118
0,403416061522363
0,370108235183353
0,434888832676011
0,43410289737148
0,412697626391781
0,423038704232989
0,393699394998096
0,395990266650606
0,396281412418731
0,398207495491679
0,401015755556442
0,404175937676703
0,401686616030974
0,403031104892136
0,40699418076223
0,398439775575603
0,403283307537008
0,400529016827678
0,438564549720565
0,404610870044299
0,40622447622082
0,398891478275968
0,404269749053569
0,38969389033805
0,438016350877609
0,415857706893855
0,407727072636003
0,409574515635427
0,409221395084802
0,427834577690507
0,416219401318484
0,390970558054975
0,408109381620258
0,390304604730793
0,406474736033341
0,397935563277271
0,412674032777564
0,440708937293491
0,410837878403895
0,408032357921566
0,402893455561088
0,405381833704757
0,405751167165244
0,415479413057816
0,413535463183733
0,423248811520837
0,41731375165168
0,420752652911141
0,419262594943385
0,418527323915049
0,432120008962608
0,438355586671057
0,434136542908742
0,412776514234232
0,425066487417374
0,413621326404312
0,413840790141275
0,410863202446009
0,411813594671727
0,405192240431145
0,407400298194171
0,39962157329012
0,389072516916171
0,432567241913102
0,391390336308068
0,403126061091225
0,387328938925497
0,374605675801693
0,383222083982172
0,371885034997388
0,367222540140534
0,366218328091191
0,372800530125331
0,365161481877805
0,363563960763525
0,360989327018608
0,357291924581486
0,35850546743559
0,358750156667235
0,359126889494623
0,359157660160892
0,35875492432002
0,353491725793008
0,352895814383408
0,351744251985074
0,358661165103543
0,347415772324196
0,369836726085068
0,370952623710138
0,372562872009384
0,358282231467123
0,354661522819329
0,361330168480642
0,346224562023426
0,359963030004373
0,345304740097407
0,353432482849288
0,345032634243803
0,356795895946672
0,347828215580797
0,352212035014433
0,347627866414374
0,352802619231967
0,349119421095265
0,356818872376027
0,346107502400913
0,354536290569678
0,343194258980773
0,350920788714319
0,347712933666611
0,361532429425065
0,352493679947509
0,35062559278848
0,351827195078955
0,348215375014545
0,351438946613191
0,351170992550306
0,355787098619271
0,347780751267918
0,344951705199504
0,348032202016541
0,341171237696783
0,351170006628938
0,345532994160723
0,344398737682058
0,346064982900322
0,344045549423132
0,336690809594932
0,342965599349575
0,333515509829318
0,333627822784026
0,330273829440969
0,329384316677648
0,323319752651521
0,325739062739061
0,318842951457015
0,319742759587875
0,310684095096785
0,311770678393805
0,310236003554379
0,309715161185512
0,306067325430092
0,305151849886877
0,303282259611933
0,305878145995113
0,299143099388366
0,297973278183636
0,296978405109683
0,294518999451652
0,298592405170089
0,300033916649021
0,296400546578861
0,298511195113579
0,293500761253889
0,298186233601614
0,298563948772231
0,299615708888024
0,298299202515166
0,303584335684289
0,300887145594619
0,299706957558193
0,303326568998065
0,301461529327534
0,308045956188557
0,30538296787213
0,306245193724642
0,309436831209803
0,312453215244265
0,312819754692686
0,316203103767036
0,314016915854381
0,315566567080784
0,314525614604085
0,315625118044164
0,315289834419408
0,318265629413195
0,320836708416551
0,313503910690891
0,318084875287099
0,312494811712304
0,318836920943369
0,314705602564728
0,31384843545851
0,313784702246363
0,312453066520895
0,308711732082607
0,311714667304085
0,308001516646914
0,310652687404024
0,307923212834391
0,308994397277655
0,305811384200148
0,306945081634281
0,302429199575461
0,303745632202203
0,303832644001243
0,301993101031622
0,300324088563285
0,298718798182382
0,297201121387575
0,295847036190038
0,296335131881553
0,297662881220608
0,293992057817009
0,294605188353472
0,292789062362709
0,292643022268586
0,28939243003973
0,289932733672394
0,289852068547115
0,288799622729039
0,288230835076067
0,287451495629321
0,284578463601601
0,284208648467331
0,282111568575056
0,284799611668777
0,278090399956238
0,27948266334305
0,277285988531359
0,277506041214766
0,273603587352678
0,272235695172505
0,269291679987799
0,265872242469624
0,264805125974739
0,264976458969879
0,262175432774176
0,260757369330939
0,256863447368223
0,257172332354392
0,255381963123583
0,254310124578658
0,252339591047143
0,255620014770602
0,252739774310067
0,253134382323258
0,251571215021112
0,250639733650599
0,249451363181835
0,248416290456513
0,24749277668373
0,246973094678837
0,242807667368078
0,244019361031433
0,238020941312593
0,237291865891529
0,231274285654868
0,229983032332295
0,228854007257668
0,227874211476624
0,22423745963807
0,227719207898715
0,223193056097671
0,227143329388237
0,227287823679752
0,231591882992295
0,233313914017294
0,24073664770884
0,245701820719068
0,254077505339506
0,261259624442566
0,271664002515278
0,283477974393867
0,294155929573203
0,306064946549263
0,318420029230045
0,330391277754039
0,344350744569376
0,356352386288605
0,367398113129303
0,379406260143804
0,392317855788357
0,400814168309968
0,414980754729971
0,431280504692672
0,438883757118755
0,449600847859479
0,461732820842394
0,471556586520331
0,478864143082263
0,487673045423024
0,496434129333954
0,504738708279871
0,515569035539964
0,521457103099835
0,520041241218774
0,530334976458981
0,534021426693802
0,539725793410178
0,541936665265969
0,540509655994141
0,542240269528339
0,544677669726407
0,546408199079927
0,541872543439961
0,543641680785436
0,547368244521259
0,546607159218775
0,545874488433966
0,550251931550038
0,551949465694969
0,55214630234142
0,556732414024721
0,557358903855953
0,5574744626816
0,558146510354871
0,567662608150052
0,574891734670963
0,577500301948716
0,584643764273183
0,586890372042979
0,593094064317207
0,603089774726036
0,604858151619449
0,608523152363132
0,622166329845819
0,626572611507744
0,638474440373868
0,647576126657448
0,655379073371761
0,663883042459209
0,674070760836878
0,680491121424347
0,686043109914222
0,693206076098016
0,696844445663644
0,705059191010904
0,705601189859033
0,699899394063484
0,711460428920555
0,710323956021068
0,705038306625485
0,699874849359338
0,699663523525431
0,700432185779325
0,701471678803812
0,695548356629369
0,697563593450723
0,698151014592132
0,7043758833846
0,71130383048991
0,716696335549842
0,729456620980514
0,735095145382241
0,742147225683917
0,759063174988123
0,77509476516997
0,786887915940345
0,798773890229977
0,80957084214042
0,831737950058298
0,842943365198586
0,841620860264871
0,867964759699338
0,870568315695976
0,888501979364742
0,893351663978072
0,903795007023836
0,927944306161616
0,948418524600213
0,955730599152775
0,977712895035473
0,988964338738122
0,997755563419441
1,02964283510922
1,04248314051315
1,07250623070395
1,08486513929464
1,0924857728826
1,10223626992364
1,12751544513093
1,1395472996294
1,15617507682331
1,14351729653517
1,16544268452042
1,17161484504202
1,18435169498012
1,17085573015308
1,18886413256405
1,19587454545119
1,19978794678843
1,18561994080928
1,17610425082828
1,18550146979891
1,16973704643309
1,15020676409825
1,16829453242246
1,15833167999774
1,15937944606706
1,16456949923004
1,16346439061347
1,17374722421755
1,15790843206446
1,18253989469765
1,18102930455043
1,18853807268606
1,19339946965209
1,20807032719333
1,21158691763921
1,2235571562882
1,2289969301397
1,26135517736691
1,24479368837557
1,24531449697365
1,27071005218567
1,25616610379308
1,27141384313261
1,3074343768876
1,31827561449476
1,31094280130105
1,33007727719214
1,29195852741552
1,33911910566933
1,29667279131667
1,32265673614786
1,32732062335085
1,32168239647808
1,33389374451026
1,32402245268261
1,31368340997633
1,31925545749933
1,31865430053256
1,29710267204245
1,29689979241386
1,30488260365924
1,3168223489309
1,29865947017126
1,32110560255599
1,31615096329928
1,29422845425073
1,30741568339055
1,27361931967114
1,25127396807659
1,24286820019859
1,22344110255172
1,21595413299002
1,17096659595985
1,1523792058263
1,11862775554635
1,06858257180459
1,03871288163357
0,992723312833412
0,963387467435235
0,91899821744545
0,889629619080969
0,865253699760007
0,834110919378473
0,810695260044625
0,788856376507387
0,775890390987253
0,763084245178789
0,746469404476648
0,738134101830598
0,731775500094335
0,73701885911261
0,717718840798103
0,707410137126152
0,701966915486725
0,69396860093878
0,684121209508122
0,684443723563546
0,67593654952575
0,668590954731785
0,648058391955719
0,647714097093442
0,632284089987365
0,613786660263224
0,591733467329733
0,588541708636521
0,565151696268631
0,554113580065394
0,539732717896177
0,506602646962905
0,495458785942284
0,478483574440701
0,453599232674768
0,435978102389018
0,410705431794283
0,395525573749712
0,378127412959341
0,362567625452906
0,342737864682799
0,328273903924241
0,315592855487636
0,299624494460634
0,290193462991251
0,282660199433384
0,270118709561061
0,259693865531236
0,251997121003128
0,245965065856644
0,240756530864279
0,235150465244526
0,229970234828363
0,226866320362003
0,22598738351713
0,221409918697968
0,224212137423944
0,219982817120274
0,21847419719883
0,220618106476897
0,222685233835694
0,221509959624376
0,21866294345513
0,227361067063982
0,226391046031112
0,233034087898111
0,233087013678757
0,225350977942019
0,228331976905568
0,230869412651539
0,228023398136858
0,23138964237597
0,226879734742098
0,226093550124487
0,226799532329609
0,224667694756729
0,220667132570538
0,221568254609427
0,218934629816018
0,216440214969868
0,217399345723711
0,216013087556666
0,216064660095973
0,217992207566608
0,21110995848291
0,217574839963465
0,217434436885496
0,219940863728174
0,219057266062475
0,226397772801284
0,228103985314456
0,226110968329756
0,229425462696248
0,233006177540725
0,231195389047707
0,236926787629919
0,240149327689573
0,240855862328067
0,240261150963702
0,240929271094426
0,243898335182655
0,248865488448934
0,240674936026163
0,241154600238303
0,244802063828763
0,248177182032558
0,250775488286484
0,253095138924779
0,248690164824707
0,247465803905775
0,256074473323434
0,25313742362425
0,25577662456748
0,263306553831335
0,268494054139492
0,279443224514443
0,281614678038654
0,290183505794418
0,297141808496862
0,306402701239008
0,309831863159778
0,320380435755411
0,323446739578386
0,336439343523307
0,338493423028831
0,343582193292412
0,339142485901627
0,349782756217649
0,337239000552677
0,332217848019447
0,324250212864812
0,325089945339582
0,321156193733664
0,310075307610455
0,299082971527336
0,310415741308598
0,302662270871226
0,301619214390671
0,296669233164487
0,297893788449326
0,296799557339081
0,299743577707519
0,297657767418055
0,300517164857062
0,295569142114152
0,298886797436802
0,295321336380402
0,291508000274616
0,292334003956934
0,291889989359992
0,284091732707421
0,284003749208532
0,280545988270127
0,276370723798291
0,275694965306541
0,270235637376214
0,278973108342407
0,273416809520311
0,264016307703813
0,265654817010788
0,262343261274332
0,260743674962439
0,256868102292116
0,262646120321344
0,259924357290273
0,259882451665566
0,254467707414038
0,254612401210666
0,244449676503318
0,247227966640862
0,251653078145623
0,2544002841004
0,243771387951115
0,248820617905973
0,249942505845774
0,24905638821916
0,243643765766588
0,244357652506231
0,240362715561398
0,240896423413849
0,238521011350535
0,241561846018557
0,2364465633219
0,231617538148529
0,230691763381417
0,245009646436273
0,232265147320091
0,225344456720646
0,232570671094897
0,23527895568765
0,228417937112782
0,238080540854626
0,231805025036925
0,230621899271261
0,232414140318738
0,225908155713546
0,224558799808632
0,237298397492252
0,231229827700952
0,238178267369472
0,233366272626454
0,232021257503897
0,229039689324812
0,238998362230722
0,237037001896042
0,241214667801523
0,229833418512587
0,243083551241562
0,249362702801959
0,250000274925359
0,242221318461682
0,243648679830583
0,254581834788136
0,260433840117993
0,251773189040719
0,256305007555059
0,266371463682156
0,262137466675153
0,255133491358454
0,269981154636572
0,269169329277631
0,277784182330337
0,279613836017415
0,295777885128291
0,286333524939692
0,28684754834126
0,308892041087978
0,330496371628076
0,327364836191219
0,337465844460474
0,335713000505868
0,349044174960725
0,338595091677581
0,360353387929615
0,384541640325993
0,385055048936024
0,378340601490597
0,39417198578807
0,419822591125351
0,429822317807085
0,404147055628662
0,41811258091176
0,432332548317118
0,435035635224796
0,422189683355972
0,432805677343169
0,41951800688106
0,43212919459834
0,429675414843233
0,440150228493628
0,417935487817281
0,436962567152636
0,420508369019008
0,410053687722898
0,401994181783955
0,425360756857357
0,408901136038289
0,393551876250384
0,387457397372935
0,408043915965013
0,383996426938836
0,398361064580973
0,39182992434691
0,398370175449414
0,386597071777853
0,415038755974338
0,392401801689062
0,365492092810145
0,360714800532981
0,382355513797045
0,387219802145746
0,403769435675249
0,388926200421496
0,373028690922961
0,343537560014028
0,365273759453543
0,3583662901269
0,357513790085198
0,356932685486662
0,364041746402459
0,350837279873916
0,373390591746557
0,363796711507299
0,362423940045794
0,371334400926423
0,355276719937969
0,362738342784132
0,375843229746705
0,369582482181647
0,389661423112499
0,363090448275012
0,373825635622844
0,36431831511406
0,392829382274711
0,368371113243518
0,387272155371116
0,385609133076277
0,391790644550833
0,387538639500977
0,393065141553216
0,380936074369089
0,398310227226791
0,395960012848319
0,376222878599144
0,373707999840909
0,415703343287386
0,425018838709092
0,422458378098509
0,430876974073415
0,473169618036039
0,40032138410397
0,400734983492528
0,420461936983831
0,400233602435612
0,433034561530959
0,478540720771746
0,507029856784558
0,449516065123183
0,454653724777451
0,498171913076885
0,481297401286989
0,471361538646001
0,513940040951102
0,569294410690401
0,486978740629718
0,520071121946872
0,532087801447652
0,523591408523004
0,501849922305923
0,479935493217377
0,521418213543066
0,526766227285081
0,517225796633342
0,513187952874239
0,549353158237313
0,611043926023346
0,530234592980426
0,534138977962094
0,542800664661628
0,51192051124041
0,525446881586775
0,519788673292574
0,526358898920252
0,511175010764334
0,483692634799868
0,48747926474103
0,442692628110876
0,48268483408745
0,470533919847202
0,483986505990488
0,560098403968443
0,543503974260747
0,447486135268703
0,47446248492542
0,553876379730887
0,572807220537171
0,546162680551942
0,52431485571699
0,456071715190064
0,546789853465912
0,478673201159526
0,467732218806118
0,609272681576071
0,454232915022848
0,441395862140184
0,605497397207272
0,491064599138347
0,687312367457827
0,392850551430895
0,565210836393615
0,505230920121669
0,408147811837846
0,408895136632895
0,700441752241889
0,503254144633869
0,530342564277601
0,623360622635735
0,985078008183494
0,72575156695341
0,582779698477735
0,749234489088384
0,765353628513208
0,378000483241194
0,413780456661552
0,681855853761753
0,44167308956468
0,332731954278473
