3596
4000,36533379555
650,420452594757
1
2
2
0,0791881627460251
0,085111329266566
0,0775441251431898
0,0847173783713326
0,0884417157383233
0,0829580439330642
0,0714546091379506
0,0831640927440961
0,0751345645590561
0,0838786047691366
0,0861424075556454
0,0876722628223283
0,0789510431043809
0,0869152038933618
0,0768231073537592
0,0839554599392595
0,0671007076656867
0,0836885436330194
0,0750962504227645
0,080102740897767
0,0820157250942571
0,0844310155410738
0,0715420807443486
0,0847504739248688
0,075190618421786
0,0798866080438775
0,083885345822819
0,0835795405700599
0,0718741790963734
0,0907162226466476
0,0760897101136479
0,0853387995654697
0,0746572243881879
0,0875536565652608
0,0809351721938042
0,0755241855682042
0,0786765954063825
0,0904048326682662
0,0788115525930886
0,0915152365865281
0,083409241638557
0,0798448749147386
0,0773684473956842
0,0803194720688427
0,076486502204794
0,089199474808449
0,0719802362546511
0,0834146607040819
0,076564918685313
0,0925513349350226
0,0754642958368272
0,0749810930682377
0,0886728168837421
0,0971825958942478
0,0775574084515082
0,095761888926186
0,0863451851060261
0,081794476660984
0,0784529773999144
0,0851704866110445
0,100105987762424
0,0974456177207584
0,0702228996948292
0,0870382552600599
0,0708427636264535
0,0844887251713176
0,0730339782200859
0,0796708424374321
0,0733620167826729
0,0879348695523215
0,0795688658551932
0,103818760250196
0,0937065718727516
0,0924337593728943
0,0826344307190902
0,0897448731044771
0,0755232343739947
0,0766679249981227
0,0649571621335061
0,100775468941115
0,0853887907390167
0,0934941133076403
0,0827149834613329
0,0745293693782665
0,0822363816372514
0,103519924614586
0,0696726301586019
0,0872385255078379
0,0934592255363447
0,0954135501751782
0,0802827410707554
0,0786531627392504
0,0705417154097342
0,0797205575436863
0,068308962371354
0,0746630412229179
0,0677383799310594
0,0856833290896827
0,0686561677322425
0,0973828310519655
0,0841925136083368
0,0963056900293623
0,124964054827543
0,0834498602156279
0,13947708712853
0,0872496190299373
0,0776971355191683
0,117560360045971
0,0903172443929527
0,0882727817376928
0,0736079806632377
0,0813409684965812
0,0688716819119138
0,0945520834800111
0,0586503790205891
0,113993998177918
0,0988500226793959
0,0897536188494235
0,0717073244940373
0,0821063317613808
0,0555963304470113
0,126070834141184
0,107286521354306
0,0876632838508162
0,091877097727773
0,0836551093011408
0,0639751316900479
0,123481643811725
0,10483475719832
0,0772434985340834
0,0756058703891979
0,0796564786302222
0,0697181786733523
0,0738019707541148
0,123732543621355
0,09167620270379
0,0789024195064643
0,0728704551466966
0,101935520179601
0,138233124982707
0,0918370203253434
0,0850698600486662
0,0684408208155784
0,0936952109350846
0,120139219030672
0,0944904446709531
0,0703310530953874
0,108787302384109
0,0925123905023867
0,0780282155012084
0,0755311317967801
0,0805979979357652
0,0926198130652494
0,0937322595489642
0,0444643229261349
0,149027748981112
0,115428282492839
0,0888780601718821
0,132996425138238
0,0795791813977756
0,0904491946692772
0,0752545962059434
0,0799442973611979
0,0741842817273409
0,0786120496349616
0,0723462888133716
0,0868575319913771
0,112460850827497
0,0759163841796564
0,0945779535987226
0,11801534170345
0,0982041755434528
0,0688176389316759
0,147147259945526
0,0884450069157315
0,0819405583332886
0,113389964458515
0,0953175750257256
0,068666382760014
0,0876171188093724
0,0946423806345789
0,0802743061873299
0,0831237176883708
0,077316949198975
0,0872873502616078
0,0973047485652358
0,0834702390329651
0,0886968191045535
0,0734162002196068
0,0741230456397374
0,111258971908576
0,13244279671084
0,113415388190256
0,0820707331810866
0,089670149857073
0,057379311908078
0,119121796917055
0,107163449034004
0,0772907660220453
0,0829535236051722
0,0742572926936965
0,0810642166855969
0,0694883866931928
0,0809555883767012
0,0789202489241807
0,0683284531463593
0,120471545042409
0,10048648845897
0,0844759383692966
0,0725222873094327
0,0890023715969732
0,0832790653462451
0,125224005323647
0,112946263854765
0,0869024836288383
0,087351380853734
0,0733703344337856
0,106464235964505
0,0941348991389653
0,078383600939653
0,080522142182461
0,0777872414157454
0,0795944634035134
0,0784538655744114
0,0787241822243578
0,0851961393166626
0,0778475472686006
0,0784354698545603
0,0806036588690161
0,0834657451937241
0,0938255799405912
0,0806755451136892
0,0725161752000691
0,0857489355883058
0,069673623413876
0,10197932159806
0,104006215952509
0,0891776005241628
0,0840061914878761
0,0761252395037014
0,0795780051192302
0,0807540560707234
0,0771382181630546
0,0803499526602187
0,0778987608028046
0,0766380408402898
0,118727194616945
0,0895213978421437
0,086365446246021
0,0752612233004523
0,106800087932499
0,0985044392709518
0,0877378072000981
0,0831645108401949
0,0856499851248044
0,0791849723526849
0,0877782282777763
0,123505752069974
0,0975249674774657
0,095823295697024
0,111200458520604
0,0886652985756867
0,0856130446925758
0,0908531136016894
0,0819030291469806
0,165967648592186
0,101108892009849
0,0876129929725265
0,158670382954148
0,11756268670486
0,110938744930251
0,0926507115793579
0,0661170510673562
0,215865969677154
0,142592267593192
0,0940157632979898
0,10374144389033
0,119706409258871
0,0875814377872423
0,0978145620218648
0,0908725940892943
0,117067142387778
0,128871488396674
0,169639442128347
0,162027553273271
0,0863290929784401
0,136508111154765
0,12798620291569
0,097858596624582
0,0953638361639353
0,100123748878962
0,10444870680963
0,118606900127467
0,110480764374797
0,119501189628244
0,111504106565629
0,0981863035528531
0,134728265818671
0,108352563533349
0,103958496314953
0,113136349018507
0,12182575667755
0,0985747941058123
0,107883788880335
0,102928963559058
0,122530945551438
0,100878127750737
0,122603915617715
0,166195400333003
0,131962865463321
0,12174800349844
0,152637229672321
0,11575023299822
0,11381111258332
0,11547602109342
0,117357504878127
0,114111617911005
0,116932363867312
0,111332714999049
0,152647811054785
0,12897584268481
0,125260563248621
0,122312082457624
0,121312984648508
0,126725414351064
0,13360501645379
0,130703339615616
0,140446267213095
0,138170762727121
0,136901466327842
0,165195550703346
0,164237944798106
0,135496608012144
0,18654986997749
0,172113315072948
0,155333780520064
0,151091498192819
0,153507405608505
0,159412904740813
0,153543421528882
0,157832707770621
0,157601872080131
0,164447420365167
0,19585170527819
0,181018950636363
0,173510209905773
0,196551760262132
0,254939922343446
0,253680502386709
0,205203425895743
0,186569838397871
0,179857872905902
0,227515734927318
0,232758107112999
0,228721694925164
0,240388835154784
0,209160536375319
0,219173021644824
0,215114787975007
0,224094685273185
0,224321762902624
0,237335979478804
0,229987542937465
0,244286472755624
0,238906772691303
0,255782279123687
0,24892409421155
0,267155436766371
0,307338739931836
0,289926830539661
0,271257080777239
0,278154382344553
0,269497457806135
0,325603255435367
0,327794900353976
0,353239520295006
0,338570731549921
0,335687423971148
0,347856982637027
0,335619392822021
0,319868129820988
0,31362537026446
0,326799678670829
0,332969717432316
0,344554258515454
0,346924556932242
0,348472728543767
0,362150617735117
0,36418454184536
0,36154108975659
0,362021327369779
0,367520823625593
0,398459983297285
0,376943910785339
0,375914420005748
0,390957197578058
0,423140758460535
0,498546221702161
0,475535303194471
0,414422701869946
0,406849860631178
0,422923882800456
0,405074937829194
0,414212067672062
0,433180336497622
0,431555702446072
0,437877935193419
0,489923264372684
0,475138528090733
0,47837349600101
0,463549151103807
0,454753890865332
0,488153857746966
0,488683156544417
0,476107899054115
0,50858405136211
0,481272103368047
0,473111960641895
0,51605805757783
0,528999276542347
0,49550234201077
0,546259102987692
0,499767033488574
0,498062839361626
0,519094522511803
0,522816827225096
0,509140766320703
0,529507794272448
0,518931714976241
0,555240613631629
0,578280875180971
0,577299368452511
0,54880424386414
0,576685810825628
0,571683816867624
0,57565264914221
0,588051185974661
0,588134364125602
0,570844595049086
0,563334000150178
0,623327686125743
0,638892104874766
0,617646031614609
0,643594950867559
0,624044926795476
0,624822272890719
0,61026661908251
0,631850357454613
0,613046156148774
0,639616080271502
0,646758918546759
0,640293977524572
0,630817688920553
0,6626598627809
0,661652648827469
0,657213321767223
0,653099549520634
0,669431109953249
0,665216876096627
0,652932895919073
0,671110833304069
0,691083895170688
0,713705021341445
0,748853216237013
0,708036860769657
0,774504464536972
0,708394759822202
0,715137118380643
0,753053883464606
0,714451824199012
0,728993651651038
0,748494292746398
0,766407422381954
0,805500286856786
0,745043051504748
0,767416516599759
0,767593714656767
0,763047660876536
0,767988568037984
0,829954199476001
0,768575572778227
0,822340154380936
0,832346156767654
0,818705447021331
0,840752421492796
0,826432250364765
0,780507431774817
0,795597138172781
0,789434163285926
0,829786673941945
0,847306348453322
0,839723096835898
0,812115899770749
0,848110853211233
0,885018813633027
0,846675917958587
0,828528126689182
0,897366709878584
0,861452023639843
0,873945390023822
0,861863485080892
0,922951649148976
0,918391578058518
0,871231170587346
0,921615350642164
0,969963405109173
0,949276662614497
0,937634422452548
0,894133752737059
0,982945734991568
0,935600975760761
0,958889402975945
0,970215553989159
0,922299097294691
0,936139569799621
0,975727989205177
0,960506125390601
0,966547577540361
0,969871654132842
1,0169469426267
0,999447444983434
1,01288173642314
1,01651215561072
1,00682364981512
1,01387461548439
1,05193974741647
1,02043373923869
1,00771070705553
0,995042509834535
0,991692013762261
1,02361393079867
1,08208821285999
1,10532595124413
1,07506332460786
1,04218288114575
1,0153555691778
1,01484434966
1,04131812502271
1,06627001942141
1,12622708702282
1,09346934244539
1,12211207028183
1,16401742871695
1,22307239267648
1,08336585406754
1,08810025679514
1,10101978938171
1,04829745583061
1,12623323098397
1,12151492947093
1,1923217479144
1,19604650180783
1,13451270879684
1,23447870885247
1,25732572863211
1,24447210310658
1,03978063758283
1,12524935964434
1,21962217110122
1,10905243762207
1,24531456017302
1,30233719210613
1,26255204044274
1,29256498630811
1,21923617141078
1,20041799542551
1,23282415785617
1,23429864985788
1,17744906592544
1,19338382425162
1,21581490855774
1,25170623356718
1,33818422467113
1,2376274558594
1,26478913016009
1,35985917370878
1,45278320352145
1,2864355391617
1,24216965859835
1,3516916472371
1,20578869225161
1,25963823923925
1,43112554720572
1,35782735703122
1,28002140823968
1,40199721269932
1,41602980932
1,39437147621246
1,45228731492035
1,34986261805749
1,49332901774635
1,53054128124981
1,41049713084273
1,43535583512572
1,36185192352522
1,50440842703861
1,44129546714535
1,31426808983087
1,39260274146273
1,35808707042783
1,3336799697949
1,36928078098249
1,58469090767545
1,54994201306394
1,36169957054879
1,35731216201643
1,48979276238572
1,55682376720467
1,43520188404112
1,4203081516401
1,52832688274153
1,45735590189374
1,48996047524284
1,46489441129021
1,5720145605392
1,4143389167115
1,38786138513491
1,5290205711138
1,49164807269086
1,58714566033197
1,48629976331053
1,39884659857103
1,56421361843155
1,45209215131319
1,3977734691967
1,47595509569603
1,50497998220901
1,47639217191471
1,45927916345292
1,37893510350813
1,73407131391167
1,58586952133313
1,52332697863395
1,50156676387785
1,37852351599993
1,56289985673642
1,58542659831398
1,48326123295033
1,73200349121622
1,46113983877177
1,53993670740508
1,73445889963539
1,50755235803849
1,46399568370566
1,64793896657925
1,61663007421535
1,7339213101085
1,54859518976866
1,62302847831288
1,72982028108009
1,51300445826108
1,56658075128236
1,71564102109338
1,54765277311501
1,65640004344646
1,62737270006127
1,75678480186927
1,77287313638959
1,61461690320619
1,48689736978796
1,71997001864043
1,50229297333423
1,73865707457941
1,78980143248375
1,72973577672777
1,46284006913211
1,60331365524557
1,69323780442441
1,66177857626492
1,7034154132837
1,67226098324455
1,64720848477806
1,79888441963547
1,66390776394405
1,54512140103028
1,5777459299383
1,55000813723512
1,81253026045632
1,67286059122836
1,61796217606989
1,65366485949637
1,71180816724677
1,80793684243843
1,94298345440312
1,77882565113183
1,75783187082294
1,9377130606189
1,53628934892169
1,66931507244405
1,78804626928805
1,75724229627322
1,76698173424974
1,75075635411922
2,01947183792037
1,79969349669083
1,37676057631364
1,587515590612
1,90458538435521
1,62043832617846
1,61329410346746
1,859329456635
1,68946424619459
1,86197541961047
1,93555946447667
2,20339452731956
1,91312876161406
1,95966593223322
1,69891017860325
1,65724675207978
1,88820853669782
1,88931474909837
1,5841450885553
1,70474744425999
1,83539216732532
1,63456634028579
1,71651366178212
1,98707255856203
1,74891141144761
1,70593379547787
1,69317618606919
1,74802422284242
1,66995607088875
1,80837447720439
1,64935829157674
1,63653643327546
1,61637564608108
1,67913224380023
1,71234450224754
1,64602203189794
1,6369033042921
2,03644851376299
1,65954469712301
1,75523632769218
1,68744735278385
1,81230220773521
1,61630659266774
1,73323978835694
1,74899887411112
2,14126116139517
1,74910045738179
1,72684515988586
1,73674626050808
1,72900571251128
1,81000550529316
1,71930347800832
1,63907656822441
1,97312094105487
1,65792417608424
1,81813475895383
1,70934805866581
1,67204871606065
1,85509364179439
1,68613467774785
1,62564313883846
1,8366793054765
1,59585342680512
1,70014975966696
1,70415429824078
1,65371344109568
1,73149997032348
1,92933002369948
1,71046709989975
1,82065679391623
1,95443861740848
1,89469514800637
1,6635073029343
1,97884739514864
1,62315367986534
1,79782109667292
1,93716470459638
1,69936472408388
1,59139926387058
1,63341027483815
1,69459520387992
1,65319019890544
1,61063333626919
1,71803813932592
1,61100034233879
2,10256755450735
1,70081073310314
1,57061131665192
1,5926409478168
1,74993642003345
1,79157856321294
1,77348833773444
1,5561790552643
1,73770000052911
1,72549537000057
1,59555596474454
1,83431409429225
1,90593320042883
1,60668371907386
1,74794491864532
1,79895850150613
1,90160347113274
1,86484989364602
1,75621316256493
1,62093850086266
1,8212782622787
1,75463231835465
1,6862416957675
1,74171158947739
1,88626079208114
1,61353265559655
1,75920451348371
1,7184886607623
1,61279646217363
1,5584147373635
1,91267813980017
1,79387822279012
1,66092179672946
1,62798361940735
1,86043554356465
1,55562911939649
1,59920376557425
1,72674604802579
1,82835284696746
1,67931501955847
1,54422563018986
1,5207330658257
1,7193934436463
1,63678700789613
1,55358088346662
1,62139912849467
2,00274208145061
1,88996160014918
1,7485239833078
1,53510482542233
1,60390677409321
1,57637660346297
1,6859278983383
1,64697061767082
1,65019220770766
1,57872686566562
1,66180886852597
1,65913649787887
2,05937684810508
1,80777531211572
1,53470149803957
1,55112460345737
1,74125538086997
1,5402490560115
1,77241242920756
1,69508945188585
1,70600651662736
1,42942876638557
1,59777578853566
1,51850635449403
1,51932969011769
1,56515215748979
1,70914667561623
1,50962811362548
1,62815010196962
1,54894779543185
1,66936761601756
1,7075832563792
1,63766130987832
1,58911124856596
1,64149197301331
1,44613638851171
1,51993247088651
1,44492176714225
1,579621857299
1,52481326001418
1,63745660235346
1,46713945646253
1,60702632079869
1,44604567786325
1,51866484481626
1,53070219409751
1,49932237368133
1,44894642811847
1,60888516925964
1,4669350328503
1,63853624464823
1,57584932360367
1,63591207791626
1,47656361077976
1,52023297433418
1,43531730358214
1,51705639568417
1,4301915383015
1,40984025564026
1,47276849485387
1,49048923377464
1,3080799323316
1,38257689274121
1,3183764303992
1,34303740505761
1,27978911584053
1,42122022739513
1,33051469236344
1,3423661616349
1,38459262766969
1,41754677199084
1,40680335553879
1,39941131267437
1,29766849750112
1,33065577246879
1,28374895687477
1,37332660105083
1,25859198133662
1,30428404080089
1,32685201222256
1,34057491689011
1,2458428720623
1,3292352327674
1,31478524686938
1,24724190283594
1,25336086356364
1,25674027314629
1,17361700733914
1,20782332987008
1,27465414683284
1,23225090543913
1,1933827949748
1,25184129770054
1,21072765684938
1,21632842039436
1,19144115682642
1,21208043567576
1,14737563678936
1,18372168407579
1,12827159700843
1,20077851721231
1,14369951338095
1,16641417600122
1,12542113184786
1,14829801142028
1,11367854785293
1,11804013100349
1,11457581133165
1,14430423352032
1,08350042172997
1,11232060012037
1,11180731002507
1,14979336765768
1,06872114135223
1,09037934407356
1,07794421002315
1,08041244195735
1,043155716317
1,07193384270332
1,03528581862598
1,08464179136604
1,01833586358855
1,0228922767766
1,03864749729741
1,02642813541352
1,0213742931723
1,04694815530447
1,04601413973339
1,02406972820667
0,973908264188055
1,01343486985359
0,983601758627824
0,987729093010073
0,959430854356175
0,979506453940191
0,971291083405084
0,957207685246485
0,958026866952187
0,968911693732207
0,935510144884058
0,929241854291548
0,9228435129044
0,937867740588652
0,917995150167856
0,911630865484716
0,892757883499082
0,892722756263345
0,875179352335967
0,908638583669404
0,893220597270902
0,883504218953372
0,884481292397818
0,884448870768927
0,882212906961744
0,893015576049335
0,863365830814241
0,862459176901215
0,85318348670414
0,844037914035745
0,838740024559219
0,840797507941624
0,810064323644535
0,831835861496969
0,808970401849674
0,811048046028123
0,790526106429432
0,799695866838098
0,783818986775018
0,792338524884333
0,794272214293611
0,792697868305809
0,783560923975611
0,768121600975507
0,749939770916491
0,777572906223979
0,750997684865691
0,756853438976025
0,762232316118077
0,747965127571386
0,736009473632274
0,756245528762069
0,741619873805258
0,728350600448162
0,731403284711042
0,722234892895214
0,722591234461012
0,723388159529102
0,69393028299365
0,709266562996597
0,69457974318167
0,706576676247102
0,699176986921777
0,699065979492998
0,683776705595754
0,68211325487997
0,664852440873045
0,687070605926174
0,667177605034914
0,664127985007681
0,651942496438956
0,660097306281999
0,656033810403604
0,653251167732951
0,63143159583999
0,64787620593675
0,641747416155979
0,634060657930341
0,636794528375811
0,624385980543754
0,605748585947721
0,623268476156625
0,617290646043542
0,611143313354333
0,608758542654757
0,618270839273859
0,600578226397533
0,603401772850214
0,576008856441632
0,595158457176687
0,583057889329804
0,584749603284443
0,579798105582458
0,576741809135816
0,568024306869632
0,584251832210236
0,563876474203849
0,56213777919357
0,552311452426635
0,567796348863201
0,547379052258267
0,559238687863309
0,535195049694132
0,546107974115994
0,540481241539035
0,543650180864904
0,533616236392741
0,521204659323747
0,524961573486247
0,528902123082244
0,516268114463552
0,518936670128133
0,51068883184866
0,522260203767414
0,505391099070955
0,497452847901621
0,498909693306905
0,508050156661609
0,502016483345749
0,495091539190655
0,487465067295709
0,486964733738092
0,478616859697363
0,49190778607009
0,478079678073946
0,484451573273373
0,479209426132743
0,473311261774482
0,47833434931994
0,479233325935812
0,471752050116333
0,477268133193178
0,476147207572515
0,46262960934025
0,453413922410026
0,474704274417455
0,462529647620886
0,460036462460418
0,46575678040744
0,465577950866656
0,455225174378696
0,453929891397925
0,454259332813147
0,471794759176861
0,45059193971376
0,452006725405178
0,448565311767552
0,448369952264523
0,443295023969885
0,444587629959337
0,450447054687797
0,454360737204782
0,44146606412001
0,447201861925168
0,442413389044163
0,450205895254496
0,447782453409295
0,454388989403983
0,440982182411145
0,439078720657217
0,441256537169772
0,438261713115957
0,43378842829758
0,439861523588369
0,430132482522618
0,434840355240912
0,433389579988204
0,435139206866227
0,423274161633091
0,433223057793108
0,435046709991525
0,442357928094477
0,431710138170401
0,433209134741763
0,430257431040746
0,433567462623877
0,437558973003978
0,443783079842624
0,423283442465864
0,437875462177412
0,437542790524101
0,442568361319694
0,432924768500195
0,433910538468882
0,431298033588481
0,439120817836064
0,434123738763807
0,445122651892994
0,434846123641163
0,450247944579902
0,434572965550837
0,433378711469156
0,422418159493269
0,432034829906214
0,419185413700451
0,434159807440021
0,427315431370715
0,430578933842074
0,422595273477913
0,424035726570013
0,420473370318864
0,429893100499971
0,407619529835028
0,421960674263758
0,411016457789684
0,420131918178994
0,423886246350241
0,420300119351794
0,407267201707932
0,411125941346482
0,408864362933659
0,401318969636098
0,408651775134865
0,402995939978173
0,401568359084313
0,40915216210679
0,401721974222455
0,411345335408248
0,397481063932268
0,399790268731188
0,391302328047758
0,390982414881216
0,395264926362749
0,395700007104692
0,394070888255023
0,400779783457379
0,397684358320028
0,398995727850771
0,391413140948384
0,393151208360047
0,395330332367586
0,392527732400407
0,38840040243885
0,392473807480399
0,390032016633056
0,390142191433365
0,389075478637563
0,389319992877457
0,390479713192042
0,388106819917895
0,384033698737861
0,381331537471133
0,380143265681877
0,378145010109751
0,378217523152777
0,381939616503684
0,374709986343984
0,377325120383923
0,375296761120708
0,376437081882519
0,368884047779777
0,378461699298216
0,367789727217097
0,369983203683006
0,374936477328542
0,371215757859502
0,363789636914222
0,364917065784695
0,358134993844388
0,356911687364056
0,359065691203072
0,354738325945318
0,353784337160101
0,351022260212327
0,346286346002134
0,35213580209659
0,345518409695081
0,342421212132035
0,336315558755879
0,344803625276167
0,339027391346746
0,337700726589402
0,320548295419138
0,330367833134651
0,324555824181073
0,327541077080029
0,320591272142098
0,321449840618839
0,311938385056806
0,320080962940288
0,313901299390368
0,306716214113592
0,307318219171173
0,307304676282891
0,307198296093455
0,306854422736107
0,298869461918747
0,30302550952145
0,297989577864443
0,295896338038268
0,296351694652113
0,297940258088921
0,288155787956883
0,294643733253129
0,288011717566836
0,288706973523338
0,284340085876238
0,290107630602944
0,280404205481868
0,274381088601227
0,278255383611635
0,278272612075535
0,273812438652216
0,278967190048809
0,272022275391064
0,271645773161326
0,271904553523689
0,273229410069364
0,267125497017493
0,274034911601777
0,26732616892312
0,268776217118439
0,264072938776663
0,262717848800354
0,257781526510128
0,260639866017078
0,255256120559568
0,258486166893108
0,258423893625842
0,256163752198661
0,249676593655882
0,250793292082092
0,255231423510545
0,253734280460398
0,251445286298521
0,252636267692092
0,24884962010213
0,246637929526937
0,243291652893165
0,251114529963347
0,242912876028854
0,240205135607128
0,236857229955807
0,241302799787617
0,238853740424562
0,235920995661702
0,235735366125507
0,239194899540398
0,233256352312024
0,236727119827829
0,231611983326844
0,232077926531417
0,229099215276489
0,232958723229407
0,231209351666138
0,233315326754388
0,228343640146696
0,226975380966659
0,221467332304258
0,22928073458489
0,225981641277188
0,227275093565996
0,220281147258985
0,229566071830052
0,223002142210112
0,222016028342328
0,21693674548295
0,216337302318428
0,218886638589466
0,221894824668627
0,218454726081404
0,220010684717487
0,214599186716565
0,218243120989951
0,21377682478645
0,213425680545828
0,214963754113857
0,211358026642412
0,209093688688148
0,210699603269409
0,211003629985353
0,209902058777782
0,205129473513345
0,214618640876268
0,205301649424082
0,20733041841054
0,204253215159377
0,210365849947817
0,201929615822568
0,200278358436512
0,202456921824301
0,204599764471876
0,197983817515498
0,203037832934613
0,198155140535447
0,200322243605434
0,19830716040319
0,19932318298155
0,198275624824599
0,199131338360099
0,197021900773254
0,198659537936713
0,195870973822613
0,194513265092786
0,192255835060774
0,194026260553508
0,192266843100045
0,197580214961988
0,192435626709483
0,192141664266708
0,191465051315571
0,19018174260239
0,192157126664459
0,195714945335383
0,18956970747935
0,191229664962691
0,191821279583399
0,190527830847069
0,18738579256395
0,191270765030259
0,185961009735696
0,18942997705851
0,190688978165455
0,189015958257165
0,184836999232423
0,185578829748758
0,186211608707832
0,185649451688186
0,185389236637782
0,183473927358091
0,182475676184124
0,183678563735532
0,18043477775551
0,184603465863947
0,176669782354913
0,182189798850281
0,18080665679776
0,181574610848844
0,179152313902854
0,181027047202155
0,180147908494662
0,17994119093588
0,17374298427887
0,178899607010598
0,178541637301003
0,181668453013281
0,177564850670297
0,173594396936857
0,173317082707505
0,175985409445398
0,175383710672642
0,174687050871061
0,175755548442277
0,17132549513357
0,172252490146666
0,17255859323308
0,168862977851263
0,171513928089869
0,16721951974797
0,166923142831751
0,169162034919506
0,168485870953772
0,168091812514035
0,166313899898037
0,167253119537632
0,170584162183265
0,164760032770825
0,166017813423914
0,164839840247627
0,164360365719065
0,162278431870136
0,165716819596828
0,161799546470328
0,162153023057023
0,162593342184797
0,162486592650578
0,161234695153053
0,164157728720793
0,157379389041804
0,162191922342478
0,159101636967411
0,158538898235807
0,156365693958902
0,157450157593161
0,157041452868336
0,153545267791711
0,154560628090768
0,15561580990543
0,154420856151899
0,15339134844296
0,152184275035537
0,15352560449248
0,150580238223029
0,155604964808284
0,153324502533792
0,150711933943795
0,151303234635708
0,149019381488832
0,147006854809423
0,151106848431447
0,147211027817029
0,152671126311645
0,149191659848494
0,144176307917522
0,145039349841984
0,147231047839011
0,144924260636313
0,14737089687268
0,14393246784941
0,143425053128438
0,14241394250023
0,141729743436028
0,14405151457138
0,141633584052628
0,140423114370287
0,144295106487219
0,139844787856295
0,141738661575277
0,140218980704362
0,143287521605416
0,138516555870922
0,140016279254404
0,137831285369627
0,13725010742804
0,135939745379026
0,135926205052122
0,136081282241975
0,133241182429042
0,136385012126522
0,134746379029035
0,13481109931618
0,137730767397012
0,132202001629532
0,130557635598771
0,130796023991499
0,134513483306643
0,130370252826268
0,134943841283194
0,131267471395166
0,133831399597721
0,129354357544041
0,132217721144346
0,129930854103041
0,129893986673922
0,131664718842796
0,129898721267184
0,127277596362191
0,130196366188609
0,130951581349042
0,127698042298211
0,126324059102145
0,129858898615142
0,126950724252866
0,130335935916793
0,124509021551425
0,126886623304716
0,127396967736835
0,128810432757247
0,124736760221768
0,127243503191908
0,123786556535684
0,126466354761266
0,127233410064186
0,125574977148444
0,124490406486596
0,125805178413007
0,127145202199837
0,12475203464424
0,125751457489805
0,124497966546622
0,121020694865137
0,121796830558008
0,126219533558974
0,127403578079878
0,123516740938594
0,121560219743082
0,122133948027241
0,123806653143331
0,123033899336365
0,121801058719506
0,116936874097195
0,120714375853797
0,119650448916152
0,119452511132394
0,121812003635052
0,121800764754997
0,123372636275517
0,121717338040844
0,121317567976201
0,121368874268362
0,11973621818258
0,12042129974712
0,121064503024182
0,119864142807544
0,117607320709522
0,123481042753223
0,121175347912193
0,121468294202076
0,123755215556572
0,118793945234408
0,116998490972386
0,117110543601571
0,114363338272177
0,118120312450962
0,121788639062258
0,115183255396632
0,115864306347248
0,119005203566932
0,118124835462119
0,119252009898224
0,121031010784503
0,117500499528655
0,117002935374082
0,119925961379006
0,119940342602594
0,119097156038354
0,117437798975267
0,117717360893229
0,118816951270181
0,116625568319679
0,119266842722262
0,11522841220746
0,118898120370374
0,118878990552874
0,116981716545224
0,116365515011165
0,118811692725273
0,118004461930831
0,116994433170815
0,116050164219884
0,11595538753603
0,117238552729994
0,113556914944732
0,114884232417886
0,115366059961462
0,117299223134643
0,113847432162774
0,114348825936822
0,116794798318964
0,114956573107703
0,116458845402804
0,111983036320484
0,116534317530669
0,11583670167998
0,114332073212263
0,112939981132694
0,116444157840696
0,113541963875605
0,114125133720654
0,11312980246282
0,113474865508835
0,1155336974048
0,114195622844298
0,112250002247848
0,115498917002929
0,112725077275408
0,112562883013609
0,115652998471782
0,113978341697023
0,114906515702801
0,118552496017018
0,115434271444297
0,112669786660579
0,110704584400356
0,113655467432433
0,113423088317307
0,113871214232279
0,112359891645422
0,111475533228145
0,11404769896871
0,117007708907482
0,115621113615359
0,113118627141883
0,113629484235431
0,117676214382929
0,114403294356201
0,113646480450962
0,111046435530659
0,112831977698266
0,114456238557111
0,111952177391704
0,113718608077625
0,112445005907028
0,113251767945861
0,114552992492466
0,110711701338601
0,110045152078824
0,11089449478544
0,109266548447111
0,113443601580349
0,112456491532701
0,112079767377895
0,113729030202049
0,111112918374636
0,111922372988861
0,110969244562559
0,112812550603796
0,107594611722456
0,110445192560502
0,110117919872759
0,110712543695379
0,108910280286689
0,110480240958033
0,110395613150453
0,113671556427665
0,111192904647144
0,108038811709152
0,111623982566017
0,112543373797963
0,109780588765641
0,106930184625573
0,107915251816089
0,11031846160084
0,10918825106916
0,111925279916977
0,106985347987908
0,110081522722808
0,109466742594369
0,10895480026345
0,107935456844079
0,11052014528615
0,109828031134885
0,108599574298028
0,108623407389946
0,109074110884967
0,109454169832481
0,113022265484317
0,108614181870645
0,111031382679868
0,111358144951607
0,109166739252096
0,10865665134474
0,112005671702605
0,110478389458482
0,109636044967978
0,108678061004628
0,111381899527302
0,106901246950239
0,106767405143938
0,1054319995792
0,107916887375999
0,106779245006259
0,109145192561334
0,108265369764655
0,109510473798717
0,109212028444378
0,109745858154783
0,107864216437522
0,109524759923655
0,111697930924964
0,109454659708499
0,105687601601498
0,108982741783281
0,105572635888903
0,10692292961096
0,10731267157136
0,108656910887434
0,105974863844316
0,110487406104208
0,106938354032084
0,107143644260887
0,108446616894063
0,110394543688332
0,105552129869564
0,10612357355146
0,107111580856613
0,110410067542096
0,105370698340691
0,110812336815507
0,108053789662672
0,108094377639482
0,105095496781005
0,108008693836063
0,107945236742383
0,110172067977062
0,1066800631271
0,110097574516206
0,106573592538515
0,107269106924442
0,107262095537577
0,110155101823504
0,10539740706958
0,110266109922697
0,105486702964345
0,110624117714859
0,109345915107174
0,111324969769784
0,1081971056939
0,112133789526874
0,107393911107685
0,113147965311283
0,108940513902225
0,115312884606819
0,109812752024526
0,112380627949172
0,113557013706643
0,119185491795131
0,113839673552969
0,119765167529596
0,117090180497661
0,124757362565191
0,117219643122926
0,120677188403597
0,117391709105384
0,12621643668697
0,117947176132461
0,123561124725181
0,117511163838905
0,124654563474075
0,119083913037905
0,124628535865861
0,118269598434545
0,126227464098127
0,117149128404183
0,12779104654306
0,124191724846659
0,126007198944954
0,114741983248664
0,126499089448435
0,120378571392601
0,126543642160324
0,121354331131927
0,130235118641526
0,117253141585018
0,128236122233476
0,116280118734127
0,131136152964925
0,114722908809887
0,12578567595488
0,11123747269976
0,133940270556743
0,109223229399885
0,131400107488108
0,116384399128491
0,133994002809368
0,116422601908439
0,134935969675493
0,115570356202528
0,133003280540467
0,111081588244336
0,131210878327899
0,10822341721425
0,134203362174684
0,110464675172636
0,132286222568549
0,110583059253345
0,136257054043973
0,113351050477184
0,136504021779256
0,11362333345066
0,131648717340258
0,119458001913357
0,12928318511115
0,12142873282294
0,127345932737298
0,131249403649605
0,119584382320192
0,13646692048272
0,113114611950779
0,14505044280831
0,103264126572885
0,154508744691111
0,099495415679653
0,154572687447355
0,0946891969913057
0,152469139563289
0,0997678011848971
0,150909219070939
0,109435820896423
0,143169322952372
0,115658766844041
0,13318487656031
0,123604168816897
0,123815800238376
0,12589432311221
0,121637207021352
0,124470113178181
0,123709961108137
0,120194578282528
0,126343473542412
0,122791239402381
0,129621362371405
0,117482861562343
0,129716694493292
0,120195106002693
0,126439755711459
0,119014919873868
0,124552133994897
0,122588119286598
0,125318328365271
0,119266341074724
0,126980401341997
0,121301720759369
0,124623333596157
0,121328652409643
0,124543703502321
0,122547162030407
0,12398302695933
0,121437945606279
0,128092690559524
0,124452864058402
0,126789673828024
0,123415265330871
0,127340449981722
0,12389275351862
0,129058634201016
0,126876233008673
0,128069779862887
0,122765002308465
0,128099568170907
0,125541837528307
0,127895106679037
0,125441700636168
0,130522654931885
0,125423122604773
0,130232257376958
0,127299901164198
0,132118855616125
0,127008377308024
0,131180974180326
0,130573354990735
0,131896214072823
0,128446339394163
0,132500998427276
0,127393290615033
0,129990252601499
0,130973803879024
0,13479621632599
0,130572108711328
0,133076567708301
0,128990325057058
0,130726180470443
0,130648227274857
0,133901350041607
0,131341445138848
0,132688305043759
0,132671561037559
0,136965383458907
0,134910548795319
0,133250243491971
0,133509762620682
0,134815057854545
0,134238890510686
0,134650752541603
0,133845722316722
0,134114996914197
0,133807104968234
0,137319329459078
0,134926578005488
0,136834021181179
0,136628954563529
0,137873962413524
0,135331655946412
0,13588606757855
0,134510265834836
0,138036492134052
0,136717310069298
0,135558097641546
0,137025784957857
0,13775439022038
0,138911495331316
0,141269980266341
0,140058050425128
0,140750603250579
0,139508773159279
0,143227607681022
0,139787553289883
0,142744720168022
0,141202159411297
0,139995557400032
0,143021361216157
0,145141559459925
0,142977683356265
0,140317951651972
0,143834286861839
0,143550122055635
0,142965867322104
0,142349703251419
0,143271009124509
0,145038433389519
0,143323629632185
0,144552061074198
0,145094971188893
0,147209392698982
0,144344736249788
0,144088663972521
0,146557239178065
0,146401091772723
0,145291737718952
0,148446110089913
0,147031701065454
0,148700023421801
0,148463066730243
0,146142744133697
0,148437996070085
0,151018995213135
0,150829448168504
0,151578602279893
0,149904616149974
0,148514350798269
0,149147059193561
0,149816688214863
0,148730984375994
0,14924900385222
0,150838915691753
0,152332271735813
0,152408561684083
0,150410595417893
0,150681486037349
0,153104919201175
0,154691492838629
0,152399778578947
0,151672451467076
0,154491894199509
0,151403370495035
0,152687246704406
0,153452934330189
0,15348817675154
0,152658595087451
0,152944112597114
0,152414457574904
0,155310953975742
0,155268005837205
0,156959469971744
0,157910147192482
0,155703386904536
0,155339975143344
0,155329058384439
0,157233018802781
0,157075847422124
0,156356536515234
0,156009495524297
0,158488707946861
0,158560782011666
0,15890451007609
0,158782559851362
0,158472517861862
0,157551387049579
0,15821213504252
0,158849026206491
0,156769208366428
0,159173310417981
0,158369655087307
0,156378960240368
0,15998083496895
0,159182335563507
0,157531268241667
0,160917240647625
0,160614057993964
0,159679304938107
0,15843996634616
0,156029915998238
0,158734328831907
0,158257958122344
0,158411699938372
0,15948807037055
0,161300793331771
0,160858971650352
0,158509658343409
0,159281357509785
0,159177063861301
0,159897816641824
0,159275708578462
0,159177461884661
0,159770024172384
0,158474541922638
0,16006843395217
0,161283290622866
0,158657892168713
0,157428054118983
0,160872855922261
0,159801098723367
0,159227497545301
0,158592837146182
0,158348236296931
0,159113382236661
0,158657876315157
0,157876099229791
0,160167213925079
0,159241246711777
0,159803924899044
0,159219276146627
0,161704002244102
0,160038203655111
0,158570595763771
0,157478784844046
0,158569945346355
0,158168314210574
0,15862240697209
0,159813437183599
0,159669653496868
0,159834507627519
0,159090186199731
0,156864243681818
0,158324041526305
0,159454833745461
0,158421624107752
0,15796277644157
0,158374889580306
0,158423006536599
0,157981772688771
0,153783183003632
0,158217233950657
0,156340085765623
0,157992033008643
0,158545979526565
0,157248512186218
0,158910508989866
0,156450124855584
0,15502732334239
0,156293365230332
0,154611151850444
0,155909843530002
0,155652606693444
0,157811964838661
0,154832397198607
0,156450453323231
0,155976775557703
0,156844292408735
0,154410446520945
0,152812691561316
0,152610711898154
0,153685167190003
0,154253586788478
0,155036915166516
0,153686072087236
0,155991333953459
0,150313329637262
0,152398378176074
0,154158514806387
0,153437663586138
0,154099906068148
0,155372543150182
0,152950496710411
0,154922238553863
0,151533072913521
0,150135411701944
0,148497105448818
0,152281386200256
0,152015416294791
0,150043646385619
0,146985981510713
0,148350275434138
0,149971036412952
0,149461178530668
0,1495645180391
0,150067101906068
0,147732301756829
0,148612334367794
0,149115048243278
0,148404363460685
0,146066017160584
0,146796450210382
0,145677288481527
0,146264207691921
0,145179653722631
0,147961929348085
0,146655693054175
0,148997391367844
0,148036115333942
0,144843065226323
0,144930419795652
0,144431715888747
0,142164247654258
0,14486047796344
0,142348033956807
0,144824325706604
0,144048475574955
0,14265690145208
0,142483992397727
0,143024755356674
0,141419935496435
0,140618706294529
0,140887128569942
0,140650143875648
0,137942481652128
0,13930389082944
0,139352147114854
0,140756887241712
0,139081689928932
0,138492168730202
0,1376093751254
0,138073235896217
0,138814713350826
0,139192628323039
0,140364388872068
0,13993022663102
0,135870792650798
0,136923339595116
0,133685063127359
0,13453521330207
0,133592861185671
0,133586332239805
0,133158146697025
0,133256346992655
0,129250447288216
0,132853111752534
0,129067544098365
0,130798926607749
0,130029629089442
0,130882726275894
0,129743366805617
0,130071765286292
0,130086880153254
0,132309858050338
0,127200021185479
0,128392949215327
0,128606331907235
0,12818642715612
0,125755461359455
0,128227516901016
0,132166644474351
0,140779167874854
0,127473001418214
0,127781635441507
0,129796492981288
0,128577708557772
0,124025714916131
0,127640281079179
0,126845411430466
0,125709355875482
0,124092406994595
0,127137615318335
0,126315310052689
0,125940284594077
0,122912810083357
0,124638177526376
0,122226995890714
0,123201279384443
0,123306840817391
0,12280848653054
0,120966161383096
0,122827925789578
0,120262606419092
0,12139710498328
0,120427560561039
0,122884195069938
0,120895438582628
0,128254237819149
0,126012070941557
0,124530513656588
0,120652391187567
0,117713990769945
0,11847471871106
0,119035106936956
0,118162921653693
0,117213160572155
0,116376746123887
0,119108774562378
0,118926893682283
0,117866040550244
0,117278652558511
0,117805855665779
0,114391355901624
0,118379885900376
0,11480356820801
0,11520966603876
0,112938928612786
0,112216977643277
0,114163983439887
0,115672601116638
0,117213480044361
0,117651730730749
0,112823195234841
0,121045623047891
0,128647306827693
0,117979467855729
0,110873562971855
0,115711417379164
0,111354382364902
0,112922765547988
0,11187119554443
0,115336332521522
0,111535858825945
0,11321593957457
0,111498528975467
0,112667387487996
0,110496531697616
0,113192077062625
0,109953269146649
0,11323523488075
0,111657470400749
0,112504250851369
0,11109865462938
0,112210781387864
0,117201738363836
0,127805698488964
0,115916026887343
0,111048323637481
0,108505676483014
0,110942240959781
0,123148775179313
0,120226438237116
0,104521144610285
0,111229716567974
0,10758605245325
0,110242276891587
0,108917702854662
0,110931886502782
0,110021399750151
0,115854844436733
0,110762470973534
0,113372071989797
0,107800699006944
0,109614330205662
0,108946862945358
0,109763858449309
0,104016823474501
0,110068148554809
0,105338582346275
0,107705227387604
0,105924513264171
0,107028397629727
0,106155004356946
0,108540583398655
0,112609205179323
0,114771086795363
0,107184373694742
0,109333705030694
0,105991534836007
0,108485600522819
0,113884955539897
0,122802989202978
0,109856083863808
0,109584968155449
0,106711161120988
0,105677784440433
0,10735867415755
0,108386079284504
0,104271635051262
0,106425618795121
0,105499637125019
0,10876144061756
0,104807081533852
0,106376177265219
0,107601325317093
0,107226983743409
0,10528518921828
0,108335243919966
0,103990897631583
0,107767981184133
0,10472787498976
0,11038746847233
0,118939542332405
0,133222569207783
0,116318370374327
0,116719993903825
0,112257784759359
0,107770911704122
0,105536187723869
0,108228045448525
0,108635429156584
0,111300787223038
0,105577899064054
0,108538215066912
0,107415213333551
0,108970209438554
0,106598920918534
0,107505339095798
0,104131054170004
0,109561329212193
0,106123017792083
0,106663743534966
0,107420023737131
0,10920282592128
0,105090656077317
0,120196449578959
0,117603431394159
0,114770791681738
0,111196561499599
0,134051694575289
0,133267842669408
0,114050315778186
0,115355610337391
0,109815947468436
0,111283592118433
0,108306766666352
0,109468990989891
0,115820933423438
0,111736862542624
0,111022499817227
0,108514431592114
0,113795247842188
0,111803499119044
0,108553196320002
0,119500234310552
0,14478841297404
0,120598666989154
0,112156202872446
0,109907404055266
0,126215979700671
0,134515557602024
0,116755735995474
0,111097497486763
0,117441789365537
0,111186641573554
0,112668998253675
0,110675678937117
0,115070064236395
0,117477933037745
0,11842918147851
0,11437280226621
0,115747349186303
0,111400677629571
0,117908760167755
0,117212376165968
0,127799718973026
0,125193560160641
0,117120784343019
0,119761624734747
0,122529288492977
0,115232828404224
0,118822657675113
0,116071289739031
0,116795640948409
0,127465117608713
0,133010947931605
0,122036869895658
0,134339510718532
0,128593969429372
0,121177151982913
0,124867767674713
0,132402263865929
0,124545726366899
0,12015038831755
0,135445256932321
0,151626397372115
0,145228724444079
0,14288617402771
0,128004624865073
0,127347647646183
0,125002607849052
0,121810357725094
0,127380794499287
0,144834592084276
0,128275427391346
0,127955928857679
0,12250211445336
0,144428476137627
0,141909766570481
0,13544320893098
0,133289954533757
0,127378675002791
0,131891751127139
0,147697179340999
0,13426851740937
0,136308374614019
0,154867751690353
0,175674075825561
0,160204450725537
0,141917481519806
0,136805930842621
0,172725770511307
0,149030431487529
0,142738795098678
0,138500852656784
0,145251172998344
0,138878097475391
0,152109735364046
0,17171497593968
0,155012520604355
0,145332740697989
0,153074611679469
0,145665767913629
0,171379423293011
0,159486411215442
0,152783651491844
0,151712456213111
0,156210240951782
0,155699454093834
0,204139384119444
0,173437973719327
0,179314576968341
0,18964939284485
0,186754764280476
0,176371251311928
0,175046457259873
0,168442573147841
0,188727242515425
0,190557031156636
0,180799022231625
0,168333027960933
0,203433657922186
0,202375102857295
0,183788463547609
0,18353378409446
0,186008719667146
0,184720448062798
0,232536618449366
0,245499353706142
0,226399428631836
0,198456871067243
0,203367658307172
0,223882310406686
0,208465622855173
0,1998154517972
0,206366038852004
0,207059446833013
0,212010007227472
0,211004643676649
0,224290842956089
0,220082310642034
0,22708872093789
0,222455017284966
0,23130088919766
0,252555722273084
0,30225370649531
0,279118503385429
0,257298137614382
0,293241094426207
0,283628897413786
0,267285605289155
0,259659263047113
0,258223229383766
0,278102497789454
0,27838108268454
0,27841616897401
0,277776949360292
0,313069603960048
0,309544861029193
0,318331480032815
0,323530541863389
0,313624821532581
0,320986169443761
0,323322638181989
0,467067834651029
0,366472394661923
0,35747252954026
0,359641200606669
0,369667980033564
0,447090494301846
0,38327383513967
0,385221409263147
0,386469997011688
0,388935523807678
0,407470815550397
0,425642245033526
0,425860411428726
0,443001046054184
0,438016989639523
0,441160937098678
0,458762469494657
0,57474588118162
0,536801349028378
0,50947420160506
0,48507557996795
0,523865769181548
0,520932745883172
0,514887692764697
0,534532490839371
0,536110849540794
0,536660573470843
0,631498897100965
0,572562539783832
0,580319024609367
0,588926479091888
0,633094668260713
0,584818385901673
0,683030506786129
0,655884711392643
0,643669078436717
0,639639935928247
0,658549602715504
0,666965009463022
0,65717942995383
0,703247135599098
0,715976756476477
0,689410141523322
0,718672548594143
0,714092865246022
0,739378178727343
0,726527890005782
0,759190581922741
0,74852869798642
0,820326683864199
0,849619212301783
1,11565085064527
0,830532425125536
0,788723512686623
0,790177869989742
0,797518221048006
0,835767888893405
0,880317230858726
0,843328282325572
0,865254563367012
0,816499771473579
0,844582222698565
0,835346213687164
0,85251355349055
0,8173185623284
0,853686565890211
0,808418441874426
0,878177563102583
0,826881127149588
0,865161866951162
0,929060030337509
0,843352020184893
0,845945515554146
0,85171011913937
0,839153861919825
0,829464015065351
0,811275049446224
0,848889234519072
0,871780210883589
0,826475061766819
0,808792762287904
0,793444397040432
0,80736651035116
0,817681267226687
0,785908065784695
0,770846960307293
0,748681984856085
0,738937386988825
0,715570773254457
0,780406924184105
0,785949487367721
0,71838419711157
0,694901614271982
0,689633806028331
0,676413850856382
0,668180150908942
0,655429946066702
0,659819688167092
0,65110957763041
0,64264935093246
0,623490712448938
0,616620832127711
0,606987928053237
0,60425362849323
0,597785851794536
0,593889796934618
0,586339083154727
0,576565209159013
0,565754080551881
0,570858511456567
0,546827825232744
0,552459740881354
0,539574223677218
0,545263178443523
0,54915069108398
0,537611263080711
0,525105949865975
0,529242928502484
0,519368623534598
0,51035175548267
0,505496117054039
0,508766698625746
0,498779554891643
0,505591279211036
0,494479469650706
0,498017165188137
0,489717934071545
0,486750683585623
0,485656460521518
0,489268578921284
0,480855145882384
0,484505079207667
0,461940308131798
0,550538447150221
0,495335599081236
0,472535433488838
0,469481740675854
0,463393264667785
0,466881551531003
0,452762430786916
0,50811152232006
0,490830155015144
0,462556761517051
0,452905529918647
0,450222454517542
0,477502513843493
0,461679686953197
0,443848408403252
0,45794521017388
0,434365343692029
0,499528644773762
0,528292134118688
0,543107369497027
0,535942918265927
0,463426098845321
0,432318667326481
0,447888711488483
0,489116665968075
0,422890355537906
0,435802909109977
0,413601487753915
0,477639216217252
0,440190875195563
0,421103390592336
0,423808370101273
0,407932725073414
0,442112353907575
0,455817895852292
0,419490968848512
0,436267184987445
0,458664584015082
0,433840454225421
0,470227814926268
0,493340657015062
0,437867605694326
0,390409360839607
0,39564504787394
0,388414068860924
0,382768823409686
0,461258141277565
0,398131822384058
0,406396542380473
0,378966405508651
0,378116558845039
0,374976612325038
0,400858634550103
0,38681678318289
0,386177171715934
0,425891983540338
0,353959652283843
0,388146256615118
0,385347105893965
0,414167221901214
0,413963076130665
0,377131784505408
0,345783466488429
0,402356553253297
0,407255184427527
0,369311291528284
0,379096760057793
0,33749049685482
0,346945625034823
0,370363719509785
0,337315807039871
0,367591653189419
0,369916552031707
0,362014767124002
0,417934611942655
0,413051142910591
0,398766178936891
0,347213987035742
0,320554111624174
0,325321585438037
0,326508186018235
0,329358753723212
0,308087368686697
0,365736733702048
0,329164375169017
0,314875952191103
0,380654677476753
0,324842991850926
0,320064340735249
0,315630994764642
0,313393975836841
0,325574851502725
0,351840033192647
0,366115870038253
0,333833683736503
0,333937063977902
0,350255200600422
0,319845473741078
0,325893528233834
0,31596466247965
0,318709238575568
0,321817496715758
0,347035235069132
0,328807501686887
0,331251389366913
0,334425087836111
0,332823869950223
0,35634122780434
0,377926194779108
0,326202817692746
0,403959983756536
0,360041266018879
0,432859137187135
0,368427091478385
0,357692088296214
0,363204448350126
0,358440632340108
0,370878021934788
0,36468490147878
0,379654890180909
0,417641251452151
0,365294007288999
0,388563803229728
0,369868473172856
0,389287995776796
0,377687553564828
0,437456083849825
0,399956386876862
0,469907481932545
0,444096304322617
0,421260279359004
0,410176758044009
0,385755919655304
0,408012034696645
0,397950108096503
0,393468920738961
0,397473405353038
0,399081092584651
0,433528786839552
0,397076781573118
0,405644167224514
0,394039126056627
0,402868385078891
0,397480301712046
0,400768679186009
0,405988575558359
0,410825692156646
0,405260886938214
0,415336005403495
0,397760008776809
0,512368507304498
0,419771298140089
0,419645396047964
0,409082451899608
0,422949227645774
0,418867671187712
0,418983426182162
0,440349898147528
0,4331890282239
0,415922648045871
0,435249923769451
0,419607295768831
0,43273366151093
0,425286373755167
0,468855160345031
0,420288671798804
0,456799102224636
0,408486711965779
0,483819957040328
0,484608915464734
0,450631330810289
0,460361442410746
0,444975858241619
0,443903291744513
0,438634240152112
0,444001387275606
0,445376584873591
0,444192491399318
0,443670606716425
0,450319319587067
0,443076917914587
0,43586696793958
0,441788005965893
0,443694819950477
0,477581222536401
0,444686072147298
0,448375258812395
0,437789326390053
0,441570488690798
0,435341480411668
0,471608455897905
0,456429762585846
0,444224729706685
0,449790379763921
0,450300382445544
0,459051819743979
0,457512841464575
0,432815275193943
0,448819952003161
0,432061056617505
0,445507967607754
0,432991721223114
0,447527140101744
0,475747980197493
0,449902053109337
0,451976058539238
0,439104609168847
0,444624856924191
0,444278189371002
0,44914048482489
0,448237696565957
0,456629905417785
0,452061712338047
0,459846688240503
0,457165805077705
0,457584894266922
0,470647276286108
0,480799220141315
0,475345874217256
0,452411513693623
0,461324095880447
0,451513167355511
0,449762715615373
0,459053434583746
0,456106060414064
0,448917982415193
0,443429231744759
0,436118220006756
0,432496414483789
0,477939109344339
0,437723541031403
0,452302563971436
0,433523726930223
0,431477692795778
0,435287455407293
0,424214555638647
0,422750746750647
0,42644144581324
0,431564689805573
0,416112427838075
0,420854220149833
0,419258393322148
0,419092270316723
0,416080285620111
0,421784630851355
0,414674043363436
0,412309565967868
0,415572381038668
0,411350695851397
0,41408518096769
0,413207647209995
0,414421480609225
0,411456947343439
0,431130390508141
0,435825890234586
0,432615165492768
0,424193158418609
0,410162776079617
0,420431854487987
0,406908362577266
0,415605007400489
0,405047070390927
0,410613333665694
0,401349734312742
0,41226695973242
0,407694981952144
0,410499102170631
0,407227540599526
0,412559327132544
0,40599997775136
0,409655771092817
0,403101096517156
0,410073315223918
0,405383532690562
0,408641508366063
0,405866044021426
0,420118248126903
0,411040745254322
0,409248002045388
0,408018485903557
0,405763928689106
0,407686100949624
0,407083797178601
0,411496405107373
0,409582952220844
0,403098144852343
0,403533183654804
0,396844315806454
0,404036006408936
0,400725936627644
0,404332606283108
0,400023671765873
0,402892899066963
0,394866826082275
0,401488780407278
0,38727648189237
0,400057270205499
0,387837218606267
0,39266939733022
0,385309132223177
0,38647348206582
0,386599785610856
0,384050942254905
0,3810666012728
0,378583626521374
0,379040848461463
0,380422681429113
0,377282073534552
0,376445650742061
0,374381834711774
0,37925245730939
0,37633586696714
0,378395878858832
0,375355037161041
0,374462309014424
0,371819081732367
0,373271851451449
0,37350810318713
0,373864488874972
0,371380744895588
0,373934876972659
0,371032384375741
0,373284544956269
0,37228536713647
0,374640256253122
0,375681803374373
0,380311017356256
0,38102078911222
0,379630965462264
0,38208226613056
0,380904823769191
0,382573052232326
0,383493094812671
0,38649849276208
0,388437722691006
0,384496147868553
0,382863260514087
0,385725043467461
0,384878557236879
0,382724119086825
0,386119662671714
0,38744414020684
0,387074345942793
0,382395888898637
0,383404351513801
0,388026076972973
0,388949412603408
0,385210674281226
0,386592133436343
0,38436442177414
0,381256084067881
0,378266724325825
0,380844133391051
0,379699726889284
0,381291051770703
0,379931478400906
0,38018593270648
0,3758135156968
0,379961064086157
0,371690029085048
0,373339242613609
0,372973543490779
0,372548370724094
0,366964090112084
0,369199609101479
0,371136584753134
0,365157126605996
0,367257317527562
0,367961624322032
0,367925807753032
0,367314463511171
0,364803178495795
0,368016705425294
0,363486699794979
0,36567324792149
0,364769784738542
0,367521135324506
0,364416000738875
0,363972644647151
0,360695527839416
0,3631333105051
0,356303173112022
0,35846664973014
0,355033753084945
0,359587040283631
0,352721888970804
0,355297648713306
0,353804992288449
0,350009304604805
0,347038637395368
0,347552409773093
0,343541613377931
0,345758466001844
0,342173511832955
0,342406361735445
0,338618395645475
0,33832420210528
0,335634104874644
0,336412293019752
0,3355061395015
0,33662509607348
0,337386763692005
0,33607472408982
0,335326861133753
0,332626823645287
0,330783242490776
0,330988963755654
0,331152770611197
0,327918548367147
0,325816575196828
0,324760564617849
0,323898986975759
0,320790825814287
0,318602221694737
0,318837035831531
0,314900545449338
0,315570470245267
0,314057939378601
0,316474114165493
0,313740445449066
0,315332732209527
0,315611493442594
0,31724362216616
0,319308518781944
0,324516858282469
0,327589224787903
0,32839306527798
0,333783591530601
0,341634898182411
0,348007241650437
0,354861369771957
0,362450947290147
0,371210782689707
0,378921391759796
0,388125408154665
0,396413524050572
0,40723900357065
0,412557718733401
0,425592191122035
0,433634480848299
0,442755513942239
0,453687167019699
0,467065634850464
0,468716248820238
0,485670350418129
0,490739910117178
0,494592898129735
0,502543417036553
0,512126826681463
0,516711063217434
0,524291382021733
0,523200591066276
0,524657056369204
0,530948164216406
0,535166555964489
0,534224251843376
0,53341563553762
0,536239821873053
0,530885256026764
0,527737009658722
0,528630665274975
0,529910966998944
0,527347932355383
0,528510331140165
0,525051854043274
0,519049480057538
0,525740606586354
0,524403864501907
0,5246338561912
0,528709624648469
0,532152708421171
0,529443829258623
0,531485059149495
0,537580433658682
0,538200989182378
0,539304573027244
0,542871793885014
0,54768354508722
0,553773003621125
0,560800531544085
0,569415589636054
0,569753149964027
0,579004838111333
0,582195857947394
0,591321556435127
0,603827211182413
0,610682799190194
0,624321905999221
0,627719261043416
0,634539326033213
0,636458677971456
0,650040024368914
0,651245507148962
0,644837161984733
0,643538002426165
0,646358730931832
0,64704418450732
0,633294561394552
0,639457347806737
0,632459351312699
0,625602343518605
0,623401515165792
0,620553609079357
0,628162517650211
0,626146275148525
0,62574289964975
0,632047862106503
0,642595388527976
0,643324615919464
0,649413527026945
0,660269282219036
0,667409192388561
0,682264125549516
0,687268436018069
0,693355004375558
0,702891292478969
0,709759892689378
0,722493492743553
0,728237880005004
0,738052732738241
0,745681823230188
0,75261896089781
0,761710539180277
0,777304619073083
0,781750566971312
0,790751474914446
0,801693314874374
0,818791839365375
0,825489610498682
0,840257982138133
0,858270143343856
0,87481322018802
0,884437077068971
0,8990209601002
0,912852552555534
0,923184250642811
0,930831725991109
0,938501282389476
0,958658660025082
0,959039137196588
0,954552470217198
0,963183766472967
0,980404151347949
0,974916181684625
0,977351421315001
0,970413591319938
0,962146691880931
0,958512940401795
0,942455339524915
0,942895513830709
0,93781441230513
0,92353831595602
0,920582322467656
0,924577766813914
0,921087030630506
0,912653660058658
0,90983170579663
0,924054204432655
0,925839379338959
0,92304730224825
0,936381081334268
0,942700641568861
0,929731303701627
0,948090430699062
0,959286849372751
0,956551445865174
0,966604003674111
0,973569319215248
0,975428313911664
0,99178061378374
0,983734395882322
0,998103321795382
1,00791568502405
1,01070875372572
0,997749421617368
1,0107517062233
1,01593973446106
1,02844951330066
1,03096195151134
1,03785351959959
1,02886417882613
1,02900461612787
1,03335279248797
1,03775817079671
1,01987945498851
1,02567099700891
1,02636959531511
1,0188209328677
1,00416338701144
1,0054005373201
0,994583487615434
0,992370966827932
0,979012470426888
0,991564625007562
0,987907869868949
0,985170425496012
0,974476576865864
0,966555895602689
0,951995255816461
0,951932773814862
0,932397036771658
0,925012055647592
0,909233592438641
0,874679921566643
0,852021808300075
0,829481860445414
0,808759061203764
0,78644417847075
0,764362083033256
0,751439548444418
0,728539828096944
0,702668748216269
0,680109910204936
0,680286396338274
0,663583723646452
0,657298843925326
0,658094859341503
0,65500403440535
0,647538007350998
0,658849340612407
0,655504738409659
0,648576712499166
0,650497087397551
0,647178151218064
0,644703786533306
0,648356409662187
0,641405172441981
0,634013068875682
0,624134293258817
0,626369112160498
0,617553653744973
0,615434676066103
0,60277052050257
0,594775549557792
0,584736501964542
0,574496821140172
0,566763761702659
0,561691183564397
0,541947030540164
0,541010139129688
0,532789235165938
0,521265733010687
0,510003250608535
0,507655453189949
0,487927150316269
0,491092902345796
0,475929255424252
0,462733942527296
0,458080516899927
0,452289713790612
0,447674737576878
0,447305560844292
0,438750733341016
0,43757136342273
0,432265726547242
0,426426296536368
0,427976356773668
0,428181887050908
0,420144522746293
0,420022095727781
0,422071283037999
0,420678690643432
0,420662671750232
0,419927140034683
0,4211336268012
0,418460262858552
0,420208911714346
0,42333553505517
0,420360959560102
0,419713166889565
0,418804617186559
0,427956994980357
0,427394049762263
0,429597838438623
0,429659310967361
0,429662558855318
0,429093125491522
0,436813140896021
0,436720221956567
0,435195597532025
0,435914371503309
0,437793189618979
0,431441792410625
0,435861725991109
0,437164303292567
0,434280442585195
0,437489613770217
0,440383714757212
0,444210762302247
0,438071487307229
0,440661240285583
0,451286557006021
0,439804299073914
0,446525942752186
0,44589175785856
0,456597769666799
0,458083110636086
0,462723761481142
0,460003001167021
0,45858376892987
0,464211881766216
0,468983438390603
0,462937337884794
0,468467381490158
0,472257897769975
0,479953975513331
0,489423299805093
0,487579834278662
0,486605052805303
0,489551525079058
0,478743695202441
0,492083764616051
0,492643135756425
0,49448326660294
0,494032468311037
0,500179530818171
0,498729499897926
0,500561465181737
0,506841120590121
0,513582207933756
0,512194436061684
0,52278591580831
0,518769151652704
0,527602712345056
0,540960695478432
0,547956998152274
0,543145468284484
0,55696063083344
0,552549147177523
0,571726615732967
0,569632584333979
0,586655745358582
0,596396729817547
0,600539349713416
0,58650917289449
0,595699276051585
0,601602415738506
0,592927061755209
0,58302762848186
0,598720784467863
0,588790512579147
0,593378229340814
0,594996158834775
0,601083189201141
0,60327866720436
0,612374768515436
0,597808956532442
0,604087468963019
0,615513564285422
0,61169701871165
0,620767074085165
0,620023016319971
0,621463933781133
0,628903132207359
0,636503814685322
0,626674307344025
0,627767462667838
0,62899042093923
0,637508299589713
0,64546002724525
0,632022902528211
0,647050912979289
0,650772468825576
0,653589863713552
0,658717384685689
0,655352663348592
0,641522572463419
0,660024074865167
0,663218303269318
0,682848961383383
0,686638313766898
0,679269005645905
0,666860459494753
0,67142680701172
0,682885547430859
0,696673722228213
0,703302891880553
0,689521902604034
0,665225701660407
0,68407571208141
0,678879303281678
0,703986204235873
0,70328740607728
0,71680487757573
0,725056998603309
0,742224162164214
0,698616922623938
0,698679555194968
0,713941937560658
0,734302919978498
0,746271703258123
0,72694143677649
0,717943883634081
0,735416931077686
0,746415328170148
0,735803449830385
0,735559904326837
0,781290901702632
0,753581004840124
0,729787596315047
0,745949657457175
0,787175297270684
0,759498868760607
0,793025574335729
0,783703044301038
0,794187855449426
0,784792501364763
0,795081482132614
0,810982543028115
0,813180675811847
0,80829838986182
0,822769930451853
0,792707198143196
0,848450657336848
0,838917409062065
0,810599253779371
0,813361324907936
0,825003094599584
0,845628575510743
0,851873137059822
0,848548203219664
0,850103527201211
0,845885644578246
0,84989867682445
0,854079065606233
0,877371505704504
0,835537047684035
0,887161255524896
0,897509344681491
0,909119231863454
0,907397786489894
0,919139484159535
0,892792887331027
0,900280940586312
0,900724395174409
0,890005722787269
0,915207268434076
0,996507779584371
0,944154161160497
0,959021362397482
0,945003489582922
0,990492427659026
0,963707640630861
0,951705537940355
1,00190873944778
1,02440054413598
1,00138789815901
0,998438783936211
0,952682012592358
1,07917003469634
1,04987030940374
1,06722593707836
1,10697600103569
1,07262374593024
1,07935752577496
1,11993220277401
1,05660128259985
1,00021767619543
1,06109495685499
1,10272613121331
1,0786642236721
1,09494513064526
1,08361818720299
1,20388577963155
1,11708273846422
1,10785321603059
1,12395430168191
1,06144364377018
1,05118581921997
1,07966021368244
1,09859884527423
1,20097281231146
1,25705819796934
1,24472389334074
1,13077209311023
1,16962229571073
1,11588138587105
1,25921228129937
1,12292622499763
1,11848751484591
1,15140139299148
1,08074172598496
1,08821124455927
1,19076810861258
1,05223520212358
1,15683325660781
1,222114655201
1,20298620151732
1,10293847975771
1,19763324455345
1,2604140213743
1,15240181849735
1,19371296106731
1,20906700434077
1,10372170179449
1,30569048365296
1,23645254141607
1,12230069661984
1,15783805085024
1,19732456356342
1,32311336070906
1,2425443250322
1,13980787921825
1,36059107944567
1,17040365523136
1,05562182933288
1,18891734871367
1,37356697769621
1,33224559631855
1,55731372787298
1,20618261582709
1,1959845241448
1,12044949592657
1,19581023943706
1,30888247599545
1,14409861125323
1,40990296496038
1,32638286074034
1,29453194175737
1,16592991162192
1,16620006002606
1,69199520398288
1,39079660652711
1,38623083401801
1,57102475720335
1,42483378373302
1,23475697688899
1,3488792007673
1,33568500531269
1,5306916011088
1,49919551736879
1,55328663090241
1,59540330367531
1,2041008033657
1,27801772686619
1,80955110107092
1,40859392412832
1,5248014320758
1,33796807204993
1,35374364806764
1,24257486102304
1,29104352360165
5
1,81151770710877
1,43495872992579
1,6134702367982
1,24554560494099
1,49734762546369
1,23821760482697
1,70805121174767
5
1,51498657271531
1,55640903628768
1,21370513401678
1,50558309111718
5
2,05729526483181
1,54626942008345
1,5968896021564
5
1,07244317784945
1,41226068007232
5
5
5
1,3345057638403
1,44794829479854
3,11898655878575
1,05086628494623
1,20068560686955
5
2,11218734798591
0,844871169569621
1,35820776328229
1,15321028412148
1,14656864608618
1,07206935809694
1,00726414426313
2,16455405001554
1,52918988516776
5
5
5
2,28173030628465
5
5
1,60547348597058
3,93236176911071
5
5
1,22809385984218
5
5
5
5
