3596
4000,36533379555
650,420452594757
1
2
2
0,0785808102652105
0,0777659113847078
0,0819653053156069
0,0729601857374951
0,0809526423808398
0,0747187016191967
0,0744614102794405
0,077260670600538
0,0731692721862721
0,071592607582162
0,0855416419733174
0,0829345352207711
0,081164617686124
0,0770374927632556
0,0798540718357109
0,0742245365169498
0,0754726254894784
0,0760237988021362
0,0800328337547823
0,0786218060826287
0,0824502642701879
0,0805051072778154
0,0779364564255425
0,0769358619010339
0,0816602892799775
0,0739233358735199
0,0828436494103717
0,0795133088992788
0,0868868877342129
0,0843375467480972
0,0777822500158132
0,0782332095753854
0,0791248017809706
0,079836426512141
0,0795838125854556
0,0688165670037138
0,0766709810368347
0,0780934402820262
0,0724333697905315
0,072894733917685
0,081160416526708
0,0779920579986387
0,0790705596439316
0,0725248092488891
0,084245070029508
0,0842794918013036
0,079286849385682
0,0751711554225637
0,0791386996368229
0,076417974848841
0,0736365075669017
0,0732800838151372
0,0910374302012823
0,0859393734744808
0,0885107847937702
0,0906295690071337
0,0841509206852948
0,075457321628094
0,0860042300952488
0,0746562364662098
0,0956259032913216
0,0897027190859283
0,0798214685864146
0,0736326770341403
0,0788967303445718
0,075093953306758
0,0744030147219004
0,0730705265448938
0,0773990323680987
0,0715714043895318
0,0759375642491126
0,0840986750576308
0,0980633871661411
0,0866495239085966
0,0814990331651948
0,0751182799461342
0,0806086348763597
0,0684707134568208
0,0712002194836245
0,0817866939168309
0,0881212581317271
0,0799183308325054
0,0925696062267012
0,0777723006418834
0,0828318696789138
0,0847231508552806
0,0768214042117377
0,0797148341567362
0,0924995692411731
0,0809153655778231
0,0819764689316212
0,0692484907856818
0,0724793461753314
0,0725063562686125
0,075380790018813
0,0757656672442448
0,0795544678293594
0,076771087017489
0,0768084399154346
0,0789696996820484
0,0732482534430765
0,0934505889214112
0,105382259033499
0,0873581204758886
0,107799383291959
0,0846397726518709
0,0848713487437401
0,0985299460528543
0,0982988681682795
0,0698531016474101
0,07235485148505
0,0652123138855978
0,0768199052544047
0,0713833454177837
0,0743972339824235
0,0936144465309412
0,105167246507048
0,0749839184502245
0,0747462242674845
0,0726531215892567
0,0639533365869407
0,0990842121202257
0,106718748578022
0,0831822553076717
0,0874912485208646
0,0732801911917037
0,0638649281496315
0,107289033767882
0,0980454210266487
0,0773059106426327
0,0786293544481619
0,0736028567989548
0,0667526758509669
0,08424109231994
0,103970556502614
0,0838574246795733
0,0712715367985093
0,0614555315303298
0,102558194073864
0,112744185302824
0,0903874393477621
0,0785100373845046
0,0732404309623342
0,08254057273285
0,110518286179097
0,0801178895077058
0,0754345347992509
0,10397270433544
0,086884494912453
0,0725626613673572
0,0702692417205031
0,0760019240750361
0,0935211237170563
0,0772337085582705
0,0573769140516305
0,115493765545395
0,105595341671241
0,104359453961001
0,110654461842473
0,0922921168208028
0,082859027421876
0,0824938116198567
0,0763075460397093
0,0747800311250766
0,0750535152156534
0,0624852120998743
0,0962484467192401
0,0990097725696933
0,076672469419948
0,0796392609180138
0,112280272547666
0,0863623837335913
0,0835351728514842
0,118959566232786
0,0921172652849666
0,0735933914972703
0,103999502445857
0,0842709523989586
0,0690136195285596
0,0890422565238078
0,0924751830036752
0,077681302830592
0,0761413016791601
0,0743925128940933
0,0801458527223135
0,0931335892708274
0,0848372197916672
0,083550113689908
0,0677815506400634
0,0706990055042545
0,0956604405475841
0,127544103048293
0,106548954013856
0,0867854955283182
0,0663943716776527
0,0564132078237319
0,103065208144211
0,0987444454688748
0,0799974561962284
0,0740331003736937
0,0770799525228801
0,0754468397696363
0,0705134705411257
0,0814115148409672
0,0716104075906938
0,0744348302381901
0,106188490109845
0,0977195635269907
0,0828292970737003
0,0729507819788444
0,0797874570893499
0,072208723818441
0,128629451404707
0,101906666984778
0,0885908173809688
0,0740119095159899
0,0766456452315665
0,0978936652752185
0,0856257984530247
0,070317344966369
0,0726476447884335
0,0722778368607863
0,0728903093424123
0,0668216897477687
0,0759452172436828
0,0788158015065534
0,077727190448546
0,0758471274815039
0,0760859580314937
0,0796228049374109
0,0890866492096064
0,0735960207063853
0,0750678880165542
0,0720079671545811
0,0774832290518347
0,092871383556926
0,0853352761198132
0,0793664433478041
0,076359766648024
0,0743433852621773
0,0718089006068412
0,0778440733415234
0,0725423208554935
0,0829184026773968
0,0708926445184724
0,0811713340027633
0,101079108526903
0,0819449719021529
0,0807904723950687
0,0720867815701407
0,0913381596711011
0,0845831718508668
0,0783681801150375
0,0714073190758204
0,0806192386315244
0,0688011865495366
0,0946115313037526
0,104989339165369
0,0947911362359376
0,0831060871152933
0,0976790991146045
0,0769990528435098
0,0863493507428356
0,0633307468435625
0,0982142425489539
0,140756955455273
0,0966074426655647
0,0849047849812543
0,13570937853937
0,0995216539026253
0,104847865869819
0,0738078481955279
0,0682511135423255
0,14316629818426
0,142008833991535
0,0856428332848153
0,0902629380384036
0,0931125155848239
0,0864549717594357
0,0875989685921988
0,0935730022994037
0,105955825924006
0,119329135947167
0,159046121224682
0,116406047447573
0,0841757003388252
0,11883967080431
0,107147134693552
0,098426146575721
0,0857004182126683
0,0936636520312433
0,0871381627667774
0,110422080748894
0,0977853114026425
0,111932384307244
0,0845053471683906
0,102779016475775
0,109200023468232
0,108615569556337
0,0794334072287594
0,106598582470843
0,0984567516744908
0,0973270161167628
0,0879696629596984
0,0998993836296097
0,10326591345143
0,0854679255080859
0,0994836977425375
0,15785353590997
0,108271352596388
0,116697393516918
0,124319457431536
0,10984568387105
0,0919137357049385
0,107340923515381
0,0988415214439795
0,113237870236881
0,0967092306515084
0,109058380106929
0,134603742804673
0,123654366384315
0,106562398982949
0,118882899191199
0,113103883374063
0,114642556035922
0,115633978010215
0,12311672577033
0,118373201459234
0,121253264210993
0,112890837261147
0,151306893490111
0,141399782544849
0,132419543621333
0,158112435410007
0,153740688959698
0,142947499431044
0,132974791797909
0,139628869273654
0,142741175758726
0,136985712559044
0,147901645401806
0,142458857210001
0,165234063102982
0,175898321621764
0,163193865788116
0,155872743291658
0,17746725876947
0,213592678991177
0,212346277867217
0,197671604732977
0,177723225626644
0,164511944315711
0,226400372105438
0,196646429891413
0,228350388184839
0,206900889921378
0,207983388383753
0,190356659111544
0,204446022861604
0,202021827083216
0,21243370820111
0,217450126620274
0,22870106649916
0,219942662770528
0,233114394435614
0,238017240434615
0,230106599707017
0,24336186971107
0,286905883795707
0,256980352241792
0,256216427730644
0,251594327817323
0,261019004331205
0,292640226936874
0,307802396004049
0,311630835135706
0,294859409684696
0,324178531543104
0,32640769881288
0,317525843114533
0,306055933047649
0,28967324341745
0,316886993530606
0,313344278447059
0,326258074912788
0,318008430082466
0,326971417962253
0,343124892826713
0,338816109801251
0,333401850545049
0,336477620054313
0,351338932803367
0,386450391120505
0,360020705881854
0,365293916255011
0,357316566594522
0,400901478442807
0,434671907020145
0,442938173067991
0,372200714688513
0,39914037069067
0,375588825457056
0,395102985552675
0,393139693536151
0,415066744517183
0,402512801472585
0,437019466255284
0,452726129111264
0,441743529042598
0,444741606183081
0,449568245730104
0,44141216199945
0,460218668722463
0,448429156105423
0,482645806039381
0,470130356430725
0,472538089312499
0,435710952050952
0,510047423805522
0,471055438031111
0,510473594524648
0,489057543643933
0,486639252837388
0,469851162552353
0,488122752982176
0,492202188639622
0,523994751290967
0,51131570408545
0,533711988765708
0,513314729488438
0,533819575912089
0,53968720353181
0,547626832545384
0,55369781583151
0,557098481976713
0,541692926123591
0,553342941836456
0,544677042457668
0,564407730024214
0,540407813730089
0,627889114310635
0,583010460342728
0,610447974220631
0,576761196879689
0,56818982060021
0,588153352866655
0,615150315119745
0,58091231401855
0,598862257497254
0,590210078643706
0,643243462383529
0,610450588678484
0,634230865764028
0,623684826429136
0,657296570249369
0,614706834035778
0,649310631194409
0,622977523728339
0,674888427711799
0,645690423693097
0,679597100750733
0,634839218603363
0,754044375078743
0,684188129626848
0,756003165998456
0,69938137056462
0,708253836600704
0,680674739394576
0,708681818216671
0,682753444081093
0,748615547269538
0,703425551538263
0,726802670867365
0,714990532788194
0,729909228871083
0,729029541872364
0,757801007778833
0,709590706818685
0,766877901569119
0,744041665552542
0,788991509569177
0,744221318153786
0,764577882615578
0,756564718734097
0,798532888911751
0,74271971690251
0,803621784449052
0,780100657692741
0,842923370836386
0,777638755224592
0,845983357877352
0,796386023890447
0,81087896600165
0,809632201094776
0,845258939454469
0,826577172235982
0,849663589925956
0,838569520027587
0,895308067630941
0,815342934056052
0,91624573464046
0,812421418169243
0,979623908281426
0,852751627412631
0,87081502938689
0,877330502083549
0,875857482292231
0,865688760551389
0,927899602811108
0,849473233549368
0,887484115129658
0,916218058206123
0,987693879294066
0,904027115796461
0,935995931075307
0,917535439514056
1,01666566779826
0,88157972259295
0,99193542946369
0,921773091199571
0,965713909141837
1,00728053252793
1,04454336969895
0,927134718564615
1,06349080132338
0,921134017076279
1,0468043404564
0,974213609579048
0,986453439892536
0,973867315778482
1,09105550369286
0,927757986751862
1,05087445294676
1,04173888254988
1,07535815899354
1,01339818195931
1,09373416285652
1,00268357571118
1,08147345344625
1,00302624286475
1,09739120685043
1,0504786104276
1,1536373552651
0,996464888818992
1,12501468429814
1,03402845242055
1,17441405270797
1,05811650322156
1,23898349094823
1,05058093314486
1,14858856597735
1,0805690393695
1,18175107356023
1,19339141596732
1,26047819148538
1,10147026299424
1,09354842774998
1,0659286685686
1,24096539777308
1,08249715070633
1,33210331449247
1,14728491532582
1,23034307303544
1,13552420026491
1,294214777851
1,06827977411802
1,19034565189476
1,16773368520903
1,22738126909261
1,1855455095856
1,32654021546352
1,10186053400865
1,33912180375861
1,21447597380836
1,47961918953999
1,27478364416475
1,30284602745281
1,11224716268742
1,29217773569171
1,0889963204237
1,42777120174509
1,21098345195242
1,52478533174512
1,28491220216933
1,30959590029584
1,22472864111815
1,33498288750561
1,29811558922355
1,43019376847099
1,22956941811611
1,32137938594052
1,24637543497801
1,39417416418099
1,25361527809485
1,29268975474334
1,31742811351034
1,79404654538759
1,32469516820582
1,4746159470104
1,1805112431572
1,53019398549101
1,21774270621509
1,44661607728998
1,30174582317868
1,23067588785027
1,17968350689873
1,48090832271825
1,16497977528151
1,65135301980988
1,36441212797946
1,48318976604212
1,41044790141586
1,56103684117835
1,39358670190971
1,50410274481937
1,62333374743428
1,5652715566393
1,40621588877288
1,4850507772484
1,29805004430945
1,64500723989731
1,49560772736017
1,58685735247635
1,41699984559575
1,48449833770885
1,26114738004888
1,64954969698417
1,44915523873611
1,47361990856885
1,22785425363051
1,63496579639405
1,49131644979423
1,5357492005417
1,33775919868362
1,78361689491786
1,42252087370939
1,86015819233715
1,45331205712833
1,50478331461449
1,3451263020962
1,77006483500755
1,27299519315155
1,55188984901462
1,45441869732392
1,51763315724031
1,70628597739185
1,71966780248651
1,59530254291165
1,77849822776951
1,5026446917125
1,68749830699063
1,46244065176943
1,87580983514129
1,56352817361158
1,82636097944414
1,53325928195889
5
1,53479308108014
1,93493638259519
1,43794957455294
1,79286871936121
1,42312567980423
1,67092600040287
1,42967637947059
1,87014302046879
1,50574850997003
1,92802327228671
1,65491935038371
1,76248966877353
1,68148322975456
1,93816652400837
1,51416038777571
1,93949977769105
1,57772479600346
1,89887443269336
1,34800564185511
1,54793028084407
1,51728226000649
1,84162475119784
1,73058091815048
1,85444623899219
1,5144266478653
1,79509813103738
1,4793921162131
1,62343633531255
1,49668875996799
1,76748841590653
1,45252412208606
2,29939502005096
1,55386268949325
1,68885801073673
1,55135575807772
2,10854513106188
1,77924800391894
1,89498011740545
1,6566497028376
2,31048124032587
1,57311832931845
2,30431621335838
1,66721847538052
1,89786170072403
1,70262963804229
1,77766001624792
1,51112470141064
1,63838957034357
1,70376533098001
1,68362143516379
1,59011889135895
1,64882028807084
1,60553189620767
1,58085446401557
1,90265112870203
1,90672439824554
1,44298007479734
1,82611756662511
1,62736717052023
2,04252523138408
1,68840063575368
1,6134113076401
1,64053376090395
2,394313691631
1,58439305970752
1,95993657412544
1,73496477046377
1,5621756016263
1,60701551531319
1,79468335535232
1,56843019374943
1,6452138145061
1,60044370017707
1,60937842382429
1,65506869662595
1,83976035771807
1,46582938507151
1,8277695042455
1,55347654209394
1,58502573241991
1,61210915743228
2,21119043308557
1,65062033622079
1,75448966077209
1,56202112639034
1,99143012372045
1,68154888505771
2,03323665740409
1,55312936095893
1,74581810772655
1,57932660911509
1,71729477568671
1,41769355430443
1,80839402639057
1,56891524783535
1,89384007664541
1,57879610401174
1,68840040743174
1,6730718270884
1,86073964100592
1,57259530452378
1,66453429050562
1,76720696253267
1,78705689098613
1,51605670199128
1,70781011534253
1,61916871391325
1,65369886062404
1,66141567386354
2,01837264757983
1,51222393919326
1,79075436648642
1,54083404172363
1,62575607848276
1,52952970609632
1,94764896631925
1,54384902742297
1,90583104723676
1,60014066710805
1,65471245158533
1,57130188311572
1,64043526303538
1,53641178869022
1,71156015628475
1,45750430520525
2,06603508794712
1,68631254909061
1,99877394934785
1,61963268319426
1,92121005067138
1,58520588851879
1,57441334996695
1,69912222565101
1,81061568323942
1,62186392316886
2,01189855905926
1,47736725371883
1,76323275132751
1,66950344072554
1,79165654941237
1,59725155879696
1,65296757702905
1,51060198549297
1,81504944327749
1,4177466295773
1,77642834033391
1,55864374046024
1,74664418191213
1,64168013611086
1,83633518790909
1,58341865541699
1,58084032798503
1,54978670921576
1,69440515828234
1,56840639811489
1,57471647718136
1,67987202812683
1,77850275755606
1,75472336259952
1,81222299822299
1,52987291790568
2,00416592028316
1,58745198257762
1,74002203907074
1,57637075468
1,66582548922163
1,53937301754946
1,9854973371805
1,49186980538426
1,78905164380709
1,61785415784787
1,83652018131871
1,57304369652336
1,6234877618695
1,58054356807929
1,64195779245401
1,58991625717712
1,8414637749849
1,49268573124114
1,8436573541099
1,54221622905913
1,67011229700573
1,47118254290787
1,62477740493806
1,50943668741882
1,60923555239074
1,5219389632626
1,49738531864473
1,46780221464331
1,69765181477119
1,54792654292429
1,65413808507808
1,60291160584682
1,61211497627886
1,68295535842894
1,62122137258686
1,44416019327223
1,47197909569587
1,52964661259403
1,69869880400108
1,36619163372189
1,48692921413628
1,43047335645247
1,63740111431951
1,50489048418084
1,47641536768329
1,4389888117372
1,4850763507413
1,39529265304918
1,47333006905209
1,44502791479342
1,49308208613222
1,46374688211294
1,53675794950164
1,36982184589682
1,55766767682436
1,41052536735374
1,47654655480201
1,4954246014777
1,53820141502637
1,33490952619912
1,3897839831271
1,30937113070791
1,41662410917666
1,35642760273297
1,44068346572809
1,35890820663423
1,41609494276337
1,29682970861111
1,42135712011425
1,34107860599476
1,41663672573671
1,32185957052859
1,37967486017361
1,30065772904415
1,41480489035559
1,31739210990971
1,34799809715835
1,23439363998155
1,38556030365509
1,25121748783862
1,25088278008408
1,34080733415362
1,28605780726932
1,19728169045241
1,30306288364138
1,29336901278813
1,28189778306662
1,24278914122475
1,31530451713333
1,24117564703728
1,32534115880542
1,17806720434029
1,25500130052877
1,19095998417568
1,25553469875052
1,20661553549953
1,19108394836999
1,18695317969316
1,19549292915601
1,1584552418479
1,19394834448914
1,13035593596189
1,21272617458866
1,14245792719679
1,17918919934898
1,11139549450622
1,13110930109064
1,14234772603248
1,20122290175896
1,10544615498937
1,08982332960364
1,14729146684129
1,11988118838979
1,06015306386932
1,09497562008283
1,03887010341937
1,08094113390698
1,06677400430245
1,09703418257249
1,06782433646303
1,0983450171857
1,00683096530752
1,05982050878103
1,00432284452346
1,08784777291194
1,00649691193755
1,01515400704351
1,03041550055527
1,00629534750396
0,965191564966326
1,00376277240387
1,00024907057287
0,998372561426585
0,970812973915589
0,983247485537492
0,984879769930351
0,986539741302222
0,958347928598875
0,966212060655901
0,96489846609147
0,94144508568112
0,918157923306557
0,932960284789609
0,926209390668962
0,96216111963803
0,906060325127813
0,912073845363007
0,884085503913961
0,923113566700608
0,875082211055953
0,886483377671383
0,872764814399142
0,871436679915094
0,864945084468782
0,882906305153269
0,824208730996995
0,867304078921773
0,848591092641535
0,875844182663367
0,85920923949349
0,849362814424651
0,806494031420399
0,826015983976953
0,793206494931869
0,817325796972434
0,783183825096837
0,814621593195354
0,785744307024162
0,817041516957147
0,800715224626237
0,806985441717271
0,789862834656672
0,79119441657923
0,768838500386822
0,791654266216587
0,738725836272468
0,773579784786463
0,750442414047124
0,750000397893627
0,746234355461555
0,744754772322377
0,722451664741286
0,727182845775716
0,715869952291721
0,740492854966357
0,712663893062256
0,742699044306592
0,710356047284108
0,705840214807133
0,690124353113616
0,699085170858386
0,680162194260907
0,687259265603636
0,664049525858429
0,690890112250947
0,683531260428701
0,676866959008589
0,653800632838434
0,679525429445155
0,660150412256124
0,665409851861439
0,639422842783784
0,658527292110362
0,643848818787352
0,642788353854448
0,628218830552473
0,629542683179533
0,628250735673949
0,631407751809077
0,615989716403542
0,615917724663248
0,605474879348591
0,613329578882244
0,601691918172916
0,598936077863338
0,584543768196461
0,603455186895926
0,592716101125145
0,586771148342754
0,575710744459171
0,57971785039364
0,581496240850092
0,580599259148842
0,57299132447652
0,565485914832872
0,556629452428016
0,566182368414685
0,553997633103609
0,556943290366506
0,550608039643893
0,554955585702652
0,544226305685443
0,549217581715875
0,530535907050867
0,529444915930142
0,526342792200106
0,534535599881946
0,520040465748771
0,525033555537582
0,512138447493663
0,518288159312707
0,497015945061713
0,515986168958968
0,497880806409888
0,508476506201013
0,486404870130162
0,514559444290376
0,488773722358924
0,495835054174573
0,48853282162071
0,494577418799244
0,479760435110925
0,482798695283806
0,475707654588638
0,471480855008807
0,470780840295717
0,476421744188004
0,453294850385735
0,467345616077942
0,459745617580046
0,461959889917394
0,458638063863324
0,450976139700302
0,454138807740512
0,459383125882874
0,450256654629282
0,450432946991945
0,449090674637538
0,449686319061675
0,443995494463673
0,453607711360241
0,435795874122425
0,44691428041322
0,433203753216702
0,446711654046699
0,4287914821196
0,433243796685436
0,428030815520665
0,433524252578164
0,424031750002636
0,431917145901241
0,4282979435247
0,432353086500854
0,422432822080631
0,423216651034521
0,418006157069523
0,431829711523754
0,426435882103881
0,419161835054647
0,421140296368945
0,433362264604928
0,419212663992231
0,428067340810197
0,409296426422634
0,411092170174771
0,412858545205556
0,418494169217104
0,413283781257256
0,412423694272978
0,406102699189929
0,416100041308651
0,407121502837622
0,408245918372117
0,403595764696874
0,416935424583109
0,398868278904912
0,411771091861064
0,403765678957697
0,417513879512489
0,404557489485401
0,413500409511459
0,403012946527552
0,411317919654741
0,407090980489531
0,417873794455037
0,403662454340095
0,416412547008191
0,412402356720744
0,41615808259874
0,419934605032528
0,414818824621035
0,405567447448157
0,417777830077164
0,412839354586358
0,414268249547634
0,413086717159763
0,415396182027501
0,404027191227264
0,406231430360122
0,400466820920059
0,40680851841082
0,402409518218279
0,410096665990074
0,402690275424533
0,399489340246147
0,393114298147093
0,399325818555266
0,386731729292403
0,399390247081332
0,389516222842336
0,389061229899395
0,388464616649588
0,38809808139613
0,377585549352112
0,382871293570248
0,385070119776836
0,386659422656946
0,378354530746234
0,387047498036937
0,382217663786342
0,381939309299285
0,376936930178766
0,380281719088626
0,37842799167622
0,38246862857585
0,37608835460471
0,377258681137072
0,375604172642881
0,375563628798475
0,371856770223384
0,380805577153882
0,368793488057478
0,376366628584409
0,371091483881987
0,376720600374367
0,372694901703156
0,368264453286956
0,368223723553448
0,371205043510857
0,366791578299702
0,369548381539171
0,361465017153568
0,370738425841996
0,371048007572782
0,367210276362797
0,364093827934088
0,366308929451171
0,360889146269275
0,365167587906544
0,357876374450038
0,358381136972113
0,356081935435844
0,363568352603417
0,357196038259992
0,357866518519788
0,355779434410766
0,354138568369552
0,351337003540851
0,359318721241475
0,34593085762165
0,353195756042057
0,341783530426191
0,349058937619423
0,344742584411008
0,334962941777481
0,336264597623201
0,338077502826289
0,33261644371173
0,331986702091043
0,330636351195752
0,328824960003914
0,320540850953202
0,323483492613195
0,320203170687826
0,319243302574159
0,315230940903674
0,316315749664001
0,31155687566662
0,313579762464868
0,30711130279629
0,305306207646036
0,30005235537602
0,303004813973123
0,293228627521451
0,306411404059125
0,295774092923951
0,287638362812955
0,289771633098832
0,29036392595727
0,281210873765977
0,285425402883948
0,275617602173694
0,280202031276676
0,281815815311568
0,282237830861872
0,28014061093233
0,277584707353885
0,278444483460745
0,275075171151036
0,272287030836676
0,278084989837269
0,267307075553366
0,268797101165358
0,263461163729913
0,268337579865631
0,259299013371491
0,264539832371488
0,262956830912161
0,256666543041833
0,256897764278116
0,259025328025531
0,253854328118741
0,25979479884852
0,24917468227236
0,250131387866084
0,25146079995147
0,247621673925177
0,245287150081331
0,24726132512616
0,244535280640774
0,244450309677429
0,2410531108758
0,243472705142402
0,238432638346292
0,238395072207551
0,232796654917406
0,237136653294612
0,238129213432245
0,233656001984987
0,229838618242984
0,235436733510905
0,231352912791331
0,232474592054813
0,231140499477126
0,228174500252216
0,227488127754199
0,22587870846767
0,223798309173901
0,225343973977903
0,220732825616825
0,219892038025183
0,219154142870127
0,218419849406942
0,212680597053188
0,217682048248488
0,218726552465268
0,215971574605055
0,212167238136689
0,218011757951987
0,215294540647102
0,211616229431419
0,210446092828451
0,212373313678497
0,205147724905706
0,20962303895224
0,208207833213748
0,206830332299813
0,210719453071289
0,209208857387963
0,206134564019531
0,208439449048692
0,202155253108916
0,201271877513657
0,197976336095841
0,19791890422074
0,20097815810771
0,203929409825483
0,198359052372939
0,19880405755109
0,202449804038895
0,197494807064076
0,194350627036406
0,195804007700059
0,190909130751197
0,189451434999895
0,190943690294011
0,193521466872098
0,191896555753042
0,188887515630998
0,187754488859232
0,189024745305794
0,190447139265029
0,190836369035252
0,18773779497036
0,187836132517828
0,185151610324409
0,186643329874877
0,181853215773012
0,186808911535799
0,186243870601269
0,18371995355827
0,183511787576059
0,18666404996562
0,184310157398055
0,182726930045379
0,183909858065743
0,183941496524554
0,180522967278792
0,180849682858745
0,179977557182391
0,176849106600488
0,173155082926023
0,177178131215328
0,175686528173841
0,17766056056975
0,178042427558244
0,177030442475284
0,17855455479255
0,178052827035248
0,172516017564065
0,177075942671582
0,176928795021761
0,174834143293245
0,170740119495669
0,17304351761321
0,172728404186228
0,171666988996647
0,172808245634811
0,176117950791369
0,173408162813787
0,172946395267307
0,170159647293673
0,17316292624657
0,16880219377028
0,171686504475643
0,170869033296531
0,164148311421231
0,168198890625182
0,166816314466999
0,16714989069262
0,163648566480812
0,164454949149157
0,168444288476154
0,164643832185848
0,162493170095713
0,166542596640111
0,163556807153098
0,161434679613377
0,15936852226594
0,164029652624433
0,162501151998019
0,160820394077351
0,161744294562696
0,161860386084545
0,162910837562029
0,158347368004823
0,157156908223842
0,158275463288604
0,158333724939118
0,15978187582886
0,156835526561461
0,154272387084719
0,157316807518507
0,155107073682161
0,154575357705122
0,155726581994518
0,15367820318594
0,152554410198133
0,153568934570469
0,154524104782538
0,1525841509962
0,148302895105232
0,152749742001702
0,149368246432651
0,148469116702866
0,149444087914366
0,151029077141654
0,147553213236803
0,149705957773233
0,149914247929574
0,147302245983788
0,14651909723603
0,145657533855387
0,142629099342672
0,143734274601294
0,140710338500218
0,142458507968947
0,142637135031865
0,144632693370748
0,140761085847195
0,139161063374704
0,146875480991218
0,142170412389259
0,1437946145338
0,140875145039002
0,140308630913309
0,142292347487951
0,140655421869961
0,14078976662836
0,141293985288794
0,135214895762329
0,136167507956194
0,137977014353649
0,137848871381642
0,136711470406228
0,135075282228899
0,134600197246377
0,133355433154284
0,131654013513186
0,129411759615668
0,129336465036344
0,132336975883351
0,131378898412906
0,130043926514119
0,130993332907541
0,132028330733121
0,128706166244829
0,131534183955763
0,129364128930781
0,126769240094336
0,128424809164383
0,125759589936794
0,12757243216793
0,128092500021587
0,1269877167403
0,128437942567285
0,126770960662398
0,125487308185883
0,122638020672739
0,122614780289532
0,122852796740232
0,120795276138583
0,122675853012603
0,121524765730328
0,123308710710638
0,12480103375969
0,123061560928119
0,120600645072876
0,118595801977698
0,121113252457727
0,122204269098471
0,119920351741762
0,119444796991712
0,120904827633204
0,119116873176536
0,117659309253526
0,118233779534628
0,117738417212584
0,11780906975042
0,118225644639958
0,118090677535396
0,118159293199519
0,119931462309711
0,118080693149105
0,113862596246302
0,118277898085953
0,116126537103145
0,115457440073261
0,113988358178039
0,111246343183394
0,113957689249614
0,118041055506176
0,115588709944409
0,11632846434575
0,114034237661691
0,116043837557929
0,115119221266274
0,113807226883759
0,112514712254271
0,116105464437971
0,113556309578448
0,114490420515273
0,113062746579416
0,112365230699145
0,114382198449107
0,114685376090063
0,112674895578968
0,113904507947771
0,112068107017046
0,113376372181712
0,10963933178755
0,111069199488542
0,110847449517671
0,109446425632202
0,108436614681257
0,107681022006006
0,105307757559484
0,10803143006337
0,109317600410328
0,112721420904405
0,111811919493364
0,109734288890624
0,106991043735567
0,110052294892065
0,111463115039564
0,109511130753553
0,108812580105488
0,10834771553579
0,108200030021992
0,109205770618321
0,107830710049069
0,108387972872304
0,10841644082614
0,112351742292684
0,110044265087136
0,107631188504327
0,10745867552622
0,107668707373752
0,105076446267666
0,10968462145642
0,10509252899516
0,103189141216781
0,107598661412987
0,109626546172208
0,107906900878235
0,109398827340947
0,107550335266925
0,108232241442242
0,108714758961848
0,108151931741431
0,106775435725804
0,108107356808429
0,103452801739931
0,107358556246075
0,109412349496254
0,109184745553331
0,106895681473502
0,10755058741015
0,108713675560921
0,105562727206193
0,106335669187068
0,107077050973759
0,103857194394096
0,1064496277119
0,104629922527024
0,108382792184805
0,10716132662615
0,107090831718943
0,105518274243376
0,103113316457877
0,106572373233207
0,10883372189268
0,106345087361958
0,108318645706782
0,106091740389827
0,104447649806811
0,103869659772207
0,105082405930182
0,104703771311631
0,10197095825764
0,10075385158037
0,107830815030759
0,10584123179553
0,104237132734012
0,103498603661306
0,104827214202583
0,104375592304888
0,102821343541318
0,102540996755425
0,10825981767397
0,103672323049811
0,103918996257678
0,105774705490799
0,105105818540087
0,104169425565679
0,10798448537342
0,106707008861813
0,104243966960159
0,101577746573107
0,104124556917926
0,103758329047384
0,104927863012675
0,102110013378007
0,102454680071539
0,10204269973562
0,108067802085447
0,105354045446099
0,104846462431086
0,103843818454876
0,10559988183922
0,103870404301532
0,104686397657966
0,103632572565296
0,103605623081337
0,103435397885946
0,106173509374579
0,104839544287899
0,103105655942936
0,102570600291545
0,104256791032307
0,101776098126321
0,102384591137823
0,100106384865558
0,100662857401111
0,102198652426283
0,104764620269179
0,102898002086542
0,103678152783813
0,103091733217908
0,10226231513191
0,102855085103157
0,102746411640909
0,101226662760053
0,104260900678132
0,0984846377128857
0,101661719899973
0,101400120066822
0,0998812167125985
0,0988925532863728
0,103514842643161
0,101608444464908
0,10041153253731
0,0997904502968971
0,101901929784174
0,0988823860518436
0,100591057607434
0,0987517849525367
0,101128793271889
0,0992798388911117
0,0989000854251003
0,0990297954999518
0,103456367986865
0,100532416511878
0,100000120924249
0,100601922123827
0,101406501791539
0,0968467114999787
0,0990897033559953
0,100966950686626
0,101858613989734
0,0995281190854815
0,102177791376097
0,099346090913831
0,102408304400784
0,103003590463301
0,101137369190007
0,0974442468909886
0,100325495568439
0,101361983081141
0,10310750414231
0,099641850138605
0,101347403724662
0,0992557239468098
0,0999624332040522
0,0978618591697787
0,100617171304764
0,100526056753142
0,104579907232115
0,0999804297715076
0,0997060316613798
0,0992112721981674
0,102189427724761
0,0985026645826104
0,099321694856061
0,100721606148333
0,101140561740069
0,0985977374397881
0,0996457291663302
0,0962350728340527
0,099530760685476
0,101285175293556
0,100969294516307
0,0979993779763294
0,0998049657787924
0,0965758359688065
0,0994659213994048
0,10076646321489
0,104371440628556
0,0995683804945393
0,10049104002331
0,101478833047836
0,102293735199432
0,0999085784793825
0,102275941086458
0,0990119922526649
0,103105720602009
0,0997545159887276
0,101761131141117
0,10237181266109
0,101819786992284
0,0982770993527103
0,0991983134490687
0,0970438957285673
0,102422557318424
0,10351064475154
0,103886966651257
0,0989235965045344
0,0993160453837278
0,098999760408559
0,103762932613154
0,101154654695453
0,1021023146681
0,0993770419885872
0,103253656716646
0,100235850382328
0,102875009368148
0,10177312522739
0,105385014915685
0,103041663809652
0,103408974534641
0,103336951435254
0,109260313977543
0,105209569590558
0,108281895544214
0,107423312494322
0,113414971410023
0,108103698194452
0,111384383244929
0,108765368688984
0,112986566613418
0,112045148413244
0,118058439357232
0,114826460453183
0,115133800924962
0,106750446050024
0,111800172950054
0,106862756963476
0,11429418026256
0,10722502830774
0,113687425208928
0,111822364912238
0,111542583376323
0,114661107247307
0,120375455247565
0,112947178618678
0,122232813393064
0,115378583472484
0,119430442640883
0,107915087291793
0,11091173088444
0,111668464419383
0,118124348240723
0,110199283389488
0,114919389371134
0,108167241356386
0,112987094408782
0,108679762993991
0,115704077483292
0,10844667707278
0,117306591721783
0,109858351488863
0,118305146433983
0,114061801879804
0,116563300787975
0,108440970912504
0,111666261780126
0,108421645308598
0,113870040712081
0,109711342653837
0,117239316577661
0,113851240996492
0,117985740645679
0,108976316234529
0,110038749683867
0,116225109180612
0,12204951539397
0,120183054804872
0,114473270696463
0,114871693282056
0,1134668912551
0,126510976249807
0,113095653853616
0,121487879480597
0,111237939351644
0,130635743724765
0,108007123278564
0,124925960979744
0,107244711875974
0,124375527440392
0,104128042340253
0,124633507532775
0,111660534283998
0,124399128361052
0,114897572401821
0,123903042783868
0,117039200871658
0,117623194139937
0,120080799724841
0,112503794186291
0,119914025907956
0,114176953964258
0,117078612737918
0,113083648076325
0,11535617907802
0,114014001909021
0,116963716073417
0,118606927675798
0,115324332762966
0,115897245755169
0,115326302499558
0,116922551374008
0,115238585332249
0,11298657242522
0,116233874690826
0,115734321505171
0,11667326416862
0,116896498554361
0,116049420865188
0,115103796206055
0,116420337605238
0,116500852281768
0,116761179445913
0,114032899702169
0,116465250385293
0,114912831401872
0,117891927595104
0,115676569602654
0,119410242581791
0,119209344501876
0,119996622726964
0,119000575775622
0,118042937963594
0,118285470520053
0,118349648020899
0,121088255179506
0,120589857153616
0,118162716361761
0,119024331097726
0,118062185266351
0,120088961573705
0,121691497633845
0,122278403000953
0,120308832072088
0,121380845577777
0,12225301163557
0,123459694381205
0,121522119520986
0,123742378134136
0,121098912757929
0,12205584374965
0,122728539264022
0,123020027393126
0,123640170734944
0,124240754776032
0,121781504175195
0,124131137184687
0,121118278176824
0,128011085438368
0,123619343612584
0,122811592203745
0,123508426349984
0,124574354019375
0,124057597313195
0,127249107492191
0,127463693791876
0,128809075185018
0,125049403046609
0,128110562891105
0,127397557888284
0,127541520026121
0,126454064944843
0,12990079845809
0,128772714261698
0,129591210094136
0,128167755449455
0,12792325554015
0,128065524334329
0,1297097199932
0,129192695841513
0,12896945464879
0,128020519185907
0,131010788119612
0,127640932769822
0,129743239848691
0,130296903623409
0,132748445657112
0,129666314409221
0,131632841358518
0,131494313626512
0,132136046310352
0,131031837010109
0,133544126176029
0,132868966405774
0,133170391662589
0,132066327849073
0,137303609816834
0,134487805663417
0,136199348918187
0,132657213087062
0,136666235860692
0,13789637610544
0,135659747271459
0,133654281618809
0,137686489574901
0,135472389544112
0,135600700082354
0,135931850265841
0,138754192847604
0,138325014873119
0,136393965538855
0,135809285992865
0,140896235646628
0,136708798552199
0,139906224416115
0,140639597591567
0,141980545288553
0,141131593609847
0,140869943442287
0,138815808628997
0,142635826837549
0,138217603933514
0,140536391466883
0,140097478974876
0,143661056441687
0,139225154806323
0,142221818114255
0,140213954936667
0,141212129425113
0,142524394746091
0,144221848231695
0,141738917852604
0,144128085385651
0,140245016366076
0,141761061489924
0,141325974234936
0,144527541750436
0,141290500335118
0,145323272328483
0,142693630797311
0,1419294877256
0,143446913322654
0,146799257112164
0,145641247121883
0,146515139545337
0,14371623970908
0,145148214421593
0,144154224813613
0,147938663338951
0,149285965410051
0,150185606365719
0,146725383689691
0,147672722373652
0,145895150545872
0,149138212459203
0,147013821150065
0,147527012093046
0,146594978763261
0,150704006555665
0,148078099312531
0,152041913915738
0,148957452066424
0,151404785251882
0,149649018163726
0,1508814963953
0,149532439698193
0,150329329491987
0,147490941147507
0,151829511574152
0,148809921037145
0,151214350294969
0,152020675636856
0,151622652212633
0,151162872323266
0,152631644014151
0,150791167301193
0,149989489647913
0,148357984338747
0,151308416023587
0,150441511194219
0,153500595267467
0,150512277515281
0,152515809138686
0,150484990497406
0,150099644577996
0,150339775443445
0,150901267660105
0,149456240106675
0,152852076069731
0,14985192731008
0,152165491289257
0,149611993667622
0,152332211042575
0,147740574775001
0,149709508208981
0,149505000747077
0,15438006234127
0,152531484458182
0,150939582194045
0,146842935178059
0,151805078372007
0,151610698972029
0,151640659941249
0,1501697308266
0,150416492924476
0,150203084205815
0,153072203642659
0,149130645325569
0,151275771984833
0,149442401439222
0,15086429542932
0,147060438623393
0,151135377184109
0,149651223305301
0,153313843335382
0,150757052905512
0,148792607831486
0,149705545238664
0,150961710867336
0,148318021680625
0,151281022560828
0,149705166737903
0,151006302311592
0,14765157087198
0,149999067745307
0,148046111913528
0,15158369828775
0,14762116243827
0,149562747287967
0,148798282598149
0,150448161928593
0,147013221529759
0,150160968098839
0,150407608158752
0,147087413665747
0,147331016521664
0,150136639376337
0,145424208605926
0,147486160009335
0,147164268547774
0,151140281779462
0,144496332758334
0,147791796832372
0,147488872753537
0,147967680869411
0,142881970784229
0,147301179705671
0,144711658906939
0,146560720156573
0,146134529334123
0,146438654336659
0,144105318050893
0,149191296295578
0,143755418876989
0,14381237357574
0,143653423980652
0,145309447112501
0,143461607504925
0,145740343763518
0,143507382768393
0,147692706563051
0,140645406657101
0,142996394443428
0,142380569029805
0,143521831994417
0,140462071640838
0,143844623788741
0,138770842582586
0,140557585277969
0,141426507459841
0,142340280307871
0,138854772881278
0,141035421438856
0,136400539683394
0,140450632899377
0,140839364258978
0,14332587034857
0,140590246171173
0,140488155767705
0,135908261204612
0,139516749554072
0,136453618414102
0,141027400543164
0,136327263198865
0,138339606833957
0,138802885826051
0,1396770301468
0,136846436541261
0,137533247959278
0,13493440508099
0,136282844207982
0,133722185362992
0,135458122105869
0,134479504418706
0,136180933134176
0,134182785235522
0,135506180219828
0,131246227335245
0,132972292436499
0,130588012362308
0,135365822107968
0,130842046274628
0,135308750605725
0,129536148338926
0,13235817246172
0,128560281169435
0,13002915655675
0,127232758696281
0,129674172290978
0,130046915106964
0,132488833466276
0,13208827131188
0,130924288444621
0,12877420703015
0,129107026626663
0,125716582511507
0,127517041949134
0,125429513651937
0,123991536063393
0,124755600780383
0,127474788805485
0,12342638625108
0,125328363814931
0,123738948650956
0,124516557145918
0,124555065943688
0,124236715790534
0,123602431771094
0,124554067430313
0,1212408863123
0,121639946528566
0,118728497218958
0,123634485731627
0,122167153983216
0,122080579563715
0,11969404789962
0,118980847229417
0,123240684440371
0,128996242969045
0,119553997738601
0,121724435198096
0,118538234148182
0,121351116719739
0,115516685585183
0,118710574353594
0,116631933808011
0,121305375804313
0,117043657509866
0,118528728258023
0,11839175106677
0,120307498477405
0,117546451349778
0,118793177763408
0,11417890292676
0,117129387802306
0,116902210788495
0,116244267866493
0,113511816037205
0,115230534243763
0,112580174364868
0,114386283080289
0,114672337297906
0,114652155452104
0,112616359692935
0,119898615324837
0,114426982446564
0,117011511430851
0,111622256563295
0,111646153769292
0,112003445817786
0,113185981501355
0,110704862745702
0,111254263239935
0,107463632105433
0,113097066396088
0,110086640527478
0,111434609718129
0,109397395287907
0,113299498116337
0,106355189703874
0,112443995305337
0,106757463610535
0,110376150459949
0,105569151632497
0,106660458324172
0,103451035036382
0,109031324559094
0,107592997127498
0,111710392800379
0,104420610679066
0,11433891093501
0,121494244257472
0,110510933869954
0,106341867759721
0,105813479380385
0,103875235589867
0,109394906932626
0,103386179209396
0,107547591573338
0,104364888435513
0,106535790503474
0,106364616409405
0,10716124580223
0,102344806226687
0,107739436600733
0,104309661841231
0,106885599854838
0,103781234358429
0,105331395429971
0,10730703721141
0,102866473498695
0,110214567704774
0,117032704086569
0,10749941667482
0,10748668778288
0,103073911588506
0,100846421301684
0,118074440476741
0,109529734392294
0,103393413527476
0,102031897993536
0,102706292808868
0,102955243618838
0,103005459376903
0,101236929095305
0,1037323991025
0,108072764231686
0,102763731557203
0,106164407276894
0,0992134729491679
0,103675962718461
0,100309669387715
0,103175897485129
0,0988341875041451
0,104094622787157
0,0989501964137466
0,102995187447908
0,102460348645944
0,100513630779729
0,10016697813798
0,100366274333816
0,102485580124411
0,107932184989683
0,0992210233940726
0,101441322267966
0,0993692182385697
0,100124142397387
0,103781464182944
0,118278164167365
0,0995553191755217
0,105881957566512
0,0981211669461365
0,103293299423255
0,100258688833245
0,104964142887625
0,0998063933229587
0,103051274407678
0,0971596019047447
0,10393295265893
0,097946995875758
0,101152961258038
0,101535782317498
0,102964743335787
0,096450902807196
0,102428458725067
0,0996546194210563
0,101092088290972
0,101711702088251
0,102826138253141
0,107882008043865
0,123761694210895
0,108973216227052
0,110205037126367
0,105395630788358
0,101892356600871
0,0984083745085174
0,103205145902332
0,0997833451747377
0,104237337584458
0,0979663239516105
0,104656021827623
0,0991257586035115
0,10351294183876
0,100700518932522
0,104699546742047
0,0974782743382511
0,104318282242586
0,0988950985909181
0,104827065718044
0,0973900218924653
0,107658468849982
0,0951308052269015
0,114921558442965
0,102921465499227
0,112076263978857
0,0923288974958056
0,136994027367696
0,117078096242938
0,109439140403512
0,107161128021175
0,100957793079891
0,104616037986444
0,102601270792829
0,100304606808911
0,108842890073471
0,100917794654694
0,105338442219002
0,101688658675403
0,105620330693682
0,105619814211751
0,103674994195325
0,107272629703251
0,13178579351785
0,108990724077929
0,110838694952503
0,102005199405491
0,114377942147205
0,125183018636673
0,108205376763427
0,110806490563124
0,107802523537467
0,106438928464959
0,105652913413929
0,105372066039257
0,108177525109966
0,109419483395817
0,109967889810026
0,1065572376966
0,112466209286541
0,103189036291111
0,11331418099362
0,107970972757755
0,12161152449368
0,119550216705104
0,108340165891872
0,114413626178051
0,11393052098928
0,108413794897735
0,113639485660071
0,110822191437196
0,110086456813203
0,119139505784121
0,1272734557762
0,111240120297497
0,131659163989002
0,119645476983027
0,113283186004934
0,121502419695694
0,121161688928375
0,123549976157464
0,108167813944289
0,124889373209826
0,143470714929153
0,125801044500286
0,140281952851895
0,114676793654691
0,12718141038918
0,114044248311088
0,123998957610582
0,108004957947856
0,140393911594859
0,112954678843127
0,129631369764004
0,11077893313363
0,137455810514748
0,128229470934141
0,128983069610848
0,123843126760747
0,123570207938772
0,121383633515663
0,144154564539056
0,126429918134306
0,123536712208751
0,149189925343095
0,160413734270349
0,153401295595839
0,133131882350825
0,121718615873382
0,172100649617872
0,133321005843202
0,140167950878791
0,125496911731474
0,142961498348719
0,131832070986445
0,139811531496382
0,163062327534572
0,144792763498711
0,134872410328194
0,148718115479597
0,129881190602821
0,161667825054521
0,145411319240016
0,149128896165148
0,137866889937581
0,158117320949052
0,132943407779413
0,203340317591795
0,157713010865724
0,164678816461642
0,174308706711547
0,168051587981875
0,166048725482445
0,164374913250153
0,158283952171842
0,171242335403238
0,180071023972334
0,169884584820927
0,156987372852562
0,182826965538892
0,190779033994438
0,161251736194851
0,181949072226243
0,169042750435507
0,173042842784891
0,212834127280521
0,23481565424665
0,216063602485773
0,188179381933616
0,184723343209179
0,216623506113414
0,190851266577236
0,193067504940192
0,19614891849395
0,19675046829862
0,203509326485879
0,198353166621023
0,218263864155823
0,203805463097341
0,217420774420384
0,212855719989243
0,214637102966407
0,233259854725965
0,271006627472464
0,271631090277968
0,228763693042958
0,28619875792855
0,261232024412592
0,253875938676742
0,24543186619381
0,247449223957001
0,268012023916557
0,264645500122847
0,267568417722102
0,261145613875922
0,306583202946631
0,294872463305435
0,287562724853181
0,311317602088738
0,293481370628927
0,312209507553035
0,275026015951614
0,514412376346481
0,332880393003328
0,348447867440165
0,333679509445135
0,339128619758528
0,421399479711016
0,360652737601008
0,359669286548589
0,365807610861588
0,363357411524963
0,376900902267318
0,39566376650422
0,399267296851258
0,41755192438977
0,41533254539651
0,411285267119365
0,438419819484391
0,526322272349788
0,489066301570867
0,476078827141081
0,450574230120123
0,490139225471576
0,496632164779957
0,475739437551725
0,497470546239425
0,497746977791875
0,493489972453924
0,59157882678542
0,5221538182527
0,548105764020906
0,5270321147807
0,604935435974623
0,525969844856096
0,651477309352162
0,594579874248527
0,600904170978323
0,586050454333956
0,595347594901145
0,614248391482261
0,602154354379419
0,668509977520125
0,670246016603573
0,638483167011831
0,661011094277809
0,657721120700688
0,676615747992548
0,675375246924284
0,690771010696128
0,693037281295189
0,765689909199576
0,700279678630695
1,09021698659988
0,760758067757761
0,719170725557266
0,725328815619681
0,728524158377322
0,786787438556158
0,744910385699274
0,785222597334092
0,783252929327437
0,735254238290806
0,751047641739403
0,75606616635922
0,785059186385992
0,752076611479573
0,781368193351457
0,748357413571514
0,827978895168876
0,756793328850529
0,828394078287125
0,860643948805626
0,772763647276255
0,77328775603597
0,771202400719557
0,761231392148104
0,759599961995326
0,754919386561553
0,740906278769716
0,798874102456924
0,739921345650438
0,75805596607418
0,722711181288298
0,753993038890563
0,771351993453263
0,708171307482436
0,699741926924643
0,683224529703701
0,691813405947239
0,667897267787024
0,678930894030042
0,762876036144344
0,673528846248087
0,656473740876474
0,647856959212759
0,634130380729277
0,62510922426937
0,608388407000252
0,602439078820522
0,606733917106155
0,591123570223624
0,601565918273911
0,572391298191797
0,566331292062876
0,561793944419107
0,562060923592154
0,553058250386924
0,541105663361959
0,539878425905621
0,530335646388014
0,529630856710886
0,512654772422502
0,519399313386991
0,505141581874357
0,511229102935653
0,496382329159714
0,493283102064606
0,492717044067224
0,48761678892537
0,478359183055691
0,482680816595469
0,474932877589334
0,472420739850727
0,465477924342698
0,466606867925812
0,457360549444607
0,458541848470686
0,453378783317028
0,455181409768585
0,444804891128113
0,450369942289177
0,431957215102117
0,444281659766685
0,409320869854624
0,53301958373472
0,463681167884839
0,426091795196941
0,42920675696288
0,417220153159481
0,422194701147182
0,399296245761245
0,459782487770381
0,440733248630098
0,407982846274819
0,409528663402738
0,392112845513321
0,413265059741221
0,412049272525378
0,387725311485201
0,411927404625734
0,371928388735385
0,456249202187276
0,472893147440587
0,43468590723444
0,494420136923323
0,398441079797271
0,378279197801315
0,364360877813023
0,440867676762725
0,360411299541145
0,385154964453485
0,34398618646666
0,423432321160283
0,376476724678004
0,359720619252656
0,365028725757909
0,345754231647894
0,370037355045388
0,389097620413959
0,346180048886343
0,363805992133651
0,402024315622436
0,358158461742965
0,406227596767986
0,419119735432071
0,36711196346848
0,326760508217734
0,336848054189165
0,334649386711232
0,318184993072106
0,416822663939814
0,325601273745684
0,344164711674935
0,321570156726444
0,311891249348253
0,323764026092591
0,33497464128168
0,340258041820483
0,307042442986657
0,381001284214316
0,292076636894947
0,337542850710312
0,32698992069767
0,358844106607261
0,366084737445116
0,323840230700331
0,302618330805083
0,327666571169482
0,360026161776894
0,306596997196904
0,327967907298078
0,294277032291864
0,294501389884236
0,327938440561722
0,292599949887286
0,312646087159261
0,32529767999689
0,301143409239046
0,359965068922225
0,347185355529649
0,362879513848145
0,303322365242959
0,287326144710181
0,291968707574478
0,288677589190306
0,302476599441522
0,275485434352035
0,324779212452121
0,302329819053679
0,265331559414029
0,35178132682785
0,291769697481072
0,287539136943892
0,287292406654408
0,287368444140749
0,298313067592766
0,32028178333352
0,328782187950417
0,310038201905397
0,297965490175426
0,329452005585474
0,283809809460525
0,308507004622379
0,283860123633283
0,302952549117798
0,294628593900572
0,316963016341645
0,299789240195922
0,310229960707074
0,306141076904334
0,310815935264553
0,309930292377454
0,364023620125991
0,295891636948041
0,369256995994032
0,314854901690803
0,398579468223881
0,338171883386647
0,331737584839978
0,335448164054036
0,333037517003811
0,340554596776594
0,339537288579237
0,333519498802669
0,394266349685727
0,333033185421546
0,358138865615978
0,33351115132489
0,364669014270498
0,339856841441234
0,406599710005566
0,361434182351306
0,411929986538855
0,415176011934956
0,376729427976937
0,373313528414438
0,346980521195282
0,370987417646703
0,368321887524331
0,362530272193106
0,366854557881358
0,349800977483654
0,401462462705963
0,362310107200344
0,370442332537937
0,368722513463074
0,367028247410131
0,368458939080873
0,372559115661849
0,369187127139001
0,379055759677946
0,366220705044918
0,383590692431876
0,350364625264113
0,472430542329129
0,381869416014428
0,385074029212632
0,38234424661862
0,389813698103877
0,380974054722793
0,385757921252406
0,39802460945117
0,399330415861583
0,387975509166151
0,39735195785672
0,383790756804121
0,403727900372846
0,391065721884043
0,432587863072695
0,383150976460326
0,414290748329872
0,385400475270839
0,418708430201226
0,454620768984545
0,409539695899004
0,435535630653047
0,403612708317572
0,407884404528725
0,398259248349709
0,401189795271927
0,409238999015647
0,410707411496633
0,40439350600203
0,408416870393689
0,407704162826284
0,399135529294057
0,40600294386315
0,399052330408936
0,438399330605355
0,402608397691069
0,406510098622309
0,400074424415913
0,403161706588038
0,393070258957468
0,427550866981611
0,416956852825977
0,398541500891594
0,411224754437589
0,409638085422065
0,420240610983774
0,412594538925454
0,389766312453355
0,404939274701945
0,396726633258208
0,401883383373617
0,404971260730508
0,406449218869704
0,442837216285116
0,407895739552908
0,411805247727234
0,401424050183398
0,412589627512167
0,406425447516087
0,411863129209773
0,407753090759524
0,423810188166643
0,409726265631109
0,421404956948269
0,420003546990577
0,419755659551209
0,43602376760216
0,430140428167197
0,435954944990432
0,421451067469715
0,42128288230344
0,419447340766122
0,41184787000092
0,428674903397226
0,412991031896779
0,413954886470246
0,4084051734649
0,414353867986464
0,395893364978892
0,439153290458784
0,39608311988463
0,412683361388436
0,402779418959767
0,391107767290621
0,398325833380674
0,387939923308814
0,388114356679411
0,386709484225828
0,393530601885781
0,384494609483759
0,384205159316719
0,380529116679985
0,38221587782284
0,38118522076433
0,386262674599723
0,381232955532041
0,381802699330856
0,381372407517235
0,373889501595062
0,380730066707099
0,37614466690579
0,382818959379491
0,373647898831499
0,397891981131101
0,397858169969971
0,3917008290492
0,389355221666748
0,377227294095991
0,390784010055944
0,371743249491551
0,383147660928431
0,369867203749909
0,379736130508083
0,36653688187798
0,377526376983577
0,371804863725674
0,378938627225159
0,373768553972561
0,377418975794187
0,370721920449361
0,376567472684144
0,366267335087045
0,375218811360757
0,366100282537697
0,371336173406422
0,368886872439394
0,379825441203373
0,372959789839293
0,368639523233124
0,375664658167415
0,367138124187064
0,376030144961411
0,373007522936329
0,375319964906198
0,370864198317685
0,372950473181447
0,36691579218011
0,366411785518196
0,369708462300545
0,366483227936035
0,369596940276929
0,363679538823987
0,36102895215841
0,359838619545253
0,365337697394604
0,35829076884496
0,360103469616041
0,359109626575188
0,357558610288371
0,355067586176192
0,356462084247774
0,34875355891957
0,349204454003583
0,347204408610964
0,344307819089185
0,346779421448439
0,34613188440999
0,34784057571775
0,343501407452723
0,34570009768663
0,344317402398723
0,339915731020509
0,34425017223108
0,344969850685898
0,344812865371176
0,347222066733055
0,343736681329537
0,343072920702032
0,341722486942554
0,339883750874963
0,34289013708526
0,342272970567331
0,341442865827128
0,345009084610452
0,343564447125441
0,344559607865502
0,346622649990756
0,349949736133356
0,345255052755146
0,349685878003271
0,351352832623923
0,351128297480548
0,35267659502901
0,351340937754659
0,349241121242285
0,354920774627401
0,352237073764045
0,353348734509572
0,353884266841471
0,355650157011029
0,357751020484462
0,352889924848153
0,357649952744903
0,351271796996374
0,354828773362802
0,352251299313005
0,350548086718837
0,348234557664016
0,349307913980331
0,349673438724188
0,348244635166437
0,345874597829519
0,347312586397389
0,346378473328127
0,347421847276615
0,340419480209691
0,346257056408217
0,344193889915719
0,344656081545915
0,33960578889849
0,339148111598327
0,341070323350898
0,341086934872627
0,336949781484914
0,338206687808564
0,338858508147226
0,33634498078161
0,33707770974389
0,336417242491183
0,334042497157748
0,336266609030257
0,335214718259745
0,335124891330509
0,332354706448633
0,330947206477199
0,332048962125152
0,332822747425457
0,332320953930599
0,334077105046153
0,330724946794947
0,330499774540348
0,328150371960411
0,332204606788417
0,327417851833295
0,326926353841948
0,326215204521093
0,324439445049863
0,320805206046063
0,321583064171152
0,317696296031258
0,31600678225864
0,31547601333126
0,31451533955599
0,314820349512806
0,313249895824103
0,311847115208194
0,312521635943413
0,310977401855177
0,309465107890766
0,309939007047444
0,311324409208043
0,308476329353989
0,310620516207345
0,310333812291038
0,306245693660812
0,307250546697035
0,306831703059496
0,302324679957236
0,304116739235009
0,302144878698475
0,300685496337171
0,299515244838798
0,297869868949423
0,294714909690937
0,293100095512731
0,292275224279179
0,293146199637752
0,289528971737138
0,291653830139094
0,290269030184625
0,290749076366661
0,292618567416477
0,295535897357335
0,298768572919469
0,299240677404928
0,303044579654769
0,306042618190513
0,310480118808434
0,313204293261286
0,321768920198498
0,327193609852941
0,334578052051271
0,344240600997408
0,350014998170897
0,357961506249417
0,368482570683868
0,374770105977611
0,384178990365782
0,392323442329467
0,403647793904682
0,411109310537676
0,41901419813237
0,431354759260059
0,437736276902044
0,443833816324497
0,452219332387666
0,463544369807103
0,465543554897607
0,473683534143054
0,477744338879233
0,481355684991627
0,486699195577802
0,48851326088599
0,488847726117325
0,492277243431278
0,493282098562477
0,491248638076378
0,496520962888326
0,493216360567446
0,489456991431233
0,491166803743631
0,487762493834531
0,487071013333689
0,485207256805946
0,484609203827728
0,486338845219114
0,484728913934905
0,484230644325864
0,487143669299583
0,488720721088687
0,488571805344601
0,491052204849368
0,493040423745298
0,493756616768514
0,498606538712101
0,502090775068367
0,508506336084363
0,509412158113997
0,511342091870146
0,514604462191504
0,522572070752764
0,52732020547099
0,536117791233747
0,541429877091452
0,54934230459213
0,558651466679807
0,56387100055334
0,576465413952927
0,586373330766398
0,5915054938513
0,595375818882008
0,594743915747164
0,601272826215996
0,597025510414852
0,593970037973628
0,595401367633819
0,598445331915152
0,589094234698132
0,589366151606773
0,590041917301324
0,579496803466878
0,577799752548684
0,576521653833611
0,57544164182405
0,581134104340239
0,577839835474908
0,583468420505777
0,586248705294743
0,595031067763703
0,606677404189599
0,608000004133358
0,614936192623792
0,627055476196224
0,635686888827437
0,644479630804806
0,652413127340583
0,66142723296012
0,674996129426882
0,674614501428043
0,679172628045762
0,68864653884561
0,69978773285676
0,708683107832331
0,714133510936286
0,722427426577832
0,728978431426279
0,744459567348097
0,750001602479849
0,76410758384229
0,776290882027955
0,790733425940239
0,812330460112318
0,817994936863106
0,828283873857035
0,839425256873984
0,861095852220194
0,865437137180337
0,861241597465275
0,868295361625179
0,881583343146359
0,899116605571074
0,902377010700021
0,904157072654991
0,90578345826226
0,893307120316716
0,901613144911823
0,893194932299717
0,892500343714382
0,881811901033203
0,869840514510068
0,870152032530719
0,864997794687203
0,861537592637432
0,856902683514662
0,851891850491346
0,852503214560697
0,849718595889602
0,848870014668464
0,840830664103106
0,853987310511829
0,858211711395588
0,861908800236719
0,872840815938888
0,87686600697393
0,882875592881468
0,89467332967471
0,902994959844353
0,897059588341758
0,911722030955075
0,921906126809896
0,922875385140259
0,926000766972545
0,925394863141707
0,94427606393656
0,941609903920447
0,92710781036188
0,949349617626309
0,954432838314762
0,96812779471673
0,968539486953059
0,947229801246173
0,942610598735459
0,960198909676189
0,955497193983189
0,944294497711157
0,954455285239009
0,965004779697258
0,948495258832458
0,941043171572019
0,944405643394425
0,937754645108634
0,938889267915613
0,942344375923791
0,93760022024459
0,917607570166421
0,922298590425002
0,910785296326801
0,910991425036575
0,889194405491148
0,896043162058048
0,880199814214816
0,857967622913694
0,843536739973643
0,816552704574074
0,795188112764292
0,77669164240092
0,747092122252652
0,726511777434546
0,704565526464013
0,679151108899277
0,666438224859839
0,648735634177049
0,629357504009466
0,616804200443918
0,614728433690079
0,608837784245483
0,600347960418998
0,608963969384823
0,603555013912829
0,599555572950673
0,596283494488593
0,602392782674919
0,606955867804051
0,596088336362492
0,594124727491151
0,593846266726907
0,584475096424886
0,581150289637248
0,576738689497324
0,571272781711769
0,558584468823681
0,556244330800545
0,548286345702427
0,541342868142711
0,527828202210166
0,520090881877767
0,512919256207349
0,510982834181378
0,49091435770969
0,483403022588734
0,47902947590447
0,469445224362877
0,458533442577993
0,449626775148749
0,436220766314753
0,432874682762954
0,427417051260102
0,416514433531563
0,408431801027693
0,408713596158363
0,40303538888488
0,3961658364169
0,392635732658766
0,394486955151286
0,385911860762291
0,384203265819522
0,383760161672125
0,382288572936081
0,38011951536865
0,379047890427053
0,381750156634416
0,377001701207308
0,37394931390782
0,374000298398077
0,379454193136725
0,378970279594781
0,381345244550459
0,384718536393124
0,38289261996109
0,384484154295638
0,384851203825435
0,388071008105431
0,390144269578509
0,396175395345868
0,39632607009352
0,39427163038176
0,394042942928946
0,402637541902685
0,405960286694747
0,400870852362622
0,400372895121966
0,399459521576603
0,396614457974054
0,400456159830076
0,398174889061381
0,401939226136683
0,406259973849775
0,410921242312034
0,406897572747988
0,405376081094351
0,406513058151458
0,408299546435198
0,407804864149558
0,412141402997987
0,413650710101762
0,418054395682463
0,416800419479336
0,42635544623252
0,426419961263767
0,42381895715494
0,432800800965442
0,438737234052494
0,431416572948854
0,436061309121966
0,436192534939931
0,445952505407895
0,443447080508629
0,446612793743181
0,455818518746733
0,456612682632574
0,45451393411494
0,456930194098251
0,455322662347411
0,462433813519394
0,466908755389703
0,468837110496681
0,465419987039695
0,464884066832001
0,470497482504075
0,470844629899992
0,479351806135297
0,489706481711254
0,490286195366389
0,489809794886987
0,494436827557802
0,510316928956196
0,514416569027611
0,521155782843934
0,524273005212841
0,545101154656559
0,533663817551346
0,544491681619582
0,550760943514317
0,552656861451142
0,55075779916677
0,561003219783496
0,560712281215829
0,549440196250872
0,549469968405966
0,556659868483857
0,55008371647974
0,554881795508255
0,561555577619498
0,56576763275181
0,565719118172599
0,562655118888527
0,564367590638569
0,583396579569332
0,580533854514447
0,57659285121117
0,578398194049731
0,590305893811241
0,580227873605645
0,574581264868863
0,581590225627666
0,593988743416064
0,591519306538782
0,595989414702473
0,593274474337057
0,600791805664437
0,597953050541878
0,601917271688155
0,606630541908052
0,619308276210774
0,617702236232469
0,61365706527279
0,621204874866352
0,625872075723846
0,622444079458095
0,619574908239605
0,613695017928972
0,639555165011805
0,641670947364202
0,638213645938265
0,650609755944297
0,628902014314316
0,62889598474456
0,657982725215594
0,654036770464224
0,661100877417698
0,660803616172412
0,662185888104191
0,65991316447353
0,667432069604578
0,674594735215532
0,672665188247831
0,66764366966427
0,684528274159174
0,69214121064069
0,681218821734704
0,698145817741916
0,691503712803071
0,671873842691109
0,7030914681438
0,709856081800769
0,714866524595632
0,713609494375471
0,708669158091008
0,721472135021396
0,728280299875806
0,731416259288355
0,717263688170833
0,730548571160202
0,748414837869585
0,734085356929255
0,728460093347128
0,768033518236954
0,771293437235647
0,73183852628668
0,757243127508486
0,734990047575301
0,762765361127757
0,745502400964021
0,757561366094839
0,785472796450888
0,791630144794833
0,787682731787228
0,790946694156451
0,801003380349246
0,805237456537485
0,814647406781656
0,802978180436984
0,80133410882321
0,824621427061589
0,836870248633809
0,834787372725291
0,804844053055165
0,858709671921165
0,899456615663142
0,876131970138911
0,83447790632136
0,819893088362385
0,813125944178993
0,813369341115911
0,873866225819454
0,88922689896376
0,889150066374356
0,921824888570369
0,89045964369768
0,892157416817556
0,918262829741556
0,934608299357031
0,913535522812002
0,926694801938163
0,957056654726015
0,912960402400909
0,912264664206516
0,980689656455601
0,965136841407443
0,9653886334958
0,984700189803641
1,03815981369259
1,05150845125834
1,00870314614488
1,01501554129626
0,974663931700476
1,01325527947007
1,00454103894956
0,960002075955233
1,03030549860028
1,04042721149985
1,06918455197844
1,03666678975563
1,01597712732648
1,08140809803261
1,05076575795849
1,03431920180466
1,09286739818347
1,06577125123873
1,10209429102593
1,03137269767668
1,00845911318384
1,08998320221707
1,08342459971064
1,09834464267051
1,07284856499266
1,15854810923215
1,05687333779693
1,06919057329777
1,20127931711089
1,08517973865694
1,13870424447446
1,15545639724576
1,12771198979236
1,08040798157883
1,07649238572172
1,02609115653562
1,10046235020874
1,17261763338088
1,08228635471112
1,15488703625877
1,07487979232545
1,14302310403138
1,15432688513393
1,08615670886185
1,08872252133789
1,08397801354748
1,16836662287771
1,27025932426674
1,05873138002351
1,11411763714369
1,16684119842701
1,15874779997341
1,026840703831
1,06180435084454
1,14261278280985
1,18102530654866
1,23271656622225
1,32875270233508
1,33171246300629
1,16752196354214
1,22034975156026
1,4930442781509
1,34929404197992
1,55588911721192
1,30986971789495
1,15143895576344
1,17611850335587
1,14023444884166
1,18749586118839
1,3538405517589
1,38735596117036
1,3883703249652
1,30766207489548
1,3520411148038
1,15909525328394
1,15856755999764
1,44688609374906
1,6814850439855
1,24962556060999
1,29853279613256
1,12861673719398
1,01188334079059
1,47590691866656
1,24347936491029
1,16078368580537
1,29335315148156
1,35094215390733
2,08911529951529
1,47215558161995
1,94949381595703
1,47792616231705
1,61870840310079
1,32159494109303
1,32879469618089
1,21292589752154
1,64731064828509
1,33460612647263
1,11132652057456
1,3217113932519
1,43516821357462
1,89996424376334
1,29981201457926
1,26462497103126
5
1,58261178737997
1,31767196843965
5
5
1,28547000352916
1,31188422930139
1,14120751195232
1,77923326159762
1,68161693347605
1,71820009554515
1,08575841814146
1,15853192268719
5
5
1,12211845081341
1,02639957411352
1,46572575193118
1,61370897737912
5
1,36927494098681
1,74346593196041
5
1,33538334912846
5
5
5
5
0,796082004738158
0,933021686486563
1,21813017401263
1,65507468027852
5
5
5
1,25380553439139
1,38313058817724
5
1,24507626828725
5
1,37206501177814
