3596
4000,36533379555
650,420452594757
1
2
2
0,0897759292271517
0,0954364148193798
0,0966088823937687
0,0986692803711641
0,100034082855603
0,0969993721375678
0,0849496218276019
0,093577860361716
0,0895552545280294
0,0975762078540974
0,095764339501303
0,0996597304730761
0,0905608611117972
0,0994680739403123
0,0901451076586642
0,0902228826158184
0,0788206511383614
0,0973076981577804
0,0943704830051829
0,0872122519143993
0,0903128508035993
0,0990751549825527
0,0849881551783822
0,0933272886249874
0,0907693322215474
0,090911639239737
0,0933105517774317
0,104498135843978
0,09252605622263
0,105416362946662
0,0871435595774941
0,0968799520556425
0,0902222476944846
0,0988441836974464
0,086660350721627
0,0896250487220772
0,0870203991130423
0,100144352329879
0,0836700802569765
0,10166177348881
0,0947291352184143
0,0885053847961002
0,0902392897969672
0,0950945502693909
0,09425531271659
0,0952975178636014
0,0882943916090281
0,0943642033338293
0,0887499478838455
0,0990190446881157
0,0845493210977791
0,0825098820595085
0,109102243716211
0,105611386121106
0,0957159930736428
0,11301158040607
0,093933323306592
0,0931415669965844
0,0874192148308356
0,0920100701295153
0,118408842962036
0,114798312140004
0,0878233201068616
0,0880006220005372
0,0859006098952015
0,0986657263052116
0,0872637511535211
0,091086867245177
0,0826234359903948
0,107614392887953
0,0820968641408724
0,116237939281582
0,0970567020298078
0,110700568356941
0,0967283581488327
0,105456754333178
0,0878462088523995
0,0903932068018179
0,0776228917932901
0,111003020600832
0,090880975787314
0,109037893961765
0,0903624900729814
0,0876941145823176
0,0921223531983184
0,109909815051546
0,0766652676485872
0,108362916722088
0,101034160951153
0,103725966337194
0,086568630280036
0,095519186457896
0,0768095370866829
0,0968196584022816
0,0717851022113894
0,0938106592940947
0,0793658010475714
0,103281076655588
0,0709712377402026
0,10788601857368
0,0797301229503903
0,133635468079765
0,114804442279663
0,0993531316559518
0,151106103565896
0,0874091162093877
0,106622530930792
0,12568780904716
0,0948863660917391
0,09518091816472
0,0782708175868531
0,0867355714871043
0,0810742655184691
0,102743695171325
0,0709733935288762
0,146583366283223
0,101037288183125
0,092691735179558
0,0816327358959791
0,090437516625817
0,060998262927192
0,148079281124501
0,0987556239911092
0,106539978935109
0,0930618415434555
0,0953351722357844
0,0752690270957193
0,143415319291287
0,100622439660035
0,0902057452004253
0,0774087083869963
0,0917164018247456
0,0660797380293216
0,103786634604651
0,114765151656705
0,0985356150391733
0,095789325428295
0,0853196395489211
0,125173414331991
0,150664395138147
0,0894232086683639
0,100931162712179
0,0671104645328354
0,110062362784383
0,127613889227049
0,102455145988742
0,0892002528588088
0,13038391854841
0,0823523863396936
0,0990673738823623
0,0729884328873688
0,0898722934669918
0,103878654719088
0,107899748485669
0,0535912407652306
0,191001195386222
0,107057769760249
0,152378909899598
0,130096141703805
0,0888573443775149
0,0985650525490752
0,0859443877473168
0,0864140739610962
0,078762544300512
0,0919225800090259
0,0692705971857205
0,0990925285702208
0,109823237671416
0,074837779002913
0,103636882966346
0,122539151922405
0,108145677308503
0,0831181225648411
0,159408731671492
0,0926135350360122
0,108990727084068
0,113676906657398
0,107729101516144
0,0655834379767321
0,110175278443909
0,0906301151642525
0,0873005375848918
0,0846467929597741
0,0854461447967095
0,0919558719685855
0,114425731217788
0,0864402603350891
0,10236799989354
0,0764475600163792
0,0838334619785263
0,107199997801781
0,147783284596778
0,110472414569781
0,0962940985940286
0,0821459621672391
0,0666866716947816
0,148200553170517
0,10415112159674
0,0910746338047391
0,0843727893343963
0,0738430278764049
0,0816546050746627
0,0756859737987301
0,0913809005688402
0,0740097310503172
0,0804901285425803
0,130219667944525
0,103375892763036
0,0840058161833277
0,0850613664355387
0,0919845490633409
0,0873387003431046
0,147372615290296
0,106178247980613
0,0968042582543164
0,0916484261658186
0,083440959122266
0,110905205863478
0,0958970854767034
0,0874379210976456
0,0900006481210183
0,0804855457901597
0,0799831154899283
0,0807293030280345
0,0801431941691867
0,0923854747836323
0,0860131082001692
0,0842845232840116
0,0791930321905491
0,0902966522344479
0,0957299462408197
0,0911246261255593
0,083320760956747
0,0873784498279094
0,0780182638169824
0,107813692861683
0,0927477686207639
0,0963198905548881
0,0827324151686991
0,0825276716320126
0,0701588249156724
0,0867930206033718
0,0768218906216461
0,083789558549632
0,075120181641191
0,0904631682448592
0,128595790791886
0,0839958048325435
0,0909464968493024
0,0727561221612886
0,115959435750553
0,0915334854802173
0,0874900928804902
0,0796171801758397
0,0899338273501744
0,0768895263450985
0,117492332477414
0,123381411116987
0,0969924077579383
0,0857874581646099
0,110795162576418
0,086577217897994
0,088611561894939
0,0881224432770186
0,0907234597602989
0,188109910513958
0,0928793369538602
0,104973197300727
0,162173236087532
0,107618460372261
0,108772673227061
0,0836576822486936
0,094838580492538
0,219684804281639
0,135750465152144
0,091417575846754
0,0992794238095721
0,115611431655328
0,0806514511484465
0,114965965003678
0,0880610841234861
0,131439059218763
0,113890695626762
0,169861552324386
0,165008158766915
0,0738136797712011
0,153297436707478
0,103397239746827
0,0981722965202726
0,0904843620202903
0,0978632809715682
0,0984875569848486
0,120242917819063
0,104994998271752
0,124778830455325
0,0967321302127344
0,104955341443835
0,135603254568905
0,0983487202788285
0,0876955318381359
0,107349811589983
0,11226089401513
0,0900435554856817
0,101698701837099
0,0916933243851084
0,111326361232512
0,0855649997211862
0,11621402634223
0,157392121789348
0,107476292928415
0,117318173085151
0,140063589836688
0,102188455884439
0,096510726123758
0,0957483431697067
0,102796253680294
0,0986344282670199
0,0994407846034731
0,0950032651586217
0,147732412796628
0,0960541164250308
0,101467281456984
0,0965059827134716
0,0977071740708814
0,0965880342394402
0,107216283662859
0,103685484016121
0,108595991153784
0,10174722101771
0,10219667032827
0,13278735527643
0,145123054849072
0,0916679403952549
0,181912172540624
0,127389881162701
0,122693137878032
0,107569850545712
0,110673937454355
0,108256795670381
0,114760495076714
0,109265679843347
0,11569625299541
0,110998450839875
0,149960805683889
0,119632462416
0,122058125941763
0,132408603587805
0,20070380398
0,188113172609931
0,13215906169287
0,125177670149377
0,1103533779321
0,183545732824385
0,137205530731623
0,169933152643939
0,161078150691597
0,127020711426329
0,14646629808396
0,127721461082105
0,146981734551594
0,122065258719461
0,147435639684984
0,12941631122427
0,15337535000935
0,136051159101357
0,158903990836913
0,133871081539003
0,158351036938813
0,194551261036318
0,170620188492727
0,154716726334843
0,153970025943289
0,143678279540892
0,219582583587577
0,17578021838088
0,250946624339527
0,196475240793363
0,222903267548752
0,221914526326902
0,187529176325671
0,184279797416963
0,174433698813067
0,184444697580503
0,190074904891678
0,187535772641596
0,189154207284819
0,186918582656696
0,203613428824195
0,206022127635786
0,206137843956206
0,208554974933484
0,206916430239873
0,232412927209692
0,221708312771542
0,224008368315272
0,210539751900107
0,253166027642204
0,297346902156743
0,308057260116504
0,230257104454517
0,232102740870344
0,226658813840775
0,234032974561781
0,24566963306374
0,244282689780652
0,258305068568085
0,261184998095858
0,310124817704695
0,28097570306403
0,305033163620279
0,272284123886378
0,262330154870548
0,295071145372336
0,285845375657008
0,302071286400309
0,318194996232656
0,289517724997246
0,274488035620403
0,332748768907971
0,31831043243923
0,322304694247671
0,331726888363447
0,290021765012198
0,3118283019266
0,301129832983395
0,314614701753825
0,31242785062358
0,34165727085892
0,322604701481656
0,343100543481142
0,341082361176426
0,349710032500722
0,334572642170066
0,387483953915245
0,341990495630907
0,369046750375848
0,370595796236272
0,354458703821753
0,352737199034612
0,373924948457167
0,393899713084148
0,399861895183789
0,40522191149758
0,441156051804262
0,37804384161969
0,384915802040809
0,380863059652551
0,410567116585683
0,388365134320322
0,40559459166536
0,395191969109149
0,428519477352188
0,407010297534318
0,442330428800732
0,413615663479538
0,44470438552785
0,434291666471368
0,438504189184404
0,435285058206948
0,454534310586102
0,439593813393156
0,471640046234434
0,491521712724777
0,515049224284366
0,481125368728127
0,521032941116144
0,469379260077268
0,500043758582157
0,481227692051364
0,500115808190201
0,481611212029489
0,544246851637829
0,494643119654668
0,530824991836344
0,500771533866113
0,526931103110848
0,524975941843919
0,5424274708615
0,529104143223604
0,574185695667404
0,547670673429068
0,571493143447504
0,551122675161131
0,57959178674124
0,557731657974724
0,605061757743852
0,560093341934248
0,603011129060984
0,576839403203431
0,625250266632371
0,569889862874254
0,585318699195503
0,616350808294826
0,625456025093578
0,612449180077282
0,628252488366689
0,590248813731512
0,638513498403953
0,612847973496944
0,649280773029377
0,622514087971598
0,652180513829627
0,63660558419454
0,668537532728126
0,687020160484846
0,676899452821176
0,672639410286722
0,680591450966282
0,686591398080335
0,732529708248322
0,690603030279598
0,725707459223601
0,725189089242976
0,733223621523198
0,715563848563388
0,741129912188755
0,731170289078384
0,755487809820515
0,734112074762583
0,751796582801843
0,719803682136117
0,779766297296042
0,722338828181584
0,753551658948782
0,738228503764055
0,819786406162896
0,767768620594391
0,80851665329248
0,797763386678467
0,807414669748342
0,769728042123073
0,811295809503002
0,819217550742662
0,810960860661532
0,787236321398183
0,846410657861899
0,793815007118051
0,812919113645089
0,804652198463406
0,854620157673892
0,87130837854932
0,854120663446783
0,859762544185186
0,922117706209437
0,883423064725429
0,940241254770287
0,850684674073288
0,901068279230022
0,869222459409798
0,966383804837097
0,911696262691636
0,972345695256509
0,88507910278114
0,952226408327753
0,90853822955584
0,88967567199548
0,940988094311484
0,976847292410976
0,928125854301544
1,00994569333807
0,993574807439775
0,99933702404507
0,939758908308437
0,993391054984315
0,919517653402492
1,06590353820897
0,907121598058352
0,958356195680173
0,925436468463503
1,03098175462049
0,960123735304824
1,02313263559763
0,955841512130379
1,08674891966539
1,07752932635195
1,0576710606946
1,03523080133503
1,04688066360238
0,999047472285054
1,08602917483374
1,03456665323999
1,10424397624459
1,11126767444061
1,12147863178903
1,13333908169262
1,14179956579693
1,09680806336278
1,10364487872114
1,08978527233841
1,13680432744471
1,12424377261285
1,19937789654449
1,0841735619059
1,12574914223777
1,07306730818982
1,1678619098719
1,09570008188442
1,19491633833345
1,11062098508551
1,19930127870086
1,14453496025088
1,26417792053395
1,06730335085512
1,17478049575197
1,15868354878623
1,17720412978003
1,21169455480112
1,30766421745869
1,21507795730118
1,26576091140273
1,18124981427732
1,26755441186953
1,16236513584203
1,25407641954153
1,21248016102479
1,29102220921911
1,28339551863732
1,21056772095869
1,21611642678775
1,28250323989504
1,12131594151017
1,25656442416735
1,26636235763131
1,26345386584273
1,25562629078094
1,29922469617027
1,28799655830169
1,35806540993889
1,29692525166364
1,25772425426925
1,28206334178888
1,36155150845926
1,20772913837015
1,29085764091977
1,35949270505095
1,52893142201036
1,30168870065589
1,3418031658939
1,27866332944458
1,3408522943587
1,36412207826653
1,33624772009036
1,1715941354218
1,31095972620341
1,30837917858382
1,38318452451214
1,41105647399482
1,4874945419681
1,33729506756737
1,42080656183941
1,42389089045777
1,3623347346816
1,41335752336878
1,57653174028658
1,41160676714809
1,54461091533286
1,48379004526663
1,41849064130881
1,3887172518216
1,54896989674533
1,38443037883002
1,58829914124744
1,35175864368461
1,39733920065963
1,47106513057726
1,54572875870256
1,37766472665468
1,45833219539998
1,32119972852748
1,45921393923376
1,43819293580218
1,38638171746871
1,39296689083932
1,49527578499386
1,35702311069171
1,26677978138168
1,40207557871517
1,60947494153404
1,52017288799157
1,45759212625635
1,45096264690503
1,57497796410826
1,38754123584954
1,54059099965212
1,44861604985209
1,61364454599649
1,483562091807
1,58811702997386
1,57101253159081
1,63831853356023
1,43482774905047
1,44845653437959
1,3737993457314
1,44078703863116
1,40598925899778
1,473509979761
1,53121583111525
1,66028822944079
1,56628875333471
1,5819260049362
1,43215802247161
1,48655765356333
1,42919521325168
1,5211236958198
1,48644588225715
1,95141965295179
1,66898934308766
1,57384839473916
1,38242398771291
1,41501284397204
1,53749415822493
1,51198830264313
1,38208754458413
1,47685517209838
1,42642348675448
1,50124581494309
1,46571437518783
1,50202011072545
1,55629776671245
1,56041653172454
1,40115420892568
1,55779282945052
1,53105258831825
1,46933212903117
1,81121080893338
1,62784190939618
1,43370186164996
1,54675084884687
1,49509922163938
1,55501221347617
1,50310785132515
1,56020466649486
1,4456341979139
1,564718108325
1,66083737591849
1,60755324985275
1,58910275738329
1,50887193092343
1,47059893247464
1,56649447495408
1,62334527406897
1,51466918997887
1,45977760246527
1,65089596382361
1,51386588426706
1,4807313361996
1,49398663080197
1,49685035619745
1,41819733469887
1,51220293685166
1,47312686643649
1,52298012896124
1,5981088252732
1,62203610285104
1,56829268603904
1,56599813074366
1,53307613650449
1,4811306585028
1,43285826300301
1,50349567717741
1,55551164248149
1,60737492390077
1,59574267155161
1,41298331989279
1,4520990725861
1,43723257865522
1,41642451745136
1,64095807716129
1,43977574271654
1,4860445923102
1,58259535740356
1,6504762307051
1,54314729881777
1,5565723489644
1,66886136065014
1,58978412140913
1,61168656325034
1,62790036270637
1,48303512912911
1,58336549445218
1,5040322488294
1,49860331657115
1,48070066683252
1,55250568834888
1,46000720198677
1,36723889146153
1,51039463462857
1,60525353633602
1,49836256932144
1,41867197419862
1,44731719607153
1,45801825611492
1,46362890025856
1,4966248657328
1,53596811386277
1,53591413555589
1,50195232768749
1,49120971071973
1,51428480655275
1,56044455338546
1,4917958697622
1,56345012159243
1,48893316502383
1,43996419940917
1,43937543153299
1,48648433545408
1,56033886396836
1,65021598697692
1,44470121864344
1,42228146423648
1,47745220168339
1,45464827701159
1,43887262000178
1,51725225338912
1,53557089589918
1,43133370975503
1,43008098931959
1,4371005680786
1,41317166686021
1,39180557507108
1,3408813534727
1,42923553630579
1,522420116724
1,59650786180366
1,52031198414302
1,45828455009496
1,44521467802735
1,46242696283666
1,41330312744449
1,32871352123878
1,43642379417466
1,38565512534923
1,39248438983123
1,38681640231221
1,31434809035781
1,40466760055355
1,39570060281979
1,39389538146086
1,43294442641166
1,39423229656925
1,40969612876122
1,39924310717244
1,32644607695486
1,33392659308785
1,44327010702633
1,44109965750058
1,41414417244773
1,38100179874564
1,30089882384209
1,38293800530515
1,37952931646354
1,35818798617795
1,37886268523554
1,3224145778554
1,29944891869106
1,34362259931649
1,3493456555797
1,31008821373227
1,25033701566508
1,25073114808346
1,31667227761515
1,28861657788609
1,31110562136012
1,43544907402134
1,33666929978338
1,32238763597967
1,33502571751594
1,28293445982417
1,2852792604909
1,25783482984476
1,28041891244962
1,29120893450672
1,24754089383797
1,21096484798449
1,25631721692862
1,25147320784863
1,19285173379831
1,21194690423642
1,26088905363831
1,25312452381232
1,21486283355233
1,21629552668391
1,2340520707955
1,19223274029363
1,18180341768328
1,24791213077792
1,21998925650364
1,13492769788874
1,204682827295
1,20800185338643
1,20512405630654
1,27438153199555
1,1895899070491
1,11758686375069
1,14645575419075
1,14767036429203
1,07419238918829
1,1226201199448
1,14469491212063
1,1108297356719
1,1427573345051
1,09019264885126
1,09680200101078
1,13992752875281
1,08798493208057
1,07793453239874
1,11813935452253
1,07423763080167
1,0600577531775
1,10615634203648
1,08471361355812
1,06807340579251
1,09500732176931
1,07303543552282
1,0578345272048
1,04982450614964
1,05858896630669
1,05773536039223
1,04920492951256
1,03122399030805
1,02875350450782
0,9898553272055
1,02262524382291
1,00274027998255
0,982981375509737
0,991974373091508
0,981392060935028
0,987476861759841
0,992942770159177
0,991014643581158
0,981272613364311
0,961114070409225
0,959854671700053
0,948803268411578
0,96187611890047
0,953280585395489
0,963575273254512
0,939871025036473
0,943298573088088
0,926954271460823
0,920579195304643
0,915733562356161
0,926978935948629
0,932754358409691
0,910376285878149
0,908598254919344
0,904256133361514
0,870995116462925
0,879404586124498
0,890002608830174
0,887512098963672
0,879346133798272
0,880675353663117
0,869466469820343
0,875479499832815
0,870910251631087
0,873689021589122
0,856497408365589
0,853578652268932
0,850783321062735
0,855109785170899
0,826011035677366
0,831080306239941
0,837492199067211
0,829002912648136
0,828551600459748
0,815774116856555
0,804418832483757
0,807904052985455
0,815789510563047
0,799596701502425
0,804521991613829
0,799881229258614
0,78743033301218
0,768511488010792
0,770606463832025
0,780600451622648
0,767711572504154
0,764559739607506
0,75829022778498
0,777649037101807
0,764815355175262
0,752163291698993
0,739091794994327
0,734099691095168
0,738187684431584
0,746536243650477
0,734571501753638
0,740068645884429
0,738071224358381
0,740945366669824
0,738426794625275
0,725307854798287
0,715260458282608
0,721424127338797
0,723272386919402
0,706800658466901
0,704619680169345
0,701672467760966
0,676758042996754
0,681895985896769
0,68756664641421
0,688396409552352
0,694913284009816
0,679124999926244
0,67522918812467
0,667008582618862
0,657471604354529
0,656645225228276
0,647982623285293
0,666525555616281
0,670941436465589
0,655832947818669
0,642152885879356
0,645226798310244
0,642140973745493
0,643799370483302
0,649455668583255
0,626998389508702
0,61607881576107
0,63174079968934
0,628495271496859
0,617783101241291
0,617618845028595
0,622063109843835
0,607393157926349
0,615155985673869
0,607772940180206
0,608804496728273
0,606960692782698
0,600690328032507
0,590138535272713
0,589163966161695
0,58527342419477
0,592089606141035
0,578885579733066
0,583467422033724
0,569771616196959
0,581415095725857
0,573450602316622
0,571070138643517
0,565567648012014
0,568439099956663
0,565364845722415
0,558787626609048
0,548351424872331
0,567675471551069
0,556542748696515
0,55842497411937
0,549545814223632
0,545003255870729
0,537390089843739
0,539378110951847
0,530511374536275
0,542838638396154
0,527502139286562
0,530127423253853
0,526374425162942
0,533368633339529
0,519767672894236
0,521534446427692
0,529139448398336
0,521548355102706
0,509433331400718
0,51725306407187
0,511508932655096
0,513490558220157
0,50378035879181
0,512137967314855
0,509445085533291
0,510597549328943
0,502645003819345
0,498822740722293
0,502795570803292
0,506181469222181
0,492886247539393
0,497738368398763
0,497306483009168
0,506997167439332
0,496423679649582
0,498471005624071
0,49687308026072
0,505776034684923
0,49767652525935
0,500041397878481
0,492050899046261
0,502269005048794
0,495184977364785
0,495128558492884
0,499665419988061
0,499269741316921
0,500926366866917
0,501661370229784
0,492767922563254
0,499364061208938
0,505725615117946
0,51145722266113
0,503039942065109
0,512194808111023
0,507945119593218
0,509752598708955
0,509120235297732
0,514939433956372
0,517319201034057
0,51669517465291
0,521110833109803
0,527679024722232
0,522035758193722
0,531381585094294
0,520437819176617
0,529550203710439
0,52747795463512
0,527896412773231
0,525284613410245
0,536998249053488
0,543506468745787
0,541023663406487
0,541753290910334
0,549538858157562
0,542255622895974
0,543040201054416
0,540678858318349
0,55246026319057
0,551624678358564
0,554379644948277
0,552191700919615
0,562573812794441
0,569323488137585
0,570169875980586
0,561845801748268
0,572360088179308
0,58132043962973
0,591107657274831
0,581777098604479
0,596718785151409
0,597707521440799
0,59714825355593
0,596475126542996
0,612434881500602
0,60719090711315
0,620483456954486
0,607041455151633
0,615267106798103
0,619062742519649
0,620074459487696
0,626726010394463
0,627628416362652
0,609989217372525
0,630179316932088
0,624936280592751
0,627763001170088
0,632362861660086
0,636537644576885
0,621492139640091
0,634278100616903
0,618064789960838
0,62846441984089
0,624085203912938
0,615805635828
0,626023357854999
0,627102839463887
0,619317112020396
0,628342709782097
0,627871946094405
0,615594257878771
0,626582746948772
0,624254919542214
0,618313667692279
0,638419657975906
0,632876294226131
0,62527414767371
0,630076154048742
0,628735606285209
0,617971476679049
0,634720640672626
0,621319129614297
0,620846006579047
0,621930350422159
0,636737254883449
0,619577381651764
0,633190341605728
0,628264893467457
0,635109822299068
0,637789545696175
0,630178683420256
0,632194059769089
0,630551908694364
0,627873213499511
0,638235176578552
0,640843184961016
0,630706284713679
0,628468502559137
0,631963960388095
0,611470510756645
0,628076995444756
0,633589082478826
0,619196643769664
0,617908693243709
0,631464169772674
0,633194349365738
0,624411413773994
0,617502078323473
0,622635322242635
0,62175844142309
0,623168621741715
0,614462271281911
0,61861736188493
0,612521847540002
0,613602741090762
0,605349858967828
0,609042540155069
0,608062304057949
0,602762450019417
0,589256350244582
0,587456387741883
0,587566327143343
0,590971939305428
0,575297196192035
0,585934306925391
0,577117994071887
0,585254754776075
0,581392963454087
0,569263539548144
0,553035402286519
0,563148894279457
0,551390814009827
0,558526659865413
0,543288849132577
0,53362212034386
0,538767380891331
0,543350413758548
0,527682784820511
0,533541910286257
0,527123697824279
0,522330661229303
0,513435271410073
0,51744647055337
0,507398800167201
0,517533941894277
0,496577341146277
0,49917124570723
0,500703395101372
0,502154259871946
0,485192259028135
0,492600742618386
0,485888598701241
0,495422944666223
0,488901956251408
0,479856690497785
0,48332641720489
0,481398707362107
0,468542380935448
0,46532433002476
0,466012214292129
0,468903394279617
0,465400343818886
0,462741698485412
0,453467152429355
0,464927864991284
0,455603692875242
0,450479424042451
0,448438332049295
0,454181579942993
0,444762719415921
0,442059484109232
0,438303665505843
0,448407126943472
0,436397804666136
0,435628851066782
0,436184972875319
0,430475939877296
0,430867164228409
0,429573094371123
0,430854473766786
0,431123073706646
0,417892190755252
0,42518811651036
0,419116904116675
0,42582214656569
0,412262956633422
0,422534496797321
0,419580552752739
0,417502522015506
0,411623463642496
0,410243277911804
0,40654477120726
0,412473924251637
0,40774751615946
0,405184250257438
0,404360913455725
0,408330467083617
0,402681193209034
0,405793408887088
0,40221256080602
0,400559420987776
0,390352849109998
0,402888531166966
0,400448879326143
0,396983551945257
0,390976942659396
0,388523749776464
0,391275583481561
0,393405362094639
0,386002600751155
0,384423117643329
0,383002835763973
0,387896017413101
0,387041233659494
0,388090873173756
0,381653033234674
0,380551066376751
0,373188118988859
0,379886707330073
0,377612680951359
0,379342101927125
0,377489393924886
0,378137591706027
0,373486931581518
0,380794643438624
0,375462934348475
0,372031335791055
0,367020233652988
0,366519492378236
0,364322701553623
0,363849560841945
0,366518655961157
0,370118861567278
0,35758678916355
0,367841926972333
0,360513776171578
0,369233013943915
0,359267115765406
0,359816711641824
0,353809772745807
0,35708573497138
0,353839833714195
0,359206507313339
0,36082885414154
0,359255282167276
0,357820349610018
0,353273545340339
0,353799607810403
0,35793181948361
0,352578269653354
0,354249910810014
0,351103376999766
0,354093337676879
0,347050111673532
0,346902519055232
0,347169419137259
0,353308165936548
0,35193911051715
0,349996816403673
0,34683045158241
0,352252974532333
0,348428977223731
0,352042212155192
0,341521654052142
0,347017349067174
0,348798131432513
0,349276506110123
0,341088984811224
0,345468064525496
0,342940298932969
0,336876139920091
0,341987696819083
0,346619576378039
0,342853935130205
0,342570527273336
0,339602920619782
0,340307421089197
0,341509769382738
0,340745778035392
0,338772932293555
0,338056405529495
0,337139013791166
0,341591878442183
0,330654858232748
0,33609369040761
0,337533685679159
0,336564704875911
0,328979701423506
0,330580832797064
0,334651014473335
0,333138455564946
0,32872057151817
0,331588222180153
0,327605336117013
0,329996439777958
0,326400662844481
0,334861004792877
0,325843105527461
0,325608471057296
0,321947906164331
0,327210730964788
0,322372962017873
0,328549075708726
0,325342458094693
0,324262702016106
0,317063733788322
0,326083131986309
0,316239603134283
0,316583483357977
0,31597074030963
0,319504743137782
0,311518330466725
0,311209755515343
0,311455154166612
0,31309437991582
0,309281211620907
0,311902580514581
0,30980999579261
0,315906872080895
0,31130395415669
0,314257884920565
0,304754581639598
0,307833621978904
0,305470884774614
0,306645066127401
0,304007701335967
0,306081265943921
0,304288201456902
0,307924930399605
0,299991085298861
0,302820204784171
0,301156791043799
0,306697041614574
0,296681613659358
0,303709588073648
0,295167204428665
0,298458550406754
0,297125014466269
0,297265997270442
0,289806989122532
0,299602817125938
0,286855801353087
0,297152215964939
0,296695915717015
0,288698607424875
0,286232274446592
0,288125488384438
0,287449347446531
0,290068940292489
0,280096272715872
0,287199309198188
0,279499620405039
0,277051535914881
0,274577029595873
0,277313181074522
0,279117080570162
0,27392307612905
0,278496946428908
0,279509444545017
0,272279504747218
0,269172570707173
0,27095221611241
0,273243210496044
0,268151741363347
0,267555284074646
0,269724754820975
0,266689058416538
0,266815867947089
0,265257156830272
0,265057890056251
0,264537363532376
0,261885270047325
0,262933078945859
0,256750031806246
0,25449811775585
0,258418219721165
0,259700703624067
0,254782505828065
0,257339900473313
0,259066377945409
0,257576049082485
0,252977535324318
0,255319490726891
0,255088309557615
0,254036621517234
0,251289772979239
0,252243880504174
0,246610122450243
0,245078217645411
0,245333808950262
0,246915910075397
0,245127608378659
0,245216062440807
0,242647805734321
0,242445701213199
0,247416226717415
0,24702444328936
0,244124024737624
0,237508513129968
0,238949282479211
0,240489855854463
0,241448270000886
0,239501374330626
0,234727476896331
0,235598582858916
0,236392119593297
0,235559043312691
0,234464396232716
0,236741977439508
0,23258526148483
0,234655862748508
0,235164897385473
0,23112737228426
0,235924597129049
0,234286690728196
0,232406775824916
0,227447487607429
0,224271046719001
0,231302614695471
0,228154961225901
0,228340193473701
0,226608567630283
0,227546335460886
0,226233180251119
0,225248978716298
0,222883452033057
0,225973759555013
0,223473721813695
0,220830695529912
0,220026956712646
0,217970311349584
0,220657426078032
0,21886698084769
0,219240496702821
0,220702054341725
0,221365376567165
0,219327885348668
0,222275974513662
0,219734406418338
0,214501070771811
0,217199084350434
0,214388071659467
0,21678442597838
0,215416439120033
0,213893906082891
0,213005250010699
0,212121387963522
0,217539045393591
0,218684605130345
0,211424149342996
0,217159541203524
0,211320632471097
0,211589278222011
0,212791166276332
0,21111425443936
0,208538128209234
0,212538187558071
0,209203596638416
0,216811705716538
0,208665369813676
0,209066729520417
0,205446643913761
0,210782811055899
0,207025332220388
0,20958951017862
0,210718543943862
0,209210686582275
0,204101397972464
0,207281126723355
0,202193222179679
0,204454093287
0,203773216481036
0,209381537554348
0,206257887703931
0,202287789435326
0,20304346966376
0,204009207624084
0,202083601575845
0,205408379489962
0,197560766648949
0,199733860112262
0,199971021137958
0,198504585338519
0,199068757603374
0,204721680582911
0,199904147219214
0,200243570532616
0,198724973419232
0,196296649705183
0,195887338273853
0,19430459958165
0,196711221732768
0,198007240048896
0,195999141254982
0,191450444556103
0,196298806467452
0,194683317877435
0,190059081203712
0,191268883212883
0,191636875111532
0,196966413081578
0,193751143155794
0,191186831729488
0,191399819659449
0,189327340303911
0,18982843911215
0,192023689232532
0,190690594242821
0,19059251027089
0,192225659507252
0,191167399756062
0,190009811321035
0,188557914305667
0,188403935171518
0,190429984651087
0,190493891779949
0,190411968459681
0,188186034332288
0,182220073445878
0,186641257133336
0,18587530066948
0,184986054429403
0,18620512090541
0,187785829357836
0,187283013339064
0,182046827055134
0,18328038590733
0,18330881309901
0,181582877844379
0,182207642144443
0,181978332839615
0,180961501804992
0,177228092969561
0,176059019319514
0,175820356385279
0,179059740064988
0,178417914343489
0,178039392547918
0,179083840503549
0,176407585991175
0,176090800992123
0,177376409752003
0,172795570663318
0,175891288844136
0,175848922853415
0,171036761607649
0,171385959934365
0,17116077058576
0,171042025187705
0,170511774137355
0,169613194915233
0,166228082073682
0,166644081246006
0,171364090766562
0,168743988262712
0,165052347288845
0,168167618769917
0,168297495503938
0,162581805467807
0,164116244773032
0,16561401082377
0,165388755144045
0,162196824216253
0,161565890011619
0,161513116221381
0,162711970576827
0,162499800608684
0,161580257062805
0,159993045194491
0,160514317613777
0,159764497695884
0,160957198254901
0,15757616848275
0,158320662302237
0,157815464603482
0,159263835528026
0,155329702823574
0,15814150561691
0,159736555003672
0,155944583105893
0,15553260576466
0,153806893454058
0,154177665859916
0,15573562695644
0,152779766779352
0,154647826445532
0,149623536313437
0,150367576292459
0,148307983708489
0,151715358536676
0,151493718924788
0,150324133847717
0,147429663822004
0,147992990892052
0,150271284817959
0,148330852910343
0,146549740113555
0,148559646677294
0,147059201698813
0,14376324476668
0,143647936132577
0,147260110146552
0,142413733594344
0,1432106166633
0,144524360036109
0,145089047296112
0,138926047796128
0,142910291148159
0,139648935781002
0,139157674349743
0,137825275397396
0,142362675779288
0,142064479031338
0,141066372107865
0,138952203117296
0,139877181512409
0,135981692096337
0,139483184153194
0,135664361438898
0,138484827373021
0,13533613386077
0,136030629722187
0,134735415151001
0,139399039315628
0,133203948063751
0,135721794689028
0,131529638147126
0,133719076730088
0,134358210173334
0,137552042765895
0,130750790536323
0,134971568885981
0,131892744444745
0,133130893404113
0,133262214014954
0,133592906865863
0,129312983632567
0,1344703506631
0,132227564752774
0,135310735877436
0,129517213690746
0,13476202214903
0,134135425325835
0,135898452330896
0,13660384452437
0,13999168868958
0,135767802734503
0,141439146545201
0,139486641026384
0,145768663806292
0,136150583894511
0,145072071881921
0,141118647313473
0,148244909066205
0,139029902231292
0,146024839521472
0,138026942570032
0,142426289899833
0,134812511639873
0,145929933951228
0,138324960615757
0,1427235346667
0,135185157829801
0,146836938875234
0,138040877252798
0,1441125565513
0,134651740680638
0,148420272091085
0,139864684633006
0,145464057717408
0,132636665199118
0,147211582354687
0,134261484872568
0,145046211001837
0,125605335160789
0,14414021276216
0,130042907814731
0,138558301335045
0,119919735514438
0,144590810498731
0,119608522435346
0,145793375566997
0,12319870434229
0,145770766810883
0,11795375986647
0,146701655491856
0,123655134604423
0,14982989788379
0,116926097350599
0,148904065232954
0,114434633711693
0,15485703250653
0,112999907660938
0,147180778373399
0,110320226794549
0,149978367074772
0,112359234381871
0,155543944632699
0,116849254011818
0,154822611553552
0,113596164486447
0,15108145327993
0,118357719464699
0,148365308349413
0,124932752157479
0,134459615329496
0,128064162286269
0,13382769319004
0,140226536668923
0,110049638583574
0,152584531897997
0,108884804505086
0,15417398998485
0,0955124074923963
0,160187599451055
0,0953381368522826
0,157005495186698
0,102648385852878
0,150344380859075
0,109699587985774
0,137964940046064
0,11622864972169
0,126898510769278
0,121925497544496
0,120782827154068
0,12473346394944
0,121418015298038
0,121000602775169
0,125238781009528
0,117064688215327
0,128395728858647
0,116094509842982
0,126438997341129
0,112123816877717
0,123346537511811
0,112753725196568
0,120935699454883
0,115356477123093
0,120489360616217
0,113486765666907
0,119971848798178
0,111861269038704
0,119564161858732
0,11399053569528
0,118413300572861
0,113250348433164
0,117724418713974
0,113347499384373
0,11657929940297
0,112470007430918
0,117754336332748
0,115315930191593
0,121666374529995
0,114187710816492
0,118358169896217
0,114966301437685
0,120755209184121
0,115076977626667
0,119984497950411
0,114954197676043
0,116370959337124
0,114445842423403
0,119996067368552
0,113522983361176
0,11988049247352
0,115607143202403
0,120346144302656
0,114578079065834
0,117076269942301
0,114760087661033
0,119574452116804
0,113684144299288
0,120537475636366
0,114977580171096
0,118238504597712
0,111310042178357
0,119695607104109
0,114252343876995
0,119795279546076
0,11445483182102
0,118439384375333
0,113921993817646
0,119129557519022
0,113444760155689
0,115380840304578
0,114365975563899
0,119770059259156
0,116524330087616
0,118818001701846
0,117885938663924
0,118186823459498
0,115506774324021
0,118699213758957
0,114330134689198
0,117621552797166
0,116217988915999
0,120995297522778
0,114519083744244
0,119912516119348
0,116198229420914
0,119599094930258
0,115500072092662
0,116673594801973
0,114182403380045
0,116838598593896
0,116430138840699
0,1201860770108
0,117222893724519
0,120553096408866
0,117401839649485
0,119046809237155
0,118748203348535
0,11848494313574
0,117905754002295
0,120321570644011
0,116819304810043
0,121991646021678
0,118250844602475
0,120712933213771
0,12172135998411
0,12350081284222
0,118940254193389
0,118188593311213
0,119194194941866
0,123580069142292
0,119340804465752
0,119799213918875
0,121022103848143
0,124124358275677
0,12126421238838
0,121256343992413
0,120432761593483
0,124974711315207
0,120444331465535
0,122491959426991
0,121763149830698
0,120878700584543
0,119837059032328
0,123790770911095
0,122086146905134
0,125738920757615
0,124136002453319
0,123372539081775
0,122212876079596
0,122980211825785
0,123315937970159
0,123530303794093
0,124012186891341
0,123577071098762
0,122457413339199
0,124955779625028
0,12144720672762
0,123912814841362
0,121122327909145
0,125443238453363
0,124146935821605
0,124297116670176
0,120861807746873
0,124093514339864
0,125644646895892
0,125529386289115
0,124396651141443
0,124895490728286
0,119904361169614
0,127260200362507
0,126643966613742
0,12447009539421
0,1248927699119
0,12715109403063
0,125136983092074
0,126387382587153
0,126135165898675
0,129535542281642
0,127406043754539
0,127591091147643
0,125960216113077
0,125698522053043
0,12829756168729
0,126968697722748
0,125018246326069
0,127399187103694
0,127672714502923
0,130013401485205
0,128333198761674
0,129034121849901
0,128735867042144
0,130393164086887
0,128881193723652
0,131250007951345
0,129143324992398
0,128838933336817
0,128724853752882
0,127256041282359
0,128082580001159
0,131377902182634
0,125942553393338
0,127475118949287
0,127654603882428
0,129108396425311
0,12749824694717
0,127492057932079
0,127179815146892
0,127074929330623
0,127104062062978
0,12638020875428
0,127487225107423
0,128055991358968
0,125995836983006
0,128003449096295
0,126425250131388
0,12696599851931
0,124794746450129
0,123675875999155
0,124236949319336
0,126221389039259
0,124188783787065
0,124367454614993
0,124329063467914
0,123173168094459
0,123920407978869
0,125742648006041
0,122895851044096
0,124446777471442
0,122530990910608
0,123801914276119
0,122197074012183
0,120820323637731
0,122735764296915
0,122497691467847
0,123529555294379
0,124349346038789
0,120620235589214
0,121182194733808
0,122133062170197
0,121360912191574
0,122665226207701
0,123377461378009
0,12374198242936
0,123275762736692
0,123393348142355
0,125167305633325
0,120355776065159
0,120208604098167
0,120422609810864
0,121558087376266
0,123070200219606
0,121657159930702
0,118400711529514
0,120250528532783
0,11828433046086
0,1191289051056
0,119639965583421
0,118679092921181
0,118484987392342
0,119481774187112
0,121027924698173
0,121700230762455
0,119279317918846
0,119015356005077
0,11984863988995
0,118015676658926
0,118080218479179
0,118524090905797
0,119104735188114
0,117171666913952
0,118596957824276
0,119934505771185
0,119736663432174
0,117215934992401
0,119207892014945
0,118257404583702
0,116996593554243
0,117655426562163
0,11724068351466
0,119488561490946
0,118860611180198
0,11655181888586
0,117152535442893
0,116334087663142
0,118594892252724
0,118384087137479
0,117780123682659
0,118229844215811
0,11768064135502
0,116232651010026
0,114960370799164
0,115747880608575
0,115432608284626
0,115545391344652
0,116004986233421
0,114287694014553
0,115872347228262
0,116694835272567
0,116092030627289
0,116226804090066
0,114744846159598
0,114526399254878
0,115220789797082
0,11448469761853
0,114222201644239
0,114362602417319
0,11197453879768
0,111102058659582
0,111492506990125
0,11294199300213
0,114639903812812
0,114676696236895
0,113738136012306
0,114127226759666
0,112047353396238
0,112271301090143
0,111564483504544
0,111511401246791
0,110209745349534
0,110754951218094
0,112242055542473
0,111855741857499
0,107958010078862
0,108470281673055
0,108952732941572
0,105818094267636
0,106312465761949
0,11039792105586
0,109575563125171
0,107731193167997
0,106752685502877
0,107848480419525
0,108643418008935
0,105888353129739
0,101163291279914
0,105474241153794
0,104902047857935
0,106100659504446
0,107657399206908
0,110580929268924
0,108973514445135
0,10363977279287
0,103589170127493
0,103194586888308
0,104155535389344
0,103484176496009
0,103136071746768
0,101736854389128
0,104294420538752
0,100134648738892
0,100822745467159
0,0997575844911782
0,100079106800197
0,100575131613109
0,098496367518719
0,0977017764858549
0,0986346712559762
0,0980323180685669
0,099721677876441
0,096255224144536
0,0974453274653611
0,0970909378593324
0,0957125302214931
0,0942655639028616
0,0979484213495281
0,100064568469922
0,110577329394855
0,0961567125778771
0,0986145865914472
0,0996226764878185
0,0998322848068882
0,0936466626331298
0,0958020777400274
0,0949585157085778
0,0948237154960915
0,0957925178920937
0,0959442253529439
0,0950111015465837
0,0947453589056593
0,0938933520650634
0,0978684192697527
0,094149688281127
0,0941968135818203
0,0954880938394636
0,0930530335393593
0,0926689661962308
0,0951170550640196
0,0934118665936839
0,0919681625828111
0,0901333061204926
0,0943099209367277
0,0943696957404555
0,102058091469514
0,099336944591344
0,0936962603295714
0,0943198079045165
0,0904375095023441
0,0914998311174527
0,091112199309982
0,0928448656516809
0,0932769064062001
0,0896019818973016
0,0906122646147446
0,0920295219009518
0,0883704104968009
0,0897970320483201
0,0915616477463346
0,0880014888329664
0,0915839088268226
0,0904406526488675
0,0885873182714715
0,0864674660944954
0,0864593490198558
0,0889459341061093
0,0893069366062572
0,0941418418103203
0,0900014502832706
0,0882535091891436
0,0917387538013502
0,105324360429232
0,0906675632968607
0,0873356050776097
0,0879843747419119
0,0874063872834825
0,0901712261791651
0,085108293004049
0,0887697703725268
0,0863133614732935
0,0872861225099756
0,0880162938765774
0,088158203511201
0,0851874787178595
0,084972005723785
0,0850032862268252
0,0871299575080713
0,0837344708554825
0,086932900727054
0,0858530509749153
0,0858282201835517
0,094121884216873
0,102536810845484
0,0941678126129019
0,0873491742100346
0,089042627330892
0,0880049444941033
0,0990528455966283
0,100131746963153
0,0808665656723308
0,0886381695688267
0,0826059446531648
0,0879488807393141
0,0832200999292544
0,088221065338409
0,0874087990846461
0,0953577343372791
0,0870564385964036
0,090954978828901
0,0834317383375727
0,0851928504352422
0,0842409774950366
0,0868953964773806
0,0826223781984158
0,0877485581275408
0,0850482290886355
0,084007109087199
0,0832193180057023
0,0863460491014502
0,0824267711907705
0,0845201846382222
0,0890363825461435
0,0945390306559683
0,08244184710532
0,0884738824070679
0,0822821702754034
0,0862727377288715
0,091026657396995
0,102407885344612
0,086497845136656
0,0869352480863498
0,0866700563603139
0,0853208287505268
0,0878048575922374
0,086281672199665
0,0845531321029664
0,0831508551100728
0,0829990644842441
0,0857846386942368
0,084473025404423
0,0825841629706453
0,0851466716066223
0,0855052655216241
0,0825107174378494
0,0847662282304779
0,0849908231908023
0,086231451012871
0,08551407511092
0,0917333660334636
0,0957221518431216
0,113076549120634
0,0961304447923644
0,0992428113752089
0,0914452246711721
0,0870156160220775
0,0821072600717627
0,0868709216228311
0,086632011194671
0,0883900483821376
0,083230095763809
0,0887761915051051
0,084525461378725
0,0880645858994913
0,0827847213179069
0,086432495715734
0,0834777534079177
0,0878244022190303
0,0848111224853703
0,0858997044027426
0,0841058719216597
0,0863364395021607
0,0843052140820813
0,0970164809707854
0,0947473108816215
0,0883742920478231
0,0943703182643567
0,109784811793152
0,118809063402412
0,0911264537746439
0,0931902652821098
0,0835069320840457
0,087981427485873
0,0858803671573907
0,0870521601900405
0,0940063452552977
0,0908001372144356
0,0864987256364109
0,0868774789347836
0,0894202393273541
0,0902747498228492
0,0882875849698794
0,100505916542183
0,119989603004919
0,101831406724578
0,0890526430423676
0,0898024252951031
0,102067243912551
0,113645885010409
0,0967893636445583
0,0898729275985515
0,094218212891092
0,0870604139664656
0,0910878317066741
0,0863631219443533
0,0909320955831619
0,0932810830289771
0,0944014157509059
0,0886860266262628
0,0958931821870577
0,0879568342493847
0,0926320034305659
0,0964706355671376
0,10407964836914
0,104391747294699
0,0941515292504744
0,0963804316566743
0,100535455693621
0,0910998131717511
0,0957565558523598
0,0909272657212469
0,0936072422601565
0,105922287328024
0,110084379513289
0,10159992939901
0,115803930247522
0,108068161636241
0,0964368134294963
0,0994881497965134
0,110976248807858
0,100048793598753
0,100211506220856
0,104107916147416
0,132520586125218
0,118902720581948
0,118293918585398
0,103580857492992
0,100661503909058
0,101326091874601
0,0963275386610076
0,102308114734327
0,11518679619879
0,108862088658865
0,0969427837730379
0,103862161343926
0,110894500731747
0,11882127253074
0,107348063280379
0,107297709915706
0,0991554079658528
0,106895952517552
0,116487877300483
0,109999403416277
0,105808499513329
0,134650260630507
0,149004680307608
0,129873260540059
0,114866323137156
0,110546418184155
0,141314984379888
0,120861862682612
0,10729953854454
0,108624069161514
0,107940547890169
0,110121109724123
0,118668475404334
0,142668144038384
0,123662711552928
0,110151229155216
0,117954528323167
0,114858117613888
0,135165772588512
0,129552330559914
0,114093474259069
0,116346422482332
0,116421482350079
0,123811847166395
0,153573658395461
0,147077789310506
0,135951152749755
0,154205452958853
0,145034745804241
0,140588814780237
0,134748601805872
0,128216283507278
0,146870187280863
0,152151646242034
0,134525705276387
0,125578980919668
0,154288638504262
0,158185360021216
0,138447119214064
0,140087360460962
0,141647017197659
0,1404328459256
0,190937969820442
0,202968344949171
0,175413082368253
0,149811237944503
0,159400738889387
0,175991128874101
0,155819867193106
0,146321924747791
0,153633432966258
0,154086511328295
0,154935338886696
0,15750117986704
0,167997314096833
0,163671854382201
0,165038995236416
0,16397072310676
0,170271406258557
0,199785373323279
0,22959407246088
0,208981356521402
0,190800377401773
0,212453760139416
0,210069897254566
0,188548663696966
0,185433061874139
0,177507757721448
0,196021008409065
0,190833070661985
0,189422576244255
0,192674781077688
0,222374627507746
0,224537960789794
0,222737125618783
0,224855812985942
0,211483568931905
0,214238894702494
0,233215614048405
0,332046159001725
0,268612884800637
0,236489404484042
0,257454257364661
0,255727732176597
0,320877246737547
0,265558412578682
0,257377597289679
0,262711762269801
0,264502847551957
0,27484821642415
0,291689175719228
0,294135014900131
0,314192381482889
0,304821990866066
0,31318702324871
0,323013726309311
0,418054227558425
0,393298532887976
0,368824562061209
0,347805466303431
0,375569979618406
0,376776826517602
0,374856169082116
0,376157201610889
0,388636362167929
0,400119286523759
0,467192231719035
0,419283377549091
0,419678610015756
0,430690414789099
0,464262269474771
0,440705337934275
0,496358283436355
0,502163284931728
0,484516686703897
0,481097443567765
0,488671234815858
0,489265133433292
0,500049969289101
0,532216729981586
0,541755262578974
0,520197620784413
0,53636698051154
0,534406361674114
0,548723324194787
0,548046409469419
0,556761066313308
0,554460028855459
0,620365639819994
0,62441264443152
0,816652921001234
0,626360563113883
0,590779713359011
0,584625221339112
0,593606768031968
0,628712164513224
0,603778439796038
0,637066604101244
0,653128490717638
0,589179017230131
0,610064311220699
0,59356544462029
0,615185932605309
0,601240997484496
0,613969978247805
0,600272984712937
0,642725629619276
0,607426585582654
0,656386816224252
0,702838778773557
0,614105411278715
0,593153959454088
0,609250858919361
0,589025742488536
0,608501500657821
0,594485156571954
0,612086108465514
0,639374671567663
0,594549839211112
0,587710913565441
0,584367232031023
0,597444432450807
0,61124233018272
0,567452691964716
0,573616203585612
0,556116648055844
0,546612830862187
0,540118435824459
0,591013024194566
0,601641410776249
0,5495800879603
0,526917375157785
0,532319966469235
0,524080256361221
0,524604671714829
0,513234377964176
0,523019540988272
0,511668614912218
0,515792932788925
0,510345318966992
0,50855182693623
0,501806030244287
0,501696467099711
0,499724846959591
0,504867309627022
0,496631147487741
0,49605329689925
0,488641136486265
0,499156997225157
0,485098508905919
0,494015635857521
0,48271453907961
0,49071329849382
0,494354579901079
0,486944653242554
0,476439960401169
0,487804719259216
0,491357797248681
0,48701757694189
0,474967675962969
0,484304800478334
0,484181819616446
0,484521693622561
0,476380375977674
0,477011688432622
0,47731544283935
0,480237772664009
0,470994512168652
0,466607017855915
0,470205236547951
0,479661857996339
0,465001721260841
0,548575675923569
0,493275610357443
0,471748188917681
0,458942851735661
0,461341425899061
0,44951706258676
0,442823228331013
0,497588762613619
0,485768453836552
0,446770128043219
0,442694982442067
0,438872238587427
0,467684998376979
0,446049961072366
0,43116386422874
0,429491096424531
0,419605597968788
0,490255627428712
0,517671120728079
0,51320575438902
0,513514582669802
0,433606300693586
0,411732157299052
0,42777228880634
0,454680598792856
0,405798754120911
0,415129768574661
0,397209133447212
0,455391988671182
0,418444564240589
0,400021532871374
0,393931478114544
0,389808793129839
0,430804563504872
0,436478803323162
0,399366339124852
0,420119085415966
0,427429734952081
0,409399906091304
0,45477030711016
0,470046525594797
0,406579742684235
0,367817993348423
0,366703282308912
0,366583355087705
0,36804327928397
0,435822542485363
0,365708814171233
0,380702866148864
0,34659893657589
0,343611272670344
0,35083671840637
0,37601939455933
0,350018294394844
0,363900551858387
0,38508867453929
0,331734706789822
0,35267689429411
0,36525726550893
0,397795219579221
0,402892407239448
0,344152004434451
0,325269984131801
0,37245437136256
0,386115893683265
0,341393314229959
0,343021058007323
0,307133126925241
0,324009768715222
0,333820044790139
0,314346934839745
0,335860872921214
0,342907190260675
0,344452639600131
0,387622181950803
0,397964892711038
0,379971561461134
0,317963084455401
0,301319338754469
0,302650864120505
0,310658013782818
0,302630100377947
0,300393146090065
0,346375259743481
0,316642722546921
0,301154426330312
0,358107143868894
0,317488072058411
0,307392109625896
0,310694908613173
0,310653882786061
0,320349193102608
0,355581573861647
0,374336111492911
0,337787158189828
0,348644064108065
0,361958900074613
0,339953755915917
0,340675621560714
0,336463851878853
0,347240543096258
0,349022809095634
0,378229083293274
0,361276424260005
0,369231331115985
0,371513763180018
0,377801170084851
0,412371329635031
0,425310399631198
0,390825745258607
0,455747616010621
0,430373644506773
0,497984797368929
0,443381641051547
0,442498258944308
0,441540528358875
0,450470757233095
0,460658392048636
0,459702310372997
0,48234530705699
0,5168814776004
0,473210596593421
0,495653555411066
0,481769225558999
0,496433949808849
0,490209744881741
0,554950356874728
0,528199000951672
0,605270175252964
0,579130185983205
0,551794027758379
0,53026532067052
0,519341427170925
0,536732674241318
0,535447793109772
0,527058994508793
0,536604495005073
0,536645221599292
0,582836483393325
0,537625964736365
0,549458646049457
0,540593354129504
0,545567654405167
0,554636919748359
0,563482936084602
0,55564982784238
0,563811489308923
0,565239453499152
0,569391219217739
0,576661894202324
0,690411107293738
0,596838021236654
0,594314579447685
0,58330332785855
0,603373272071628
0,593840789595024
0,600270784124788
0,633208871068337
0,625130704445635
0,616118845291245
0,63561100666924
0,62010897881002
0,636170609230171
0,637195662874504
0,670867269000896
0,626189444749999
0,661529035894538
0,635002766445157
0,698476788452096
0,689320145189859
0,678311494245542
0,687911002393608
0,666953336511464
0,66652237895917
0,658290170725726
0,668940059742323
0,665278602522906
0,674488939871636
0,679377482658178
0,666753364496934
0,688149798021816
0,665529594287213
0,67145687426736
0,66501531506225
0,709133576421873
0,6813190551993
0,679741279225767
0,675875539675012
0,680301682543529
0,660793623263248
0,712139064433774
0,690352615719639
0,68336135203022
0,677834412846513
0,700764068510159
0,701289755482456
0,696879497508323
0,664722294724811
0,677061327806793
0,662239478228132
0,682953921386401
0,669383677952275
0,694041043133017
0,717522892447435
0,703658228632092
0,682246322306708
0,688108037615611
0,688461187371106
0,698825768358227
0,694863030255507
0,695529002138044
0,712555273548723
0,715096256712816
0,720009361533726
0,712333818279736
0,720254429691268
0,728555543785399
0,746813654564813
0,756606747569791
0,714247143412084
0,726310951814818
0,709182439360625
0,710163200693729
0,716578305755238
0,710912163249446
0,692071820054487
0,696126100610949
0,688398177043248
0,685958365220961
0,720825434757274
0,684901231586389
0,688999474265121
0,669453642152214
0,658150453063939
0,664645912953528
0,654300960797829
0,655560925098386
0,651478797153136
0,646715343892049
0,636690318031389
0,639221056675624
0,638288084141092
0,632735965635182
0,624784874797124
0,628973174764544
0,621885905763023
0,625948952717631
0,625270307181995
0,620723517482859
0,626725451051801
0,621781860602456
0,619747492361132
0,622934980525793
0,646203159832363
0,653049588442453
0,632551685451064
0,624574858020316
0,62806804928798
0,630845605499098
0,615213071076221
0,62233520948412
0,613488454414148
0,620856069327679
0,618111285103172
0,624134548084743
0,615111877326187
0,615335982050865
0,612423508471195
0,621392378061084
0,609609323358543
0,619464769626546
0,606307864831659
0,625663427863149
0,602228978578604
0,618046000001591
0,611506291076118
0,632400041886692
0,620601290747983
0,612486453432537
0,610402006474073
0,616047712795199
0,619086897655803
0,62088019196873
0,617312220498558
0,62243705427571
0,613264078974185
0,617735833416412
0,606959139355962
0,616133108343987
0,611497109096584
0,609547292473172
0,606744530199542
0,606976024060983
0,598576742532316
0,609129939877361
0,595002731249191
0,598579352139698
0,586471211334477
0,587465193255335
0,579379851356165
0,580405635249146
0,571043360589023
0,565292065041774
0,566471280789924
0,560147296157874
0,558293313212335
0,552437733906097
0,548854881347775
0,554391237972382
0,543076520105852
0,548639557420458
0,54306441168578
0,541428599385232
0,541228045848443
0,539979762225462
0,535957768080961
0,536819450230946
0,535533867081175
0,545130716479968
0,527182167335504
0,53437918665935
0,534729110161911
0,534999883420527
0,538797955083543
0,539720081122065
0,539939990124468
0,545388636869072
0,551212723187748
0,544247950374505
0,549225996798657
0,55607241058147
0,552013099550151
0,55368612078142
0,557693808423508
0,565595123549141
0,566126123076812
0,560682135661806
0,56568534489619
0,562619965820631
0,564841862477404
0,568803032883059
0,565756869114434
0,568441630421847
0,574492423941515
0,565936651668733
0,568380036281376
0,56611572249398
0,563213324626868
0,565443410755328
0,557387948417287
0,56342990154195
0,557640497805143
0,56483448989249
0,56056729685685
0,559257314449101
0,55226979080725
0,553401437232371
0,549423049634585
0,55160088946005
0,539906005350466
0,547481463010802
0,539456934409571
0,541199641834618
0,537083701964881
0,537082494065038
0,533129353217081
0,531756075526168
0,530738022259546
0,5333041798068
0,528189689190891
0,528864118917295
0,524228763423214
0,52626313856169
0,523393948130981
0,521653551209073
0,520516686945093
0,520233554521497
0,522125987429627
0,518570592594302
0,51507362578067
0,51143284964632
0,511118434347934
0,5120122624208
0,504452735701251
0,502426793044437
0,500602560425327
0,500322198805558
0,495176174455486
0,493466131498219
0,488364993926596
0,482020432935164
0,481518194212313
0,479145820212989
0,471698955865104
0,474151328848034
0,467764115196111
0,467152087663252
0,462345044613106
0,464451601441823
0,45877200203575
0,460719924329595
0,456582936381959
0,459069276175858
0,458224810457419
0,456891526150505
0,455077723420529
0,451748701925493
0,445545583511682
0,447570320606063
0,439218999858842
0,436404970652906
0,429841356089918
0,427277841573705
0,421775473125672
0,414768941128997
0,410738490607671
0,407691006101939
0,401671258907322
0,402386401600211
0,399862958676963
0,400009594067973
0,401383554608688
0,403932255982485
0,411743431998375
0,421603477201741
0,426438994203217
0,436503751620033
0,451854621828032
0,462043769801817
0,478412558923375
0,490292739694771
0,509187210736475
0,529664395863828
0,547065886498699
0,568677605341949
0,578920707403581
0,599752719906072
0,620790845574195
0,645472802443686
0,651917922408303
0,674865587191583
0,693186469316075
0,710674080965105
0,731900408559245
0,742871578909012
0,76194533431274
0,769580006025224
0,786232636202176
0,798253777902981
0,812100250458718
0,823266610245486
0,831481484737074
0,849927328943141
0,850430267761955
0,862567950586862
0,860690230798161
0,875247628213784
0,880932510449493
0,883815263136315
0,878734133483091
0,883541539397125
0,883103726535361
0,883064051518446
0,878923833297054
0,88729569324601
0,881930453883458
0,875090228426706
0,879710399523176
0,891094272610881
0,886026790706949
0,886122715294738
0,898944319285773
0,900208711300494
0,905945334920364
0,918715535909524
0,908356762741243
0,939900179446334
0,936885419416919
0,939130158496801
0,950710371093955
0,964390076426803
0,974615129007865
0,990973576301543
0,992356308616118
1,00644184715959
1,01371565167487
1,02953050747424
1,05251166574768
1,05673704201675
1,07639264989948
1,09553731379242
1,09227220221976
1,12272230697837
1,10944230779858
1,09153481970609
1,10976189066569
1,1344316479854
1,11193089342956
1,12036349639712
1,11685566099391
1,12761487967837
1,11765155035043
1,1139228036262
1,10569911172715
1,08395585447731
1,08505779032781
1,09565279379717
1,11393885162759
1,10950046799585
1,12892922946267
1,12658443558479
1,14776501474656
1,17910392796591
1,18625827113402
1,21922860644781
1,21633325534199
1,24606136456408
1,26305845998019
1,26908524419646
1,30208645208193
1,29790965098882
1,31687633876338
1,33033343745174
1,38104311449126
1,38280615334681
1,40581200914132
1,39539680990611
1,41557622553931
1,41129367998307
1,51050625464031
1,56874095730165
1,55439294281265
1,59372722285709
1,56605391296339
1,56898619857492
1,63331768102653
1,6817666321002
1,67029902293162
1,60223821452809
1,71836212398941
1,70234076193645
1,74083437699942
1,85235295948874
1,79131001468181
1,79350903554527
1,82190435092332
1,87205555354038
1,81266600738282
1,80745291822744
1,87233435281334
1,77698604940526
1,85612720379073
1,76819578758852
1,81156687049395
1,80705586678657
1,88667654088316
1,87970556958822
1,8928598156247
1,83153854061683
1,81579616480588
1,80108935289741
1,81731976674027
1,81677977085586
1,88788139858207
1,86943690795966
1,90789850071623
1,78211085313841
1,99136113365682
1,87846273943798
1,941957466549
1,89307918320221
1,99755576171201
2,08113488947111
1,96123476681012
1,99351798573589
2,24416195755555
2,06878935997674
2,20331103701023
1,95141661733536
2,17667128202948
1,93584826994239
2,1128963421233
2,09204198301925
2,15003541950156
2,08902509034972
2,28128062176325
2,29402780533256
2,34586314087574
2,07560080660055
2,43563691957497
2,12533705124821
2,29873106433291
2,06847524403232
2,13275056350916
2,43289916035248
2,06628956591223
2,16432278651913
2,0850946665438
2,08290845636878
2,39839869388912
1,98834404999255
2,76377413229283
2,13444034633141
2,6071257121951
1,85523181452679
2,02896174939965
2,0780824484526
1,98291629645885
2,07298404076765
1,88508128281581
1,86507245079154
1,98291737933332
1,79305518382562
1,75970299632561
1,67060445326917
1,73031527327356
1,74336395780729
1,63906705117391
1,66831178224762
1,68207908949259
1,58337404919652
1,62914130794608
1,5725219757515
1,56374557412812
1,62829312490508
1,51421984857642
1,47062280739588
1,53247863203307
1,48082251468852
1,57603520976703
1,46572218342426
1,48939142948877
1,44205511093038
1,40534345419286
1,42516532586979
1,44179361707862
1,38592343119344
1,33930580530033
1,33303034474329
1,30228352421023
1,20421377464151
1,21685069334813
1,16407309994391
1,15247941911434
1,07210513021577
1,04380413883406
0,988986420963922
0,965836500006611
0,913741814358283
0,886573244846085
0,850436383152201
0,831949364202176
0,784188805240519
0,762135989426863
0,74106345352548
0,714875440724854
0,680394043047823
0,67006958237755
0,651433960110754
0,638770063679473
0,634619817558752
0,622765567023668
0,622737631735665
0,602314998404787
0,597586264474832
0,598710300409882
0,585670686595583
0,600653001461366
0,593360231459028
0,584946892510787
0,582382023109402
0,592061433475226
0,601748603706234
0,598096348515431
0,597725654198342
0,603373127688872
0,595425229413607
0,604625882830378
0,601177292802289
0,588365718386147
0,585093340535188
0,5840860231984
0,584518704205232
0,567004055722921
0,562501335427572
0,565596541194335
0,556640107968485
0,567733358474918
0,547176054593281
0,555962091971977
0,552511869195042
0,54777365149544
0,547636072002842
0,544103838161708
0,546543629886085
0,562947993610679
0,553776729712183
0,570218756912576
0,569961392160753
0,564852037498898
0,568056267972826
0,566806620348532
0,570418801932793
0,574685696629106
0,575046812252544
0,594429362653264
0,588442106418882
0,598004641333033
0,598257092134744
0,59109047618065
0,588166775085335
0,594711652504487
0,590416778202218
0,597062989588791
0,599621046570649
0,608994886833587
0,596363627000359
0,614915868242402
0,614563379399208
0,612111896836201
0,618032588691811
0,62102705406719
0,639750172451692
0,643931161517137
0,646018418382683
0,679275515560726
0,685662516511753
0,697611747558753
0,722910432548727
0,742798931918283
0,746227680395395
0,777220675357084
0,789265095353646
0,806211290367934
0,770206015054402
0,791592983889444
0,786684810936221
0,775805749015949
0,762241333407766
0,76599132494735
0,742139747941836
0,740257378092235
0,707363797378306
0,722102120140193
0,727359453008219
0,717031482329325
0,707694752481775
0,704813325890892
0,723628313294251
0,738592950386572
0,72184368721085
0,734613500470839
0,704924743394635
0,727113414560782
0,724330850215511
0,712839021183635
0,704072056912942
0,695749708438826
0,716870426916897
0,691348356244727
0,672790972930471
0,700050421697679
0,672675958957451
0,671708724806482
0,660221192679201
0,661253728960631
0,663338996388171
0,658661176777519
0,646534717495358
0,661525871306471
0,639972161976426
0,646550445304599
0,622488164049667
0,655480152303187
0,637782703533554
0,632129664475469
0,63248005722273
0,624699228587054
0,618795601163474
0,651651730072135
0,632930239606853
0,626767747700611
0,612433338693992
0,636305093031596
0,634760811092324
0,619376636794894
0,597918874404676
0,606232114904774
0,611085525843765
0,632339114093397
0,607657372839173
0,621811215909362
0,580395895813243
0,603631198981285
0,607609840886253
0,593942792318676
0,610221756779096
0,598268152516315
0,598734127064346
0,599195683038663
0,59045549027717
0,615340650954781
0,57422324063542
0,592868578756008
0,598951594715848
0,602131206025644
0,606406149874705
0,597525658363922
0,611865983364001
0,614793549876512
0,617365399231265
0,620234599856311
0,603685241679098
0,626960536992218
0,606252316853163
0,621959924628859
0,610883328937974
0,62834984086356
0,620023991610922
0,622431364788332
0,646583860673794
0,655512534450612
0,651180708495096
0,64784846364801
0,629047090402632
0,653046578267557
0,634680849541203
0,666278669569031
0,656768996149708
0,686234945976398
0,672324740488446
0,693466247111498
0,700021701345261
0,705903492721096
0,699898428819566
0,714745110560945
0,750212873715082
0,780192097555152
0,785595588102096
0,824460686036411
0,785579044235095
0,837084649723093
0,842593003299248
0,88202819622021
0,873959829696186
0,849050790656311
0,9054024117809
0,93414885100074
0,926804953754298
0,986785807989991
0,961744776182661
0,991004331842786
0,964744658462835
0,985608224914895
0,983992565869321
0,959902455504397
0,936987543482201
0,953275981778318
0,935332115007035
0,974375821432218
0,978325810222859
1,0373182116683
0,918931607908697
0,896282856916995
0,983195311453802
0,962358788199223
0,947370132208737
0,972804985721235
0,957429123363127
0,940871618035595
0,923883060063301
0,959841208397821
0,899360516854357
0,919948290741689
0,887357350384414
0,933067750137945
0,919206868167157
0,885276107142454
0,900434061495537
0,882571655365564
0,881645907793329
0,993579536063577
0,829339593771051
0,938559328936224
0,926664958199521
0,885130285848117
0,894810382259357
0,87452714475032
0,880045856417515
0,92491270999436
0,947622288185063
0,900805951523662
0,822795652695307
0,964756258053201
0,853823546476564
0,925104938943165
0,902015959428582
0,830933331764432
0,934912282261023
0,993213570461382
0,962302081474384
0,867100217058434
0,811103960750207
0,902256204048216
0,896730301111222
1,04871559173927
0,88054028690466
0,950354685541198
1,07740274972811
0,959123236758999
0,89454574932711
0,949970806866939
0,948978748972788
0,952748068495828
0,918785615936534
1,10533825377132
0,987686607368931
0,932307286397182
0,947033389615538
1,08286070530865
1,0455424529897
0,985943608253164
1,05375161498909
1,01423443365697
0,991131886806585
1,06160126889075
0,973764295655668
1,15359474915946
1,23608156617205
1,31619650079366
1,01796482154719
1,08152849111648
1,28994930034735
1,19857871727876
1,1154589652434
1,60659145882859
1,07342790293487
1,04623194262787
1,15232864501675
1,34619423549697
1,29467793705168
0,993876012797219
1,21782289707646
1,3570381359823
1,66140995061889
1,61247337599291
0,978583493456997
1,30218685331506
1,06890900106431
1,04441503772283
1,06869199597982
1,14154501126805
1,00025190910341
0,976877123885245
1,18234708510615
1,49594747693485
5
1,40811314397455
0,875514792233752
1,40921294221316
1,78311933529506
1,0995808419881
1,60023789395147
1,64059520133779
1,11568291466325
0,823214326684767
1,00385612903587
1,38508460676801
0,911037264867123
1,20693528316674
0,738882341330535
1,23690597401312
1,66665204891565
1,55686143877202
5
1,12046760294136
0,823089119716764
1,06959407598665
1,01458923086339
0,849845163365033
1,09801066068966
1,45148888079456
0,831129821050443
5
2,92456437067693
0,985220452987061
1,45991850267745
1,07354215722424
5
1,01265181056555
1,02903636332914
0,959962727979552
1,26129737357374
5
1,80180240121887
