3596
4000,36533379555
650,420452594757
1
2
2
0,0860002377612171
0,094832723906437
0,0896776152745178
0,0975228801263902
0,0969087768174189
0,0983293132262259
0,0890068280453008
0,0965772035127563
0,0931531469499844
0,0900531648477124
0,0886989597068892
0,0974766323447078
0,0884265308377927
0,0952613451868102
0,0910766559428054
0,0935337989158543
0,0799153679540417
0,0966839111307981
0,0906930949742001
0,0957631723148329
0,0912880936267524
0,0960314968152994
0,0812240935221882
0,0862563756277261
0,0917764429095465
0,0904831093022265
0,0964832588318204
0,0978525346503141
0,0946100767869811
0,104453282391131
0,0975802316329639
0,0949868474331056
0,0945413785663487
0,0991100963471857
0,0837347562302354
0,0852531616569082
0,087139748151655
0,102409593589833
0,0881368953070936
0,100217647952888
0,0955432035585922
0,0941814878314651
0,0805839472980191
0,0901748005242852
0,094317887308373
0,101665764429239
0,0904254152143837
0,0918043572576455
0,0843359173703983
0,0973705888339498
0,0847234452899877
0,08836063454998
0,109118702986499
0,103163308437515
0,0989983817713557
0,109281850734055
0,0964716976879472
0,0946508127739898
0,0864410103951797
0,0950350836164476
0,113554747302924
0,101807080346324
0,0914552660260445
0,0853637618302078
0,0845416749768192
0,0904099734387161
0,0875725500763183
0,0924818158136851
0,084555856335677
0,0973028162749202
0,0836923447910624
0,120835747991211
0,0977406551473973
0,104714446991482
0,0971365036350704
0,100983786144479
0,085708126643403
0,0856257690763347
0,0783200448333129
0,112440149371759
0,103019227184279
0,099475660445568
0,090532235662798
0,0922359132554995
0,108633463636806
0,111579469342839
0,0766003758089731
0,111201822302488
0,10598065806397
0,107926018826948
0,0839675066637359
0,0935244510780808
0,081490262153615
0,0924416715767394
0,0800452492635634
0,0916275150747493
0,0790063508868124
0,0986317641068627
0,0748437137155399
0,113737745590172
0,0827551567185553
0,145510980106605
0,112169929946485
0,108854418844738
0,161197076026045
0,0900357806452187
0,109681882671567
0,12990262515537
0,105952897235871
0,101119065034982
0,0869378047094618
0,0829982237516038
0,0887156243021261
0,100074640280852
0,0759410735293475
0,138864516548588
0,103218421588789
0,0998293116512419
0,0839937911027
0,0974934152749093
0,0636863387678862
0,153653701102531
0,115219070274353
0,104720797021593
0,0957571109924433
0,0922081523754837
0,0780231738961481
0,148064058473
0,0990085634673128
0,100286866635164
0,0762275419625767
0,103438421279178
0,0749529570569078
0,107097498019382
0,119183140892359
0,10273505493635
0,085657959481044
0,0796774224631486
0,125443725655744
0,157668327964121
0,0944470869005621
0,0932356124368557
0,0690297007613333
0,114023008235394
0,126678996198785
0,114006987410711
0,0832601598733858
0,125675270271256
0,0878988534478436
0,0957753393830001
0,0826374856569732
0,090706935300067
0,112258810904735
0,102688530034521
0,0531150561738947
0,199117869070956
0,100359008466636
0,160226432650818
0,135907784649471
0,104323952429712
0,0980818213023199
0,0937428632218961
0,084387750064165
0,0834662051673319
0,0937169757136602
0,0716993510185198
0,11513201473132
0,1152592989876
0,0797218927885935
0,110596713275976
0,12547853442799
0,114589017530749
0,0896862837219561
0,171207625947529
0,0916688967604855
0,108860689304895
0,11470215750141
0,106528523752892
0,0751677722237263
0,118313751262345
0,103729923698852
0,0922859265027167
0,0869928343490272
0,0899131887890662
0,0922219638222041
0,120157683316864
0,0871338688294813
0,103526517574305
0,0775966498623222
0,0914390705371175
0,11285225387844
0,165106018795685
0,112777176227978
0,108274792828987
0,0856679836438569
0,0742419419276115
0,143086350650821
0,112382653282139
0,0935619621900424
0,088447764469015
0,0754675981164354
0,0941510442930467
0,0777952561696931
0,0968401381924882
0,0745663247047896
0,0878797653441328
0,141015834981402
0,115588895463401
0,0923858309092983
0,0872141085847159
0,100699997674863
0,0872632274217431
0,152268761372268
0,108369180617037
0,100085811943848
0,0946197466333301
0,0847195669727971
0,121553043349089
0,098731584809079
0,0924726309204003
0,0881684075149546
0,0936970924083871
0,0830065662533272
0,0859302207694532
0,0795822103912212
0,0935374287134619
0,0849017318855504
0,0945209616323669
0,0844697131020088
0,0996613484210614
0,101775423246577
0,0914362567610417
0,0828057418854973
0,0985340220798207
0,0721798359046871
0,116510908206718
0,104604220582135
0,107164350846144
0,0869563303463032
0,0858194269407567
0,0845519266885838
0,0951879040045314
0,0792469448429991
0,0938678142231993
0,0819839149873548
0,09166540608943
0,128981574283121
0,0942939358266457
0,0973325104435018
0,0790155759605278
0,13121818613083
0,0961880687298161
0,0955101497628242
0,0896796023122773
0,10105860816518
0,0843574466542428
0,107866189731716
0,131711226721884
0,102115843440561
0,0870733984665117
0,119617353006276
0,0958638501053645
0,0957984389366591
0,0901418054589309
0,0989721497740513
0,193703616506192
0,102750288827207
0,109634037948442
0,166985123433449
0,11419287866819
0,122325229906306
0,0939165141991838
0,0861708051310862
0,243291610706075
0,142052491891808
0,103192409570315
0,105742909939732
0,124601194132931
0,090645016166061
0,120786149253191
0,097004357492529
0,138573887822568
0,122968536677626
0,181576633421001
0,158576719371914
0,0806873305293941
0,162807630064458
0,117947447759863
0,110832362569074
0,0967547591548451
0,104167734656257
0,106833529306379
0,128302787773669
0,10826559878437
0,123883212471401
0,0978465665828688
0,11390999197896
0,132769807252971
0,1100091182948
0,10172721273739
0,120458823160736
0,115021567657614
0,0979861628187985
0,109662359737388
0,105486912608832
0,124195873360002
0,0888969759171185
0,125886774710365
0,167477131286364
0,117858503106748
0,114129371448431
0,150772880104275
0,109885791554355
0,110773402832373
0,102916786948607
0,113148117529139
0,104964082730099
0,105194750308871
0,102699087999903
0,157186392064128
0,104668298255046
0,114869679628859
0,100260511387665
0,11169372094785
0,106456194093825
0,118575362758928
0,112062849409395
0,115425862146105
0,113176131179419
0,112289024156558
0,154456671062702
0,159295781383204
0,104175559966798
0,202063987132396
0,140066311252059
0,137528309378331
0,112742830278841
0,123977970391769
0,120560339314415
0,113484155653753
0,12614548914495
0,122936144240257
0,131335468647634
0,15817792739682
0,133393842094513
0,135232238969865
0,143007408288699
0,217453933238855
0,199878584821839
0,158997855671593
0,139780413603284
0,122394518183878
0,196690126678159
0,159885942322497
0,175490227481423
0,177152113084364
0,146793866493485
0,160975344967913
0,1347785978619
0,162753010027311
0,146522787049425
0,167782190173973
0,1515641564671
0,167776967683832
0,153796625291145
0,184306473022247
0,147558596610555
0,192561155190778
0,212012573440293
0,195270438943995
0,17713621673438
0,185158250718805
0,166302534536231
0,247125847906408
0,212826419628114
0,274906931988046
0,203802128073901
0,255439773333001
0,244966273764137
0,210241830644648
0,198918935470721
0,211576491097569
0,210521032264076
0,221842125970499
0,218366971098093
0,224197564583335
0,217491441138485
0,241813418605876
0,226698678564661
0,236215568928831
0,234683505656825
0,243803335497798
0,266047587473702
0,247728000372281
0,253302931015319
0,245099784269886
0,275930822903996
0,332011514732099
0,339452027913746
0,269340570544197
0,287523396387628
0,265195582048921
0,269550363705788
0,282009769020012
0,278268089960153
0,287188100950766
0,285429708143764
0,35608746676081
0,310485609425281
0,35577965921684
0,31473352725045
0,303078238834713
0,341545854410198
0,323563626994183
0,338622645838901
0,362084052072721
0,327953785541171
0,316150726888298
0,373006212855826
0,364118980826257
0,350025209297181
0,393873388571709
0,33313954766477
0,362879667478329
0,337110860562478
0,377279430041399
0,362238977246013
0,385445228723755
0,361163291633552
0,398181660208701
0,385356960620782
0,40650833188736
0,38175814558338
0,423024411505188
0,3905288642948
0,41311539303176
0,401557599473059
0,409002616762316
0,407438729372429
0,400198837469062
0,442076082061679
0,452606985963353
0,452239649551106
0,475100599851271
0,420681957497399
0,468457433051623
0,425946752249341
0,46748503461725
0,430629744918771
0,474516751200551
0,468895066320173
0,466753901435548
0,454997941467693
0,483863504483471
0,469451096188481
0,494220383149176
0,495043357653017
0,491152575475184
0,463306394205528
0,499044261560084
0,49729291020123
0,524497024407097
0,55412444846465
0,562838423373553
0,563225231650619
0,573682845846767
0,519155543233458
0,550620705028939
0,514388451662847
0,546601083310688
0,532114104696718
0,567088148824732
0,560820804159596
0,586170575304968
0,556132488804748
0,590269393023989
0,554441236726264
0,590229559254184
0,572155825100185
0,605298385023154
0,593498664440035
0,612466085585816
0,574638503246471
0,622498232668149
0,610367354874315
0,672257945356809
0,589233154693408
0,67498787155666
0,621759129877978
0,675044752143906
0,646738874370678
0,658050371833703
0,640076790788673
0,694034767537265
0,65975150326348
0,698783348332294
0,663386880767143
0,686146611610166
0,667934076094522
0,707226708711377
0,695549891998612
0,712398829731695
0,682286061352606
0,700319061949231
0,724897568444589
0,749778789546379
0,722976624093563
0,782896460839751
0,74571615479065
0,756172950393936
0,687758313041833
0,781648406340254
0,725715451648474
0,783156354630713
0,789971296997147
0,814896832714879
0,72637878941834
0,778769091869423
0,753130587269158
0,776752695200594
0,798862932756872
0,835451551984548
0,767482309084563
0,850169992099561
0,808497638285062
0,812118595468313
0,822079945924518
0,826720185603939
0,819696583041829
0,831139792773029
0,827836807412394
0,867323939723819
0,829775378430294
0,891604916079686
0,886261225813278
0,906905494701122
0,83314018432093
0,872471063022664
0,836742057798032
0,913033810911222
0,850485360147675
0,928213329865659
0,902600103695391
0,872055211133593
0,864458858742886
1,00160524935077
0,891955126088995
0,95323064439479
0,872880808644993
0,940358325760316
0,883864120240147
1,07569601381653
0,878930715898168
1,00592901703561
1,01401532730453
0,958151680225464
0,963863438441308
0,974961879533666
0,969756557102808
1,0357893074751
0,981821292339086
1,01319059513603
0,958914664365402
0,972510094764364
0,895944712442401
1,02464814906186
0,964637544627855
0,972672407998484
0,970487970663594
1,10499952022687
1,04546132314623
1,09406792669948
1,02212351276721
1,13013870546125
1,04555062004558
1,15475509453969
0,980584308586329
1,05492238512354
1,01902719157057
1,10726669553515
1,01530258200147
1,12816999964727
1,0615334175586
1,10601096373827
1,03666644521595
1,24542930227519
1,09912683491241
1,09169089188164
1,12354664828004
1,18509131345963
1,12289027886477
1,20527195342089
1,17006285053777
1,2080168430545
1,08947416816607
1,14637380230749
1,07075254877308
1,1667737310047
1,1604730213695
1,22242327768405
1,11978821710528
1,16596333142421
1,06875550467461
1,24387175709989
1,12657175360629
1,18304064927243
1,1514548662866
1,28798755056506
1,14781826745084
1,27538905843183
1,18035200717365
1,17803196810551
1,13554286171793
1,37302897032949
1,24897949258934
1,23446811982167
1,23769629232041
1,35539470836104
1,29423300990098
1,31716427083642
1,20466352782828
1,34883585712382
1,20399204413426
1,29502077393149
1,19476640197694
1,29813299289424
1,21391250101842
1,29701484333748
1,24461538931484
1,35951795215199
1,25767612737393
1,33585120987549
1,26690675414167
1,24196522358299
1,29626061424583
1,37597787646047
1,29758659024043
1,27400142966087
1,28643073479209
1,29286388756309
1,15540760652613
1,40320106944359
1,29123996854248
1,34490265545129
1,28682918312646
1,4146518083848
1,42379534635099
1,48437859456415
1,33837715819041
1,45423668288244
1,32056960637886
1,38167781346239
1,28580486297807
1,47005088986577
1,40719043431002
1,47481503524633
1,32258611090771
1,41665923353118
1,32876998395661
1,45559469094445
1,29937753744568
1,60642144391641
1,62452653996238
1,55005827473687
1,36532802059867
1,51526228574602
1,31733551893542
1,52323046264219
1,36125275418289
1,3762018564784
1,32006311251041
1,42965509802558
1,34994146409272
1,47332286934738
1,45823146888037
1,39211457433892
1,3709192743317
1,38594693716797
1,40267867591865
1,49661847479479
1,45353590609972
1,50032406890629
1,55019269576309
1,48790867161679
1,45122413973316
1,58911049691888
1,36551451003581
1,51564406705332
1,4400270501979
1,42399893995164
1,41291469773015
1,46531787126244
1,37250495789904
1,40065608608335
1,43926962934114
1,52341000050655
1,50066710640179
1,54155324233627
1,52690702951028
1,56575156246863
1,45410633887824
1,33977513407248
1,42480921730559
1,66487689788768
1,43499051980533
1,57397969446488
1,49722011908909
1,41634215703761
1,44705141646959
1,60997037346013
1,48773760990278
1,59928815265051
1,61009786287591
1,65104916112041
1,47432617735689
1,53176721523432
1,44201912745079
1,46561061066478
1,38306557829408
1,49460604310718
1,46673198633244
1,50517341795025
1,50240693830305
1,50108777316378
1,54995966455073
1,65139495517383
1,48217296047322
1,42309618262971
1,48378943520257
1,57161727655259
1,60633589508493
1,61799785347449
1,43812543431977
1,42781875966993
1,45808186943515
1,62674383450754
1,42978621340171
1,45964292806603
1,59750017982419
1,55297098718384
1,48008709223806
1,69860011995725
1,45656960585459
1,48163280664818
1,44530685179346
1,57238770443846
1,64044206589347
1,48723270001208
1,49067807430235
1,59188166774769
1,48748858544045
1,53354159750732
1,49723510676638
1,51110842268051
1,46034691179763
1,60290190304434
1,53074602452321
1,57404838539001
1,51626866883593
1,51959020467591
1,4338444161524
1,49750772709158
1,50605925597073
1,67177989492438
1,5261408543389
1,62678159553037
1,45183952509068
1,52876156961495
1,49383455863562
1,51334063300136
1,5343804432976
1,66170847517482
1,55440696740957
1,46591316194117
1,4928361004936
1,46638758653572
1,54128478344856
1,60704476174621
1,43180301378354
1,55321539222026
1,59484441005193
1,5834458785122
1,54613491739234
1,56388775649855
1,44650959671177
1,48170775175757
1,57348992772624
1,57957518270712
1,51288044343892
1,51272962683231
1,53844573089107
1,51468218978223
1,51446238341827
1,5711238027372
1,38294961466424
1,34229150771269
1,36704559022298
1,42970599291072
1,4900990501508
1,57660222465059
1,42080279209205
1,54351792378695
1,57784612068489
1,47372345248718
1,47721415155938
1,45545006846173
1,51022294161251
1,52197343217613
1,50187385707341
1,55084811124566
1,49065186748761
1,50824102264932
1,46648757680457
1,44644535090217
1,47157160562831
1,58681697524169
1,44647332587949
1,55833681888784
1,59620651892902
1,53601590883534
1,46038315854958
1,48536432604894
1,44822205615737
1,4327492631042
1,49936154046595
1,54011898395679
1,46613154256205
1,36015954082694
1,42616363894115
1,46733407623017
1,34457264618389
1,39790115013405
1,47632675758835
1,42457937682683
1,42475977020955
1,46942888120141
1,5131712575216
1,48217681042977
1,42399740148372
1,47090121544159
1,33200429614212
1,34453684731295
1,372815774472
1,39430542663084
1,43291597619426
1,42412257430648
1,48177875366071
1,44481734078092
1,4237964570407
1,53681571061848
1,37570755981741
1,29678642175764
1,38308284045638
1,53364203820275
1,37634477342601
1,43108231442936
1,44570399976709
1,38007517003154
1,39845201752824
1,35286863303676
1,36868529375938
1,37981076458793
1,2734015333953
1,32791379326973
1,34124416844728
1,36551615720528
1,3572896470999
1,337215273121
1,32940867336505
1,2735202819005
1,33741934825532
1,34018690130987
1,27652113173598
1,3902347529546
1,32335030290482
1,24881583811479
1,30459147445953
1,28491119487846
1,26428777548276
1,31060641555958
1,19063585856608
1,21819707965517
1,27319403683284
1,25516287834675
1,34314190168288
1,32736742693255
1,23158088562028
1,2104997289932
1,22277920345089
1,22339023575304
1,21367291267141
1,19915997054899
1,19371227707856
1,22616765695793
1,18759686511495
1,14783972558132
1,18221207716316
1,20441075919038
1,18462122873947
1,18346480343783
1,20836519988101
1,14591309290881
1,13111729156302
1,14516272691175
1,14701149968907
1,1206491216555
1,10477789789841
1,13892555128792
1,11725458502971
1,14713556705787
1,14962366707058
1,11271228488234
1,10546920831805
1,11282673906803
1,10542254760744
1,10831661435262
1,07623379261022
1,09613753629602
1,08309396666254
1,04649496607
1,05768830399482
1,06258758726621
1,06407698547504
1,07810098236176
1,04864575159189
1,03307230781653
1,04053309341398
1,01930135474947
1,02117166888358
1,00610756656614
1,01900990570512
1,04652901591158
1,0236002830588
1,01126855156093
1,00632652023591
1,03552600560188
1,02528006577582
0,973025843376803
0,972892711677192
0,984712737679996
0,967073235532403
0,964815684357422
0,962898689938987
0,96501652357959
0,967413298598142
0,939971596644467
0,936114780067107
0,930605021766126
0,940928947159837
0,955108950874279
0,943095666413819
0,929181060803215
0,914937124445014
0,902639722384837
0,904528767043077
0,905218349889964
0,881114135436596
0,869563135780469
0,910831154478712
0,907738269179081
0,87465131969932
0,882343232187416
0,874691981412132
0,861600640961963
0,866820478980496
0,836588904738884
0,863974103481083
0,86761846010292
0,82457949714774
0,826341354909312
0,8218739403842
0,832861597098655
0,848541615355458
0,825274541012414
0,807817295767795
0,819404140919602
0,832706929638437
0,811558028678745
0,811266811131492
0,813549328738607
0,792474876401615
0,791804279501807
0,793075967880525
0,7743896666953
0,784756239573886
0,806018832408407
0,793874889343331
0,771870220964322
0,762229335483951
0,769535397897712
0,760456302889771
0,748916792446883
0,760511485785143
0,743207855279385
0,745356031489328
0,750679456899802
0,754650309220234
0,73049793967156
0,728315152468593
0,72652796540437
0,719014021721228
0,718383169346208
0,718645972954741
0,71467220247441
0,719687911636568
0,71143678838572
0,706345499283062
0,712858803944077
0,695998775528449
0,69059770598102
0,694574661063145
0,690398845458498
0,690470534252874
0,674948524565306
0,685110698791723
0,660969313833202
0,657826522692302
0,679936898651339
0,674178948796217
0,663220771847319
0,662883405948129
0,64562047699175
0,644959772698195
0,64215427091609
0,62865588716499
0,630880251658322
0,63338869414173
0,62120346315542
0,621813789364663
0,616409193635414
0,620724047092627
0,624166911742874
0,627268853869385
0,608944513190514
0,601463613733523
0,607961960622173
0,606406761422209
0,598370170042618
0,59357276868593
0,591466134737426
0,593896970336154
0,583794789965306
0,570686836775899
0,574099019540396
0,577148748613067
0,563040077776161
0,571405520960635
0,581214912409981
0,576503591346977
0,566393275372321
0,567818960570628
0,56340185233469
0,558610064421614
0,563047636730176
0,566487671777677
0,550657386892283
0,550114537600812
0,557471170309203
0,550595322978893
0,54087065125089
0,541411952604064
0,535145517918818
0,532979607497396
0,526198591961118
0,533233777700027
0,535992806947235
0,526501016659931
0,52516503218597
0,524224765296687
0,51687582232423
0,52576586737493
0,517697365090614
0,514719786282098
0,515732396492646
0,517755594894618
0,506507505203072
0,510192454318836
0,515481509040643
0,514055157616319
0,507738666855999
0,499622339176926
0,502074256061831
0,510068781204811
0,502368214555088
0,508951775758184
0,503879760992729
0,509111740080582
0,51147311047927
0,507553866457686
0,499290360036251
0,505501388711434
0,505691273525127
0,510567281188716
0,508802814217312
0,508467945970153
0,510332520873024
0,512449389237686
0,512704955280909
0,508496462459877
0,517522970124267
0,521138251833151
0,523470572273838
0,526272475746439
0,52132854393325
0,527814145007501
0,523942781619227
0,517446645060943
0,51337219435098
0,526561612302837
0,527881521986831
0,536044451267321
0,530479867894118
0,527765452010419
0,536064222162871
0,543582622470054
0,527692609990843
0,532631646210495
0,528824725196562
0,536339479299684
0,542317728068538
0,543954094744293
0,534671135897823
0,551819755329253
0,550857621766924
0,558101794890119
0,551546645905423
0,55410344012222
0,560648920415045
0,571157628776261
0,566927173119701
0,568373788076942
0,572734897639896
0,57364039539513
0,57476898449984
0,594467719149798
0,584318472827303
0,586595222965407
0,587226228916317
0,593765124526736
0,588708428365004
0,60385972333472
0,593743186758542
0,600205301523525
0,593663613281164
0,619194541326322
0,616717194397342
0,607223512927745
0,600808408615804
0,59965090799221
0,597963860450019
0,609293823580855
0,601194344050048
0,607400088293842
0,609227404805439
0,613616801027929
0,595282954828469
0,602328143063778
0,595819390599461
0,60839946483191
0,59995642551933
0,593884888470734
0,58904477019992
0,590172781437584
0,596044334759149
0,611469132572674
0,599815879929389
0,599198701420716
0,594666380481309
0,601596837643655
0,595274864152758
0,592635499567734
0,594267297778046
0,596880644161861
0,587176056881462
0,604628863224122
0,595802771379005
0,608716489243153
0,594442609333517
0,595731642528467
0,597410084102157
0,604052441146935
0,595880119554238
0,606511355488107
0,599824040397423
0,604758041606589
0,604036951082544
0,60353333024603
0,591465904748027
0,600967793956841
0,592666620882854
0,594307816296215
0,600839630673286
0,616922174193029
0,594741532254336
0,596869955200644
0,609612909544864
0,595355333032791
0,601058637308296
0,592742670967074
0,587616352301804
0,59899792296852
0,587382328622093
0,590343499162495
0,587021865430047
0,589455644506446
0,585781947685182
0,585507230041687
0,58632175115379
0,581572619412706
0,570937555787529
0,571053111157367
0,571244034531017
0,564042874484988
0,566075722187673
0,565154137179202
0,563275533928768
0,567146101754769
0,549611139985098
0,557319364364292
0,544142489945684
0,551626514306899
0,55340757065727
0,540886094888988
0,535817335681683
0,539489453000271
0,524579581153593
0,529285374363689
0,527093477227931
0,515379159319614
0,509973603745636
0,516259926071548
0,510369910288928
0,520593806014517
0,49887337135896
0,492545226162929
0,496157897004148
0,500656062669455
0,48349484959333
0,484662455092682
0,480722380980997
0,477545809331954
0,473960242363166
0,477282713074789
0,474783346622583
0,468740003452942
0,459837916428303
0,464392592055163
0,460416143753046
0,454918742940188
0,450167172967039
0,460298915757373
0,448685536691361
0,44585626954304
0,44975307932872
0,45020802378514
0,440424509128692
0,44111278438512
0,431795781859505
0,44245608024387
0,437849130955542
0,441720294236204
0,428035792029214
0,42892177475532
0,423069272925891
0,430901605257127
0,429031232998437
0,417025245686104
0,417231043700785
0,415621341487028
0,419771697838201
0,420900347854644
0,414651112054103
0,415719656252598
0,404481580841843
0,415405070451675
0,404549055118003
0,404546134536205
0,399423539065024
0,403878293031246
0,402152908106434
0,40568434218453
0,398140023703172
0,403388357677048
0,391980059129215
0,393334135063172
0,384135555990808
0,394186046039439
0,390825024879108
0,38814438593148
0,382640126113854
0,383360652212756
0,386928813049927
0,385695182124346
0,386545818049135
0,37461430777981
0,379174027365216
0,378346027919812
0,374132387059418
0,378645297427659
0,374543861575566
0,372603345992264
0,372716477278167
0,369754149232636
0,36842819272406
0,369380331084835
0,362606202340604
0,373987948336463
0,367105281737635
0,369728549121126
0,358327161279854
0,368875498102353
0,363776756122168
0,363223827539163
0,362895279198122
0,35971664322017
0,35286914335582
0,35463159870218
0,353226860078141
0,359568317313072
0,354744906644963
0,357797578599936
0,344167687988489
0,352180696189642
0,345060203296678
0,350214992149805
0,352627784114763
0,352068957759609
0,342130517519222
0,351002505853141
0,339687062176598
0,342740474522707
0,346589889113368
0,344255416290314
0,336966636371364
0,342006664297149
0,337690068737396
0,336899675726985
0,338204103575146
0,33579234067353
0,335805412515966
0,338214063085379
0,333775947632044
0,335231891706015
0,335998523517315
0,334004485189174
0,335150861809056
0,33360238534792
0,33458762845094
0,331375957792735
0,326402320006845
0,336039535312956
0,330371625357948
0,335180031893227
0,331860734718142
0,327248224171858
0,32868260245119
0,329632863381974
0,326723292251926
0,332210648089282
0,321535944782403
0,325868050637398
0,32748044610567
0,322118210053311
0,324588417190229
0,327330550029675
0,32081321073892
0,327389899415459
0,323850601823143
0,326301376418383
0,323782193406112
0,324055399616317
0,329173177097917
0,316311141254891
0,316393356124525
0,316942206073337
0,319549887851067
0,320678377878927
0,311770328652565
0,321860922524727
0,317095389313737
0,311383957063112
0,309460653037947
0,311433401695276
0,309025906148833
0,311200899869618
0,314910112697041
0,309672321368674
0,311188357573046
0,316435871136004
0,306352284337315
0,309628660070743
0,304403636012616
0,309373047082266
0,302047888209003
0,308092581479175
0,301118291304996
0,300441784445035
0,299941751440839
0,296533589806885
0,298352855636911
0,297456024089634
0,299786896828414
0,301749673736573
0,297143981275797
0,298303221841665
0,298409929482703
0,293944004916863
0,294097392929713
0,296175228658818
0,294738808316168
0,293009218045158
0,2912892911654
0,293903611276916
0,286142460434663
0,288366887384418
0,287461453701287
0,289630679293864
0,287440993871237
0,283063637484622
0,290119021352952
0,285499265585242
0,283440550359639
0,284607681422162
0,279299337090088
0,278874868188367
0,275694286021542
0,282877574681088
0,277323028802841
0,278794589900572
0,275059892282213
0,280457325950412
0,273887061332292
0,27512767336407
0,271344572088403
0,274373714536437
0,275756737489435
0,275697179818086
0,275596122276562
0,26798863092084
0,268745457251625
0,266905100481007
0,268421157374713
0,272097263423018
0,265700205234856
0,261484509047093
0,261622332469405
0,260478801110695
0,263261636225158
0,258115630209525
0,255982791299847
0,258839088371673
0,258358088126927
0,259354305838149
0,256573644279811
0,251602142998018
0,257827984341997
0,256773934496327
0,249517604614068
0,247318868376659
0,249612655690932
0,24994952532481
0,247684142981859
0,246736630625889
0,245791102789041
0,244821744029338
0,240824379672046
0,243373914625052
0,240831231059603
0,242090469168268
0,242526624705571
0,243874318178183
0,240263077307355
0,237869826781598
0,237698347856851
0,238967335347509
0,236814566687456
0,237577677769037
0,232515122574235
0,241125645270142
0,229076182650978
0,233593230278859
0,228519478545697
0,231987985479985
0,229389109233985
0,22747992576997
0,231300766611027
0,229473479246271
0,231094610142225
0,227400372682052
0,229584718352619
0,229100519733507
0,228788397080868
0,222278923822458
0,225226836334904
0,221394552650295
0,222935655883881
0,220027814293445
0,222509364872441
0,2249555984468
0,218077753603435
0,221127474204263
0,222939124153225
0,219205593706573
0,216706341842875
0,220619017972935
0,221886395451579
0,219344541579669
0,215025127424357
0,215508950435171
0,214644068804448
0,215555153393581
0,212862693531124
0,216180581723704
0,213763672391486
0,215188212471537
0,210336923478707
0,211192437357948
0,208748338113864
0,212825384576311
0,211932394512462
0,208395917783317
0,211159692841377
0,208382566995518
0,203677524783243
0,203840928029235
0,204592055401465
0,206422003361116
0,20857540541681
0,206466569324008
0,205497820455237
0,205558901118545
0,206383165721649
0,208559253879829
0,203752925949669
0,204852597192502
0,201931156079823
0,202883533388024
0,202246607394976
0,20455927876926
0,200234513408205
0,20068546782977
0,199739967950226
0,200483253506794
0,19634238464504
0,20220961058546
0,198217896368802
0,200209459661543
0,20248116224905
0,197932362379779
0,196233540932469
0,201348785935213
0,196462154215202
0,196937446930366
0,19749482778547
0,198643483164224
0,193645698180979
0,197240087820292
0,196946660446572
0,195864684974069
0,195579212113295
0,194007969820271
0,194915858672196
0,192096064481206
0,193379950713802
0,193221956404078
0,189542503307334
0,193868690968853
0,191738865421917
0,190965946713402
0,192588447296952
0,188964602667918
0,192631752970828
0,188093993966066
0,189868194109272
0,186896649467599
0,188432314870074
0,189935438715544
0,187710047615248
0,187855789798637
0,185625269215208
0,18882356950139
0,189725248199729
0,189855509210997
0,183718349299781
0,184996004238036
0,184721173421118
0,183824131780322
0,183144573641562
0,182907011975845
0,183322487552786
0,186103024958868
0,181744078723135
0,184818461249359
0,184602003159402
0,182794390617536
0,18081032594699
0,1792351807989
0,182986613376946
0,182310599479108
0,180026846891591
0,18010635037812
0,18041544021454
0,180725593403005
0,17703246184801
0,180968180496364
0,178631267581121
0,179660012440264
0,179076038668084
0,178754430858788
0,177063220609825
0,176198226591066
0,176431238522576
0,17436382350455
0,175180873712449
0,179176474018844
0,179091120519768
0,173668413547747
0,177431492552665
0,174616673554605
0,175094782297521
0,175348143979505
0,172551910885585
0,17342055485052
0,171296370315956
0,172139172411675
0,171671498954727
0,171421427002508
0,170913897136167
0,169704943637964
0,169416173389615
0,169472777733824
0,167867474652099
0,166775257796965
0,169266462540429
0,166735050217194
0,167353321249889
0,168442486709424
0,165718352254335
0,166147792536475
0,164515781511294
0,165639807791771
0,16286229050952
0,162477973902285
0,163105684632104
0,162901850747356
0,159764343435995
0,158396541562782
0,164009755869981
0,162116415841309
0,157892953113346
0,158518461594002
0,165496226097679
0,158258558507968
0,158065694830365
0,15609104353571
0,159621904322237
0,155082069800244
0,155046503335934
0,153087763963105
0,156464847044835
0,158490015283574
0,155459715303697
0,154140129244239
0,152865533881691
0,15457058481515
0,153794588314499
0,149739952799608
0,155928224448765
0,151451632326068
0,152102555146967
0,152751969706913
0,152962226847565
0,151883974770537
0,150767329901226
0,149207533234939
0,149784349625628
0,14970324528831
0,148523488057297
0,146520568575128
0,148233650935043
0,147763867368637
0,145635959712278
0,147226038807031
0,148385361699417
0,143876189785273
0,146249356773927
0,142172368655817
0,148002494391273
0,144069761377826
0,14758381610291
0,144748387698891
0,144072595766748
0,143775818345042
0,144080109174907
0,14067419497544
0,144363615826375
0,141017681081853
0,141015667725957
0,140161307183541
0,141442378100828
0,1379314904671
0,141453267385423
0,136143149160843
0,139259635989587
0,135575181024246
0,140099283551576
0,13779084687033
0,138260800548535
0,137451110672257
0,136794601038406
0,136796241358203
0,140111990796138
0,136540278393289
0,136297106177273
0,134086034597537
0,136409675136679
0,134868326633804
0,136208530437322
0,131314900289906
0,136738970037371
0,131172683540184
0,132620935506578
0,134292451048151
0,135600459676566
0,130802766675807
0,134751209019278
0,132414818710765
0,135766753445311
0,13463452620421
0,133457540571607
0,129927146199448
0,137392814284001
0,131409726350355
0,132936982522596
0,129903055184152
0,132211677852754
0,132708096507066
0,13652419404272
0,136121694402878
0,140744719060627
0,137664408428194
0,142481221067972
0,140121795412981
0,148483877714854
0,140152027847706
0,145526540809061
0,140303253812814
0,146622767755981
0,141189834767039
0,146513452567649
0,138356511898334
0,144741175303916
0,140670418265762
0,146128570741573
0,13511926628261
0,148858961884821
0,143140002323455
0,148877219370089
0,145737779361512
0,151782827599473
0,134220694885821
0,152248865888167
0,144919775804412
0,145821738151327
0,136878561743235
0,148537313933732
0,132517031982838
0,149972899140668
0,132671619864596
0,144641703378918
0,13431771727551
0,14050870451622
0,122067726558421
0,149400628790303
0,125823539693969
0,147929571200803
0,127344398026679
0,149092442743459
0,123541428665615
0,150192970825114
0,123645084154102
0,158559069045431
0,117103465089147
0,154367102696934
0,119532126927765
0,156420548094078
0,118283321024772
0,154777297932397
0,113600187817561
0,15711397023369
0,111213737511246
0,15954915611294
0,120181515797173
0,162875922791653
0,116406779576077
0,155023280688753
0,119505471831321
0,159812350058325
0,126814837156835
0,145463771259102
0,132246800235544
0,141064277159387
0,144996141747846
0,1203859367962
0,15238007526172
0,116823333336993
0,156662302408425
0,0991013246640182
0,166097608031356
0,10087765094705
0,164740332083631
0,106402183391999
0,157377499857855
0,113702292177754
0,147141734488913
0,120114002941767
0,132523795729622
0,125788233482203
0,126782958966041
0,128299833516513
0,128554155376045
0,128367497256357
0,130148003417436
0,124434492512254
0,133391278996056
0,11947353674782
0,133986450621715
0,122054375698915
0,130266271028092
0,118985502186366
0,128201470054377
0,119655770927833
0,125400901295077
0,121299861807624
0,125614732116512
0,118091796709212
0,127731039142418
0,122389616744399
0,126924998400992
0,120113930297749
0,126199461063298
0,118491981044344
0,125117389225569
0,123575913270621
0,126705475392013
0,122579244222479
0,128739051771856
0,120372414630521
0,128497195270411
0,12122025686584
0,12675036756482
0,120269052034478
0,12843588405734
0,122766843960574
0,127038032144754
0,124153692578561
0,12731518796811
0,12167444772524
0,126522027224615
0,122230730585799
0,128474896863903
0,123324077920364
0,128322701913404
0,122603265720712
0,128578719598074
0,123545687481153
0,130034956034723
0,121600499375698
0,128425587217217
0,122351039211047
0,12874580703613
0,124315464303936
0,127745413265961
0,124508048247276
0,127259669213569
0,125954626059342
0,127843310190861
0,122598092501676
0,127024912439524
0,125284815190207
0,127883435213017
0,126335762309685
0,12954292926081
0,126277508636496
0,129707190393783
0,127038678770456
0,128102310773496
0,124407976060385
0,128655622989666
0,126184115431236
0,127052917631086
0,125671693020205
0,12952246925298
0,127751114548993
0,131156627618056
0,125766004038795
0,127878548331013
0,125992922459156
0,129812286104064
0,126513743634186
0,129009735416672
0,128881810837848
0,131891423818828
0,128647223611666
0,130902687834909
0,128296818323264
0,13098090513754
0,128749660183652
0,131152361718591
0,127460105828971
0,132541512783591
0,130198208794171
0,132294905501135
0,131709892916819
0,133217361467981
0,131701600663593
0,131917219202786
0,131952692634491
0,13323708753168
0,131525797024141
0,133005924530375
0,130359666573396
0,13425623392829
0,131522122395481
0,134648440887576
0,13084181958257
0,136468018579596
0,131741768653698
0,134071926698949
0,135305741531639
0,134617179737167
0,131958459668893
0,137424537353135
0,133218611419135
0,138395144810818
0,136255802714835
0,136417255206891
0,136388366884397
0,13504664737371
0,134460809606483
0,136388992087599
0,136618398891565
0,137360267643292
0,134102099967868
0,137495189174627
0,133906778440607
0,135290145997068
0,135857000261055
0,137022553316574
0,136930502060838
0,136964418619389
0,135251217721958
0,13708736195187
0,136369888024959
0,137507811132579
0,13506484908842
0,139786296821725
0,13636316769665
0,13898296016366
0,137402493070091
0,1371046348318
0,136687988658989
0,140371661823567
0,138010885668853
0,140045725130454
0,140004369655881
0,141109800438639
0,140428798804203
0,141420046724511
0,141011212713366
0,140999217538248
0,142246624370161
0,142787615821116
0,138770645772465
0,141568085995905
0,141085137825834
0,141290475783685
0,142636709928108
0,14380472746744
0,143435535271325
0,144162871269667
0,14245926013209
0,145698818350068
0,143261393973335
0,14259496421121
0,141874641263961
0,142117794585324
0,143496356486727
0,14420422750525
0,139594265265803
0,14497270973853
0,143724654322067
0,142916128725721
0,142089613322487
0,142266005386371
0,141283556543331
0,143372189711117
0,139885138380495
0,140748579553051
0,142089946213808
0,142711050997531
0,137742041116133
0,139556669074258
0,13980858499318
0,140790056196557
0,136065014752987
0,141299081661175
0,140162037422889
0,139431382458126
0,141484651552544
0,141412403131459
0,136679503801322
0,138091332069899
0,1397339296637
0,139580113467782
0,137957692196687
0,138729387551579
0,138685967265693
0,14023975425339
0,138004521201996
0,138011211067419
0,138282168365219
0,138442000919707
0,138258859254756
0,138531077183535
0,135793971632448
0,138250310680412
0,137504158564621
0,138881703865124
0,138101380246225
0,136943272128379
0,138371444736134
0,140342157683479
0,1381841195352
0,137367191203037
0,136485747941708
0,13673115352606
0,138480043557516
0,137833725171396
0,136399526564248
0,13512322015657
0,136274563289269
0,136142863526709
0,136642447435857
0,135459854384696
0,137108811381739
0,135451870460614
0,133611160623838
0,135152682239825
0,138271576087284
0,137523677872405
0,133289044548204
0,134510959220617
0,133654849782309
0,131333568169105
0,132135036862744
0,134678806780669
0,133817915856783
0,132502400574067
0,135274694983534
0,135543764506918
0,132313842329606
0,132227342358115
0,132711468652874
0,132138455163811
0,132813214064875
0,133523272641643
0,134672429446877
0,132532694974999
0,132924439976343
0,131395303176407
0,130962652171024
0,133600998133926
0,132809199361884
0,130969739290681
0,131220145444309
0,135282464759962
0,134976405476715
0,130538468844983
0,129693577726286
0,130450564483349
0,129391911451075
0,128265560567861
0,128704445319124
0,129919517413984
0,127476526809056
0,129573064080305
0,128805118771286
0,129201180213476
0,12766673419083
0,127831893874435
0,127442487531513
0,127579361535899
0,129152205471196
0,130717893341341
0,128547076895083
0,126571010839076
0,126559582121873
0,126255998394963
0,126629635406661
0,125377381262341
0,126434365667697
0,129017408997677
0,125679461602627
0,125885813707119
0,125817251071123
0,12593978008632
0,124370321982772
0,125350240310639
0,123888905976549
0,12426314210506
0,123461860955219
0,121608739341872
0,122326389113784
0,12192455539819
0,119629207949727
0,12148752569591
0,120925170010431
0,121133990182425
0,120242747256066
0,122820708236934
0,121465993286841
0,118567299560477
0,117411380044964
0,120049077683662
0,116660422610673
0,121141810805493
0,121102968183884
0,123672457733843
0,120942923072446
0,117817522761186
0,11669425351712
0,114746871548296
0,115886045225003
0,115679640839375
0,113247744109167
0,111558896221852
0,115145939776858
0,115066300398499
0,114382699039684
0,111441028888603
0,112547234617748
0,112422713140787
0,111518231823754
0,1125713231541
0,11309374045019
0,111058123378405
0,114242627966593
0,110141550322383
0,108604657147722
0,10984013741735
0,109670937656528
0,10776980648581
0,110892626387576
0,110678652318446
0,122653733097765
0,110309402067884
0,110426651284421
0,109943269492047
0,111947994217011
0,106779511841844
0,108190707228802
0,108305887964306
0,107663352359574
0,107360926345096
0,110028101573739
0,110370490659168
0,10886848888251
0,106804179385404
0,109556907090635
0,104574661867227
0,104341144018732
0,106818228006328
0,106387566376514
0,10531470871352
0,106708938009828
0,103915468078654
0,10474037906173
0,104936994942506
0,104606103394836
0,104288632735621
0,113146382306671
0,110759584597542
0,10634011246084
0,104944550411175
0,10332194935725
0,101967704837041
0,1001927353875
0,101419557044261
0,101080072836708
0,100534367502494
0,101378627852542
0,102991312305053
0,101779295206435
0,102005830464362
0,105216010006426
0,100606839442065
0,102087871990989
0,0993064988248093
0,0988802886996991
0,0996265671807193
0,0954859902755578
0,100227705528089
0,0999910503146836
0,10363625963609
0,10021442039495
0,0991154297120412
0,104444181448929
0,120156089682198
0,100429738421548
0,0977559786036172
0,100170403859971
0,0978040937604598
0,0984836948935353
0,0967816825666203
0,0991605607833044
0,0986638779128474
0,0984792187094626
0,0973600023952579
0,0978597295052767
0,0972465981295503
0,0981798894074063
0,0959541487078506
0,0981701494613616
0,0955300421299115
0,096227056851549
0,096637208272497
0,0974915630445548
0,104214761739347
0,112075633610371
0,105411100593978
0,0972375768989438
0,0973831716954658
0,0969106705085164
0,111551850863752
0,10945743106113
0,0895204394221455
0,0987968280870226
0,0923431812220493
0,0968987918594182
0,091271957358226
0,099425170126586
0,0977696634110965
0,105786804260459
0,095228282340073
0,100680550326816
0,0942697529680504
0,0958520408034735
0,0951690878552366
0,0973629559338929
0,0921791931447053
0,0953463237938708
0,0947521868164721
0,0956961003503217
0,0932179985587424
0,0936092735423194
0,0921833408928705
0,095768728584588
0,0969754964338198
0,104239426507624
0,0945940746737356
0,0986786659138471
0,0896294530281814
0,0960986457143847
0,0997665154472658
0,113743697615084
0,0973658486722903
0,0960445434710973
0,0933723091981085
0,0934742571343202
0,0979636217384708
0,096265060419233
0,0937196658900219
0,0935350304066779
0,0930657509125694
0,0952265270653532
0,0956575082905004
0,0932905977876205
0,0949895888906398
0,0940094791150838
0,0914069361393448
0,0923218851612163
0,0922055066378318
0,091757452782137
0,094151614310111
0,100390695039222
0,105465187950754
0,124487207170729
0,105276826250887
0,108172163921466
0,0991992997163623
0,0979352929271098
0,0919072024565585
0,0961062252512442
0,0945858597283806
0,0982815088521629
0,0923075561434643
0,0956557362233851
0,0935407089600419
0,0982723475810114
0,093502746130078
0,0949463507833092
0,0910922060431058
0,0977422978670419
0,094197738738905
0,094669101326619
0,0922518603634012
0,0945071253540081
0,0933168354230623
0,105664165185706
0,10490831464583
0,0949818566509885
0,10055582279352
0,118430862324641
0,130632105006803
0,099693121635909
0,104274970833609
0,0925160036992195
0,0970756165899151
0,0950440954265575
0,0976289505566211
0,100542117981548
0,09708115677565
0,0949373943009739
0,095736708011358
0,0998040244167672
0,0987210355881245
0,0953828861382942
0,108703865586543
0,131456037653888
0,110531894500039
0,0977403503950077
0,0990755854905604
0,106179398045953
0,122813611184667
0,103581413441771
0,0974412626818895
0,102156258939001
0,0960330944861425
0,0998575247010993
0,0942217968765141
0,103103446929973
0,103381120497909
0,103714789905909
0,0980168877113111
0,101809031446053
0,0962855898090837
0,104227111140044
0,104043952703545
0,112402009324678
0,112086489379856
0,101332508162911
0,105009148983783
0,107136544642583
0,0991937393601482
0,104476263686738
0,0984121378621801
0,104147755502303
0,113475784546074
0,119204390731248
0,108224306634888
0,121328241815064
0,117774926768643
0,104478006519966
0,108265235587808
0,121496910651679
0,107859242989395
0,110087790492257
0,113414946402598
0,148064260306238
0,127844944824173
0,12912011930836
0,112898390991145
0,108227638075088
0,108691324348294
0,104400192177118
0,110354459701505
0,122903269513542
0,118590030156376
0,105382770351541
0,113518383681651
0,119603575638744
0,130044987065868
0,115117248540992
0,115964847234513
0,10803050266422
0,116516802802766
0,125835449501158
0,121013409926025
0,115507277995969
0,143214649082743
0,155812779444062
0,138588517656416
0,125149899646537
0,118212992829415
0,153587617085861
0,133014320034824
0,117122324494556
0,119598081139104
0,11821316015842
0,122618842133496
0,128433325378344
0,152151286513437
0,133630220039537
0,119374734217646
0,128073189400828
0,125361667600776
0,146138622533627
0,140347497006609
0,123763178688749
0,126427187859219
0,128162199381939
0,137511116165913
0,168293486757864
0,16362816520453
0,143447187647733
0,168714135354993
0,155105063185342
0,152759288786818
0,145657972504187
0,140662205569272
0,155350748445862
0,166934104885192
0,150177142341895
0,142605533136981
0,165999766696033
0,174798411643206
0,152075371174504
0,152070398277208
0,155396056302266
0,152857143777232
0,208106563350366
0,223602770065181
0,189147064260624
0,164532228690106
0,169890673631896
0,188714592426425
0,171325123118606
0,160333802692584
0,168944492511556
0,167853736685433
0,169486538945853
0,173628796661455
0,183617819440289
0,178410085697774
0,17918627953204
0,180706122511551
0,184535109732337
0,214392089854063
0,24858539374113
0,228462497437755
0,211894088289654
0,232010673647095
0,229699638191046
0,204567434828502
0,202950144364473
0,195479086915482
0,216321400685345
0,214112217779097
0,211418196989735
0,216485100054293
0,24385842422445
0,24777480208368
0,239003159222193
0,24964507117434
0,238326416285708
0,242996305847056
0,265234243337383
0,369500957579402
0,301780093510983
0,267782475084642
0,287363933065655
0,287005176055999
0,354408989528331
0,295350992139208
0,290441100066649
0,295790797839686
0,300197393705141
0,307506156040455
0,325133184658619
0,331348928162918
0,347486547860839
0,339426096038376
0,347829713524748
0,359219012998666
0,47596787711117
0,438219693524402
0,40610878046946
0,382222007866359
0,416113855745217
0,420612854589882
0,416954032723447
0,41813417280569
0,432848112850034
0,446334422481424
0,520162314037897
0,466996802434909
0,461265998624964
0,478567346712805
0,517895767799766
0,487356413471985
0,549683258166613
0,553335504195687
0,524554676432909
0,535633934931488
0,536001333096866
0,541456180683666
0,551540777444335
0,59633669706076
0,597902527040392
0,578778079317096
0,597682338885907
0,59513077497339
0,599581323450754
0,605674728391094
0,62061712305865
0,620136324702353
0,709142250808817
0,706876640461135
0,895222298460055
0,720401324817945
0,654149889014023
0,646693731791958
0,661891209438219
0,700935056095154
0,701123456353035
0,704230901922675
0,71793749819229
0,673091482948661
0,684164457676928
0,670053863742909
0,676305939884175
0,676790666406306
0,690068101266465
0,67557741057785
0,718704964816141
0,690314062305501
0,7683179996174
0,785741143762436
0,698063869336992
0,671842502423473
0,678257721302393
0,671223430466729
0,664963769317631
0,654725179789502
0,685639799641289
0,695292398005191
0,653917974649844
0,653295667171091
0,647611853977074
0,665404427705751
0,676683762357813
0,627995292389739
0,621387908556543
0,604769729637278
0,612604096378653
0,595455532538878
0,628177564878535
0,653123331595659
0,597034754284946
0,582252961591917
0,58201204838734
0,564678756679441
0,57495184858138
0,55862336612631
0,571092768590767
0,561941291022813
0,558333638776581
0,553641875410369
0,546326341202873
0,533968055240065
0,534125367261806
0,528667476587026
0,530923147125268
0,518638617903919
0,529573900368852
0,520534499121177
0,529409384566513
0,505968310400906
0,515253359397543
0,50540766069815
0,514347710635037
0,514383421612611
0,505630811132449
0,489085479846417
0,504009217786832
0,501648014813811
0,50830296680818
0,502814313624298
0,49712309520291
0,491916238221675
0,496182384258539
0,48820879505881
0,498680006173441
0,488721834017147
0,496286646489355
0,489951775132522
0,494223185292309
0,482959322951156
0,495708245547875
0,48235850699607
0,570682253171184
0,508991063748592
0,484914273314865
0,479199126375684
0,476560810312511
0,476878541773523
0,472051954880627
0,532922423122254
0,508298193113117
0,46436838046773
0,463455818125281
0,460000056218425
0,48825045231085
0,46873271919402
0,457052693207087
0,453712732429913
0,436883936952733
0,495944133661356
0,557098472360969
0,536293305791863
0,556540515894009
0,468292116703415
0,442594158718636
0,467412684631723
0,499385064646091
0,43168465083081
0,435311819528418
0,420892621700583
0,482180078520354
0,441859335399923
0,421800694186805
0,420498158973378
0,415772336115424
0,44491910246268
0,460181407426144
0,42676599078878
0,437697821134456
0,460676586759856
0,44382950355076
0,470639883377754
0,492007621800117
0,430404552530385
0,394870917926937
0,389467001772398
0,393038429331625
0,393745929154942
0,459019035169286
0,393240815160041
0,393204037188123
0,370240366634279
0,371722552666151
0,376296019679244
0,392398360378227
0,372295466898747
0,382869685645681
0,403563891264407
0,355012615340058
0,375299596953506
0,39064952277678
0,41912377498537
0,420699894075676
0,361810388564848
0,342689293627751
0,397317051118198
0,412861954729386
0,365571763986606
0,36446428642875
0,32467761274699
0,345483748164503
0,350505496055554
0,334554337083695
0,354666048297744
0,360408513900527
0,363123268299766
0,412954264393603
0,422292870783292
0,399605168991225
0,339296350254968
0,317704225215708
0,315219444652981
0,325527242179786
0,319111164586491
0,313519466196787
0,360778775716756
0,329897058953107
0,315004030107609
0,369315769248178
0,330254366740483
0,32019645807003
0,320194402723028
0,31834907510103
0,329563501415081
0,36739988721659
0,38677061706104
0,346564175287552
0,353771397170335
0,370692406462561
0,346531263103805
0,346483065442594
0,341580742331154
0,352438858807803
0,356575949154748
0,378968311394828
0,367133886086236
0,369569542482798
0,373573797659326
0,380281408626325
0,410102594983646
0,423556585146388
0,394332285307169
0,448961687007579
0,443003810601755
0,494089503826013
0,449363254305066
0,443271288193146
0,44250104755309
0,448775646403532
0,45664916997602
0,453823651369036
0,475963624283459
0,510477140005861
0,469846391425087
0,484018293376574
0,479297105494358
0,494875923991855
0,485324633987128
0,547050316019519
0,515702952546255
0,591994937776361
0,557566748176939
0,538022721448858
0,517300803856684
0,514122017234907
0,528368522124514
0,533218028457379
0,518607309771848
0,524681513438937
0,526773633937152
0,564082424253105
0,534448564355725
0,540730661264788
0,530387930584322
0,538539566811536
0,537295884717267
0,545228745754623
0,543521082703977
0,553069056935006
0,549548272138256
0,562593841216816
0,551635119488246
0,670238916310659
0,576612532663636
0,582122180420231
0,568850760065262
0,585881251913103
0,580771145005301
0,581627867236109
0,619530514982071
0,60397071678072
0,592871721333716
0,613723068515315
0,597460006579616
0,610274431886159
0,611882311717587
0,650173593123645
0,607183735051682
0,632654288709651
0,607817047927559
0,699051170028375
0,678239349449237
0,651751149747027
0,657149198590488
0,643034089892246
0,642685900295699
0,650840530009795
0,638900860759979
0,64987549043672
0,652812443140106
0,653894478136933
0,646749491898074
0,647840260937811
0,644469317091858
0,644185959351225
0,647034801671541
0,681381279799112
0,646896590002342
0,65280718852096
0,647078429807689
0,655358590016228
0,644343598348703
0,683119275696175
0,657449075016797
0,662805356008418
0,657299423166083
0,661042147759048
0,679531271415875
0,667413681178357
0,634869497808136
0,646307512742594
0,64519891588008
0,662707716895428
0,638055817750419
0,66363413398724
0,694717090151205
0,668177416641658
0,659975497943313
0,669701998037494
0,667389795755083
0,66607264457394
0,669909854114198
0,672406578403551
0,676298820161655
0,67690284274405
0,68628019398788
0,683674206971801
0,687789209778487
0,701530360808284
0,707525170553787
0,718384462589114
0,683871234993354
0,697817532561461
0,680385438039757
0,684786006220432
0,681543890128297
0,686415726004623
0,670834295260271
0,675581156578216
0,657250978873734
0,65948553826664
0,698750997851557
0,649864858427886
0,663959482268574
0,647892961473148
0,638512464001611
0,634698713984206
0,630404949184566
0,625605698682476
0,623432498321003
0,629369655273551
0,611805419172732
0,61853987923841
0,610313161783145
0,611549948303019
0,61368767917758
0,614647721934596
0,610181798135293
0,611368111941597
0,603149157998852
0,601316939230975
0,60992805734267
0,609599031781442
0,594234955878369
0,596232227264686
0,624706651350013
0,627843604721785
0,626247444293633
0,613105039822677
0,598928708780689
0,60769538946573
0,591316997864752
0,600446700773674
0,592829564764479
0,603230032235889
0,59415308985025
0,605851709518731
0,596942147237533
0,605453536167807
0,591780556171624
0,600554182109227
0,595365302317689
0,603738804145654
0,58969633709759
0,59499529008541
0,589622649563065
0,593708734002983
0,593647437970217
0,611355474656069
0,594235287218441
0,599692195381248
0,58717368804539
0,597714452661444
0,596505655427797
0,592645414987857
0,604859001242844
0,586634581244971
0,58893758523898
0,591408411226846
0,584450738142608
0,594977047193689
0,593941399451835
0,58993353027084
0,58243446973846
0,589822644032881
0,575768530615889
0,582766167258366
0,57005780251579
0,572194622017604
0,566765489592043
0,567862066020367
0,560572902098763
0,562315256855439
0,553396078935593
0,54993291929475
0,548586053845869
0,541445100928154
0,539549628733625
0,541737388278577
0,536784545724142
0,533292955925389
0,532907779830317
0,530444869288077
0,523104245026475
0,525206719005142
0,52081414647359
0,52120010354455
0,524594576101883
0,520772522296231
0,520954606512849
0,520122994012798
0,519407077128859
0,523039544843857
0,52140147666604
0,524824324791416
0,524253488012262
0,529413759401743
0,528408687742202
0,528106744307232
0,532632686699665
0,533761506126224
0,533983085282203
0,536599107511308
0,537793340687176
0,545421779500572
0,542960817985495
0,548657372481491
0,544442412922605
0,54586834229314
0,543265483991897
0,551192522202559
0,547326097191772
0,550834890007012
0,552329959392028
0,556851706307553
0,555004289458603
0,547593251686459
0,553062505247212
0,551395186690192
0,544058860463846
0,549854094546448
0,545622734956761
0,545771955901268
0,543955453766503
0,540815068873594
0,539404535431667
0,540745218515648
0,536890459985752
0,536382833176776
0,529537721891206
0,534698622545882
0,527837450286677
0,530212840548343
0,524192293737181
0,526996159633192
0,52057690558058
0,525339935235613
0,519870884215393
0,51875893654249
0,518464748043493
0,513801115850605
0,511751443486848
0,515407636755058
0,509058756172136
0,512234368262617
0,505781597920921
0,50640983669746
0,503175197984552
0,507543208384395
0,504473582233372
0,505575510347951
0,502954059975791
0,501593974741112
0,496969188349462
0,497526014878514
0,492104916865989
0,491342367354723
0,484789870829057
0,484541765390156
0,478459415611908
0,479408834410133
0,473765749282073
0,473180246206101
0,467389280005404
0,470073392543954
0,46176116774581
0,460456300442797
0,456106968838634
0,455727119855853
0,450007302561845
0,452801095217041
0,44758525356699
0,450111332651407
0,446030284663777
0,444914119492783
0,44791276671669
0,445931149995788
0,442038536060368
0,441012642621508
0,433519402628387
0,431358190929977
0,427309120922417
0,425306896987003
0,422279012585148
0,416905591903473
0,407702024075621
0,40657590332657
0,400985133757374
0,398914259136369
0,391035527400492
0,397784463378885
0,392327155162053
0,392653220499948
0,392920981153486
0,396387636057546
0,400624646873052
0,408555019217086
0,415517852575514
0,423264200464294
0,43597050690251
0,448690071610538
0,462744754642858
0,47363524571862
0,490386468878878
0,509326659818695
0,522995166605695
0,53980135742909
0,560343481575755
0,57900723631104
0,593007205516287
0,6122414850501
0,623761279498993
0,642253038618558
0,66447577424337
0,680891221222519
0,696040589016517
0,712570257027183
0,732688619126812
0,740452086550397
0,751479656014213
0,767749550113139
0,785961407849562
0,788340225072522
0,801957169712914
0,810460621525431
0,815956008076299
0,826969105332304
0,829860522487938
0,833161285707866
0,834127346302391
0,836257494978387
0,833791623855236
0,84013043666091
0,830666776964633
0,843925323309778
0,83662508617252
0,84320927663584
0,837207580364086
0,837647365181338
0,840442423043138
0,855424548168876
0,843899067521145
0,845838593389526
0,85551004715816
0,850517879956907
0,859593912257781
0,853689299847528
0,871030182126778
0,876402669636378
0,879608677290654
0,893333437297681
0,904709314750742
0,913815744538295
0,917165452859432
0,924336198644691
0,944162299702646
0,9471948320063
0,967079424810865
0,979908459638416
0,991429443561078
1,01180091971802
1,01963932815798
1,0453899394101
1,04643565286097
1,06199038793728
1,04694657291209
1,05128573928889
1,06212809601897
1,05787291004157
1,06025527602469
1,05580624399604
1,05890654011089
1,04084455856919
1,05309476047317
1,0366964114953
1,041358084503
1,02911983313199
1,0398296149186
1,0388452233132
1,04354197492643
1,05698578332459
1,06382981844273
1,07226069153355
1,08063145705165
1,1032964115228
1,13209861574857
1,14211229719542
1,14096499097411
1,1568525035179
1,18771536331397
1,20130974661445
1,22058343327903
1,24074977238421
1,24600558053293
1,24319798769239
1,29599108697291
1,30110770315495
1,30547696245841
1,32885319808103
1,37098445794844
1,33928085473102
1,39426118501474
1,38811081537362
1,43952085415298
1,47550773587223
1,47351899451685
1,50190451731065
1,54718956649032
1,54994314567717
1,6166497088609
1,60201816252112
1,61580866068673
1,64338568548598
1,60656904464974
1,66317639842475
1,70497501893691
1,6538623838417
1,69880000243147
1,76108852038052
1,71096322636635
1,76953014454817
1,85203557473168
1,70019726809473
1,70393723461454
1,67742579836302
1,72600298164998
1,71419956957418
1,70284237638734
1,6690495179535
1,74270516573557
1,7393541526842
1,70116075967235
1,68066121853435
1,62660648273789
1,72306360669592
1,75937296043455
1,78927384698807
1,87037678404257
1,74388998644024
1,76124830172377
1,82894663126459
1,83975271691157
1,81463396513374
1,92693323451476
1,92254803164141
2,00630704139042
1,81945593031087
1,91954339161789
1,91617447530548
2,05731281570125
1,95066210424672
1,88343368855855
1,77380532004457
2,27452194193363
2,01472289736186
2,02589578789825
2,07224890671108
2,14357267358885
2,14627795682458
1,90962914274446
1,9100557260561
2,11506976784977
2,00026134722515
2,11945492093816
2,14123344973681
2,11870787548651
2,18846653491544
2,28161520290707
1,96926466829339
2,04472936265944
2,17945258748101
2,02572105688281
1,96642346812364
2,05105332810628
1,97749282440923
2,39654081009193
1,85769784373697
1,99756486353971
1,74098101418298
1,86370915471704
1,78696296502965
1,75432778328731
1,6367667460629
1,65845420144554
1,61861659266399
1,60971179492273
1,50063612840295
1,54412139496016
1,4960682338332
1,46902456451841
1,45875817806807
1,47611751597472
1,45907183446579
1,4746023986731
1,37275883286519
1,40043235105459
1,39486475069774
1,39702764991389
1,35248842230809
1,37447201024599
1,39074553648327
1,34403197336966
1,29544793889141
1,35031367961626
1,29112032485897
1,28130845248843
1,26584729424476
1,24830744778634
1,21902451897656
1,17486414722212
1,13533583924283
1,09264262944204
1,08695389871842
1,05777861843713
1,00512909921743
0,97321305817939
0,934369543278228
0,920784151720029
0,86959378306505
0,833917556091799
0,810798499870987
0,791437434933146
0,765604281465124
0,735272983515825
0,719368806770471
0,696559425602245
0,672617897499921
0,664753991551228
0,647498467119564
0,642670707713476
0,618469976001108
0,610266507216741
0,596120409408255
0,592139975145365
0,58819309773007
0,582302363587985
0,582818558114419
0,580642635420266
0,581131498690078
0,573753099265993
0,571142543042248
0,581467770285295
0,579885098055975
0,587727038334412
0,583929722085947
0,5956210782957
0,586852491834064
0,583875944313377
0,586522853632774
0,59491901202609
0,585803019292681
0,57905246765469
0,580504812150229
0,578130937094308
0,567085652963481
0,569835711198926
0,558368876817294
0,557906194578142
0,567030740033684
0,559537886254728
0,546893830831586
0,550434296679612
0,54901160432184
0,55395659472722
0,552775941460238
0,554866082953387
0,556004460195153
0,560696837299727
0,566954655637242
0,567713518343411
0,568488701782535
0,562806111841669
0,563533984645939
0,576941612880319
0,572469676897561
0,577116666648008
0,586927279484961
0,596814658701212
0,58872320956709
0,590157453180496
0,590405185019126
0,604329029555021
0,601613763612692
0,591979838172473
0,586628635104708
0,6008010685307
0,604892289784746
0,601803348646091
0,598300530887099
0,616085876472494
0,610346627962868
0,612653008358164
0,615596174754785
0,621222800476613
0,627624990394465
0,634502763472662
0,650232962040621
0,679673825854203
0,67848573720997
0,693640620440533
0,702361496146284
0,734273052775522
0,748174309034329
0,774637149228644
0,758801603055102
0,783350037152472
0,766987050744576
0,760960296397292
0,764353880061544
0,760959545933561
0,743715529286733
0,739598688402036
0,733991753104077
0,733709676884696
0,72167805104548
0,730596241642629
0,714546999783631
0,725905794410263
0,715536949419282
0,722057812377396
0,708910749521924
0,722920869605823
0,710528475467835
0,731956445724596
0,724491985278049
0,738272277207232
0,72879506741055
0,722228402919451
0,721863299099634
0,742218215928466
0,705330755151303
0,704120986842587
0,692008128110099
0,705737706055359
0,699479843451403
0,693900797060881
0,702146141672281
0,692061439746554
0,667725487175005
0,682432176347464
0,677003563855683
0,685549490805358
0,676882577192626
0,70151180551559
0,691700548325461
0,680822476749821
0,670342129818134
0,680789036051151
0,675397070222127
0,684487431918081
0,673252797935399
0,684641893533703
0,669654524658676
0,676253170699414
0,674702829603663
0,681735091205887
0,685274390565051
0,672412560229326
0,663858602885933
0,66648779682895
0,657581982778548
0,672777413313093
0,676152061340637
0,662127553866899
0,656880043011582
0,659616780606206
0,669836606620494
0,673728379395992
0,65115800276948
0,688370095140547
0,662035954555718
0,663967299415988
0,685306542596247
0,669041900616171
0,651720973430811
0,686025285492267
0,689042309045023
0,683906519202115
0,663741867505819
0,683762003257688
0,67740896570255
0,684793925762827
0,689189515724694
0,683154223021736
0,671834383725051
0,72589863615938
0,708672541799131
0,708415935137003
0,704295810148631
0,709521405396052
0,704921367981167
0,691769871957091
0,706537540430045
0,723930772352925
0,694313866645133
0,71375865627001
0,723952144641834
0,742353519548022
0,735199398893396
0,763005557490777
0,743861361735155
0,767267026124484
0,77938583518567
0,794690129040466
0,805851945007436
0,820982151671781
0,807990674811729
0,839712707809358
0,809971011387607
0,860159393628351
0,857278766349066
0,882810203625785
0,847550483556093
0,884684676080995
0,930061212961751
0,949224222000806
0,920219206235877
0,954444856936942
0,94768121108875
1,08280364332874
0,981268940950329
0,993474397072015
1,04601125682653
0,993105942671776
1,00445827812522
1,07746362868071
1,02103326483451
1,02491806302195
1,00445832728782
1,07352889605463
1,0287574752012
1,10261396201596
1,10033155855604
1,04298723249002
1,056069426236
1,13121005073976
0,968517809715918
1,08561031454912
1,09614970749606
1,05231795671526
0,987466694966614
1,03544863549313
0,981302723075735
1,03146847507227
1,04624091198783
1,07068215677892
0,974422304911753
0,942160559270436
0,992068245284605
0,96152502927446
0,967406369983384
1,12717513829311
0,915423241080386
1,01993018276637
1,02414560160251
1,00871228412461
1,05250347254901
1,08467584301085
1,03037530497969
1,051126872162
0,971167774982001
1,00243759372515
1,00604420833017
0,96350533279374
1,02088415238091
1,02151996084933
0,910115602131409
1,03149444294363
1,05648199229579
1,1447214702995
0,919188049025654
1,00101339875817
1,00186816415583
1,00510405365977
1,06307455602713
1,1282858618548
1,17899263711981
1,07833016090597
1,02942753707178
1,08576295358703
0,995276832113828
1,14322193312627
1,07135803788015
1,07146083574322
1,03695308986452
1,13192306882985
1,09698191060408
1,1308167397149
1,17164165387265
1,1483976185532
0,95047221518072
1,03890194632547
1,05041405050704
1,14309452242183
1,20613376875273
1,23402960361884
1,1886232019995
1,1828769562802
1,26548977184137
1,59070568918503
1,11586208852317
1,05914198278486
1,15453013650225
1,17144073174038
1,07154233876745
1,25938519197611
1,28214831918937
1,30649808658256
1,26832593326068
1,06295690001606
1,26146984076375
1,28240110931566
1,07949986594574
1,30485999914573
2,00045118300614
1,52105894303915
1,3160870478121
1,34974210602832
1,11584184378648
1,21598100557087
1,28043854444125
1,32450318375435
1,56076263272868
1,84015948733547
1,05961636964614
1,35696888813471
1,27727858258011
1,11336121385646
1,00247266321869
1,18610630492445
1,576157509862
1,24237630814619
1,06987654726745
2,10257256471019
1,2855034928609
1,20336928744137
1,55502609665761
5
5
1,36382999396366
1,21354148944236
2,09591494801885
2,02145771531637
1,80878149240298
1,3688112875034
1,11078239487707
5
5
1,27078010043655
1,29371281389148
0,91002911393002
1,36573422216358
0,835381307754437
1,50004342358621
5
1,73567991339898
5
1,04859002156925
1,11704167682015
5
0,893927380666873
5
5
2,35586879533997
1,48777090888803
5
2,04013148331846
