3596
4000,36533379555
650,420452594757
1
2
2
0,0654364007614174
0,0670453069873261
0,0618369952104001
0,0601925641828288
0,0625729297412545
0,0606273157192192
0,0560855190348075
0,0640889580073393
0,0587009559724112
0,0664903325985199
0,0638630113726543
0,0640155079811979
0,062485926378116
0,0616908309416495
0,0587192903599992
0,069075075340434
0,0521090331505989
0,0692966519089593
0,0614285590381349
0,0630301461836166
0,0602530152309903
0,0639113328873168
0,0543652598583371
0,0625913783048622
0,0627541108562926
0,0632921637792704
0,0630682971373124
0,0679203098331568
0,0665945726219699
0,0649850831191514
0,0563882184341018
0,0635320471687792
0,0573593229237355
0,0651506539054382
0,0618159108395845
0,0591004836274781
0,0606293040900716
0,0659208778954729
0,0536121136169546
0,0657010491008576
0,0649231634747555
0,0547898600104943
0,0589265670291094
0,0631198086439475
0,0568665433328487
0,0715201946526939
0,0633775686809101
0,0592598248039049
0,0542395253245285
0,0744344077314399
0,0631567912764625
0,0588053291041362
0,0716147235446226
0,0762921372113547
0,0696566653966516
0,0800243473075787
0,0659979982904888
0,0603232248465536
0,0615916124583473
0,0680160393567352
0,0879660193118175
0,078604125878587
0,0672398378503835
0,0562020240161267
0,0615561330451292
0,0559926459589435
0,0560233165460119
0,0573990580298001
0,0540316230675439
0,064053671022504
0,056083020622968
0,0858734452514839
0,0691895848742808
0,0709334173566867
0,0752980112937726
0,0696496475564167
0,059813136070358
0,058776548370221
0,0529837155535898
0,0849044446830704
0,0787991948951473
0,0769975845597417
0,0628828874928452
0,0598741963614654
0,0726328043966651
0,0780579707239931
0,0528620137841139
0,0795422710547391
0,0808219665848638
0,075517640250624
0,0578681182184533
0,0598239373769511
0,0478980076047757
0,0619917765729904
0,0485682083784895
0,0560119020033396
0,0506531087912906
0,0746647128288622
0,0473612734564894
0,0795138026466016
0,0636863519955466
0,104608013754337
0,085777390023481
0,0821247467549887
0,119689557971215
0,0596947518707983
0,077550177103892
0,10456987402351
0,0891206654204413
0,0670141807617362
0,0532537016123375
0,0531350152879287
0,0635302742098653
0,0725728291773565
0,0539435097702313
0,103780762222539
0,0793660360677469
0,0678303757351876
0,0547913183065589
0,0631978036731305
0,0400998633022279
0,1204365182579
0,0814705700638508
0,0814280001097169
0,0703990459803192
0,0643636945300655
0,0581179852999801
0,125295593372685
0,0756307081184774
0,0750891793730065
0,0548064772868991
0,0668607753558527
0,0453925775134066
0,0785407727549635
0,0956662235074284
0,0750969830848003
0,0661889527980012
0,0652096547744415
0,0984734236265286
0,126207005325319
0,08313010610231
0,0717617349260907
0,0455016228815425
0,0854108830089165
0,0952803618559457
0,0799720931877697
0,0604545547540039
0,100812183477428
0,0697950111891245
0,0665154741947976
0,0530692054752559
0,0619787907675251
0,0828003913278485
0,0750389365240546
0,040253841966853
0,165748813969291
0,0912069397528314
0,147003481062982
0,099417218433908
0,0849554783779793
0,0692302632718483
0,0678026014243867
0,0593312027015572
0,0568756905797566
0,0602494383552477
0,0517200519286761
0,081700545703797
0,0829202839592927
0,0549567814723966
0,0755730103523913
0,104403199694698
0,0758048000005857
0,0626741726505574
0,138381004236032
0,0651185661905406
0,0783160671291162
0,088355945657436
0,0844810088846129
0,0403743160345076
0,0878192275253264
0,0705403276724621
0,0660738171261991
0,0615122134217339
0,0585069045811642
0,0605349831451564
0,0925896351562732
0,064588216415794
0,0740427481724195
0,0518517585243822
0,067259945260742
0,0819585754153876
0,14302384351657
0,0824040885111554
0,0826556113755866
0,0581308091579667
0,0519942820975766
0,105178888610178
0,0908106296062864
0,0636750345131324
0,0563631777170767
0,0468017359986145
0,0613592216119
0,0441838309484226
0,0721723603010903
0,0468627835146858
0,0645590789499102
0,0897615377190291
0,0826096574995027
0,0635674095472514
0,058004330446293
0,0626129565822177
0,063436437195786
0,122917935847106
0,0878354147639181
0,075810673880758
0,061399325585841
0,0617007041631114
0,0871591697491067
0,0698424548369317
0,0668223930000587
0,0531284290626341
0,0570315054685307
0,0530647848015516
0,0497336843412198
0,0537001115173358
0,0582539881033979
0,0581055171749678
0,0608369426037094
0,0495959514820624
0,0705153404767858
0,069212020436863
0,0608390729793802
0,0534921584763984
0,0587271049706198
0,0468499916867408
0,0818349227069608
0,0673648745754132
0,0621240742564035
0,0564516929619882
0,0578510259326635
0,0492049621287333
0,0667010423053669
0,0439067009395434
0,0646492323694429
0,0475863997712218
0,0695465246664045
0,0911213567855873
0,0633583317578311
0,0603357836924989
0,0481118257602363
0,0896971741456155
0,0684452575321714
0,0621437099194518
0,0453956722852726
0,065456636644426
0,0439500622995497
0,0723949514947655
0,0890346803738492
0,0702976451261258
0,0649551244775811
0,0839795497005139
0,0559279697841427
0,0666275064224296
0,050108626816269
0,0731363736779139
0,154819503991378
0,0699650773403098
0,0816429810557593
0,122544605388802
0,0776464416638531
0,0890317933912393
0,0612527923797144
0,061160240417298
0,206593100167608
0,116472225346854
0,06441653139807
0,0667526090833723
0,0843744490190863
0,0567750411506224
0,0820918602482529
0,0590501353487062
0,107503680507387
0,076563642481162
0,153401965006242
0,112587443117586
0,0574543525474519
0,121321938668967
0,0819154868233516
0,0744602832842349
0,0628750366419473
0,068555388910324
0,0608083672475001
0,0844063321227869
0,068435893201151
0,0963843753170962
0,0588271850738522
0,0733442540232059
0,0965824787693125
0,0660514531406796
0,056769193657796
0,0701716853966293
0,0727695044865846
0,05830520340223
0,054741111012299
0,0586107686535326
0,0770407459713475
0,0511144159491783
0,0804090716801108
0,129066774813743
0,0768215855856873
0,0771855403226711
0,10145056527419
0,0680399822117426
0,0578011909172571
0,057048976778923
0,0607219511546883
0,0590287497475953
0,0591438691102268
0,0587384533299815
0,0981511945203542
0,0620288126171353
0,0627188840565462
0,0550176658715488
0,0595151736685475
0,0567513324365773
0,064787974052551
0,0524103673034658
0,063201580720355
0,052341688970645
0,0519481649774325
0,0878065558062652
0,101620944134618
0,0476697894503806
0,121659731262476
0,0694791551326435
0,0756176853205217
0,0517889428161197
0,0641028059209929
0,0578269168311858
0,0586683236782356
0,0613728130139234
0,0583536883227921
0,0625929217917494
0,0837062041046097
0,0647827396849802
0,0696937140453124
0,0696547662509714
0,142388746535035
0,128456374923674
0,0861638176850285
0,0578188763748219
0,0433297859512933
0,122721547539352
0,0790048095757244
0,109280746340767
0,0898400381234564
0,0617769777410105
0,0645756866725856
0,0488578976683915
0,0579839063527361
0,0510231451635425
0,0680808054443282
0,0518845221868972
0,0663299177158127
0,0539666765942305
0,0658087439649892
0,0447402719663051
0,0736893517957799
0,0990397846176099
0,0760646005881471
0,0613368905549897
0,0661972913401389
0,0441295493781018
0,114174829178179
0,0828430291642243
0,151138078864576
0,0743143040072991
0,127550493021901
0,112087026707256
0,075076117669374
0,0673736665382902
0,0669963399925645
0,070192422526518
0,0697950325761429
0,064433286169272
0,0727142455942097
0,0539563871099082
0,0792172502191781
0,0697572013594095
0,0746992458871732
0,0625241252061131
0,0714443105475777
0,0955779041823911
0,072166951498902
0,0708613416808648
0,0593935570422967
0,0972194429230969
0,131890021302954
0,140260072342913
0,0798532541085745
0,0844824087636204
0,0628745444797326
0,0732314030665742
0,0662691168563727
0,0743112245068857
0,0817929463040578
0,0772173125247697
0,123708573165817
0,0915667276291211
0,118169093632842
0,0918008201760621
0,0730442541456981
0,099256483022347
0,0923057691101292
0,0850731923487305
0,114035061432855
0,081009937941868
0,0622846574799435
0,122562458695735
0,0939801441393234
0,108478424782686
0,11570176232775
0,0775256857444763
0,0798070923928785
0,0712472356460613
0,0942979321837137
0,0781007800346069
0,106956216243732
0,0806973181387549
0,0939664570492679
0,0964310798247252
0,0904986390732976
0,0839573379548898
0,121637956536489
0,0802211193186813
0,104204773094296
0,0924958606230383
0,0938085403721764
0,0983339407370273
0,0759791363717966
0,125111611404436
0,118613855492432
0,133717550152672
0,122593012413036
0,092255047495176
0,103510691069578
0,0885864270313754
0,101783749950495
0,0914314183232345
0,100474418238957
0,094733025513474
0,100423302385921
0,103206291096409
0,114124961129472
0,102480187535791
0,113941851656316
0,0957640173651496
0,0984796268535799
0,0931897172648954
0,102759581663301
0,10838055332166
0,103365277269139
0,154145618651748
0,130557929292297
0,156435714200865
0,151462351171156
0,110838236332353
0,12842536146966
0,116418757739782
0,107495594091913
0,0980391121302051
0,131541095539268
0,104289504553686
0,124622391375596
0,109800454525724
0,133397368866957
0,114713779226598
0,137843683216822
0,12128117561783
0,137066407901821
0,130023828977927
0,12303618986397
0,129062679618706
0,134968993501074
0,126840453256008
0,162612534539522
0,130820540807116
0,164707771406532
0,133607913022994
0,137013287974568
0,126477346227178
0,137273273907288
0,131518204433686
0,138092461252433
0,141889560971123
0,144199718463278
0,144193398170943
0,163462702379618
0,129993894650767
0,143245465423383
0,125164511626326
0,154598037567899
0,141377721998784
0,147767987024857
0,149234860503331
0,162423690228801
0,156434919345251
0,161813929130619
0,156336708777453
0,166834138964059
0,152667765414916
0,170106271654313
0,169200822837677
0,153862889338802
0,155900995185426
0,178885139075626
0,164094481181123
0,176931381414808
0,147576892777006
0,168191690964653
0,150675221357261
0,179901267204776
0,163672537010798
0,190456072027193
0,163572764139846
0,200710814024866
0,169783895895278
0,175534000560544
0,171400363172815
0,18359717039508
0,17178567193259
0,194855620160064
0,193868848956067
0,199633518071439
0,180685336648365
0,210512324622714
0,183027606855611
0,187740847154153
0,169764974206494
0,192708469398847
0,183312819197836
0,202994822081621
0,194606332762289
0,204125293093621
0,199586202699673
0,204439425784405
0,20240092649322
0,194522625756223
0,207128933046783
0,21056569289853
0,181850082467901
0,212108481881955
0,188136833930554
0,211680132354716
0,20404597715799
0,223353919698301
0,209161106447951
0,205093565937613
0,210695337927821
0,225454684443986
0,203308408931825
0,21061422189424
0,216835877879402
0,224811828222859
0,208358134447732
0,220966449707325
0,197268990173092
0,215087575924964
0,212883191617543
0,228964650176673
0,219883704239573
0,238786037229844
0,220114429043311
0,231756141778926
0,2275509075722
0,231870691561185
0,230498847316073
0,250914926051563
0,225688447857715
0,238316260479712
0,243715931829329
0,256550993005442
0,241036926609894
0,25007584252806
0,224991698565697
0,264556725730283
0,238285327015893
0,246444112499097
0,243271333857202
0,242615187807937
0,223785751487945
0,264833885357863
0,263581866129041
0,267855673437021
0,239508410565749
0,26350948875349
0,239122110029636
0,258364129843117
0,248737080451386
0,261022749599614
0,244900080136163
0,268583970897602
0,257536278176682
0,260893804827937
0,258551332403212
0,260266826323902
0,247298781561464
0,260357237313075
0,257989187507253
0,257653180725813
0,259083727446024
0,264547907979145
0,264427415632459
0,277746496417008
0,264633897887298
0,26736925361366
0,266804114128278
0,273478083236687
0,269670885584891
0,279946893226737
0,265006265639289
0,285469037151992
0,269948293893507
0,286036183744482
0,280495518344477
0,28528084852762
0,265564009687911
0,285012983757635
0,264110106933945
0,283621033872011
0,277146284216434
0,297191521510409
0,278503400185073
0,288020530046001
0,275166395464481
0,288593620224362
0,277577292657104
0,27968360946783
0,276082878262569
0,281742246829481
0,275447732171507
0,286552151207874
0,280824753448775
0,275913186498735
0,283075275398609
0,297838531933595
0,279566807007613
0,300969724939317
0,286884891812443
0,286397525306801
0,281927769418214
0,306026299417181
0,278597060941546
0,294832817190716
0,290632419039484
0,295474460358856
0,293279553870859
0,295829623344894
0,299105322448137
0,300812950643112
0,298766659302003
0,303165242557316
0,284982946622597
0,291799247844635
0,278356570555483
0,291475560787528
0,282115604417281
0,298108859074531
0,284979349289593
0,307464294080507
0,284662053195329
0,297543935933554
0,295947526675901
0,301235152848968
0,288736953347573
0,300073282882208
0,289870036008853
0,295219998156253
0,287822139172111
0,305210939658507
0,304044204280135
0,314674100960428
0,295610306920575
0,293124006660364
0,295816554273088
0,304647473808333
0,282697913926121
0,299131196630789
0,281519782801244
0,296808017811534
0,291613887323934
0,303241235311721
0,292974289773567
0,304931816640935
0,289644126658917
0,297252351094034
0,294038159394551
0,304887827508185
0,298040612622814
0,299630904646976
0,293372646867766
0,298185123683989
0,293746543123386
0,298686653525305
0,292546175091067
0,297665522022036
0,288959806868422
0,304552937392391
0,280970607601472
0,307500983898701
0,291999878726444
0,292130532189409
0,294531592381913
0,298791364786599
0,290107245748054
0,302088389457262
0,282441899671045
0,291784206719318
0,290837004121702
0,292026551767089
0,293381855116507
0,298907867820083
0,277294399419729
0,28815909582115
0,294127035462646
0,298229576776317
0,286067432579563
0,289570102486663
0,294781409578297
0,293919576455137
0,289250780035808
0,300087177937252
0,292467765969291
0,286146642685334
0,283802671190768
0,286668158676378
0,285625426149253
0,282830875691047
0,285214593438738
0,2949673586673
0,285839511782977
0,289704311754242
0,276499295993667
0,287555002684972
0,273160368410512
0,284872155242526
0,279344732130338
0,283109331480104
0,280672148245521
0,29278912880102
0,279347842250759
0,281605248074067
0,27701449073296
0,274687657427665
0,281987742887259
0,283301514694955
0,279865502023285
0,287752466836282
0,279315448239445
0,287020991219913
0,280400726013419
0,282721518724971
0,279659020378352
0,280686385391621
0,270489373358861
0,273208714516945
0,266545137934126
0,276044889722692
0,268866754518445
0,284968608281079
0,26550165453394
0,272107219035395
0,268292315551823
0,271859200620871
0,260095042192779
0,273724056322961
0,269289956189831
0,273923356191775
0,26655170149293
0,273253699145337
0,257284089494889
0,267713606577136
0,25976072514698
0,265752781033533
0,261745635186496
0,260145373882588
0,254545208277741
0,25813199202262
0,248388037987808
0,26127705087205
0,258159416677801
0,263028239867214
0,251003688531318
0,262027722787512
0,250952564981914
0,255495088033898
0,249498771640342
0,253303016655962
0,251856103696877
0,259850663130151
0,244632637368722
0,239411899259686
0,240347714846789
0,236916741161035
0,235151115071719
0,246731008680436
0,238916866852978
0,241470316470127
0,237873056746129
0,235880083202946
0,236187011877231
0,237721488072896
0,240161945045615
0,231760997638069
0,23204228633893
0,245547090161399
0,233642322447712
0,231354974268068
0,224907951414767
0,225195404828669
0,224529517598822
0,227185333392635
0,225084141696232
0,226990959118719
0,226619970205412
0,235788845774801
0,227019200756178
0,226171085188186
0,217928084871511
0,219061220426244
0,219945392622513
0,217069422311921
0,214130703111351
0,215629227246121
0,211093099874244
0,214802998556442
0,210532242188942
0,218433743453454
0,211315876017498
0,212799809927048
0,211797619049523
0,214430351103204
0,207993215114018
0,212581774831019
0,204928398205043
0,211898753957276
0,20501608371314
0,20916566282588
0,201739955005016
0,203516485527133
0,204452862223157
0,210363679557629
0,202608937437555
0,199149620113216
0,2015709879088
0,197772483197172
0,193694679092211
0,195839786069429
0,189612206159823
0,192117736741356
0,188973497659114
0,193666218052315
0,187300915317849
0,186650135096995
0,191297732033916
0,187166089933327
0,179666879749197
0,188234130243398
0,183668373194464
0,186200128472841
0,18401069067864
0,182670868428586
0,176032522727159
0,178992171910478
0,177457224877372
0,177616806252238
0,175204904702711
0,174206546170957
0,175218547000267
0,177606441138082
0,173506902157276
0,178074230279565
0,168166887243705
0,172549669473071
0,166325793809684
0,174031406149895
0,170461357030449
0,169276624110129
0,168707596115932
0,166898330410289
0,165396314024427
0,165402894730935
0,159739931553952
0,163084094776385
0,165557634785072
0,168954670967417
0,158638148497595
0,161421731934842
0,15888577109984
0,16353346711869
0,155811571437622
0,154940697347434
0,157352038837004
0,156962254944517
0,148212822219695
0,14873834351616
0,155150782637876
0,156754041946495
0,14860051030577
0,148428287091276
0,152633644464235
0,153534238495316
0,149243556247596
0,15467514187781
0,146038366031242
0,145712604236716
0,144973283525517
0,146814077611259
0,14326387356721
0,146122265081911
0,140343706329323
0,140639608343467
0,14316725462223
0,142350075744343
0,139061230813985
0,144657645033602
0,137000110553188
0,130114248571264
0,134360797335399
0,140217563132627
0,13305702154323
0,136946155150472
0,131029469346135
0,13090294922876
0,133641246791563
0,134163181003842
0,129989503260901
0,136949179454344
0,137498976738039
0,1296044773658
0,129877841791502
0,131017166933794
0,126378829747403
0,131498066553033
0,125879210869739
0,127971487913844
0,125215036999021
0,125574475259529
0,123960800364403
0,126263928726096
0,121507786865489
0,123054142693846
0,120825463993529
0,128171798102868
0,12578895400018
0,116390258644943
0,121035989568734
0,12188850247538
0,113136658728097
0,115148600652597
0,119142069641833
0,121902088228745
0,111853373377023
0,114715260850633
0,121053975283396
0,118130592900996
0,113609353620813
0,118560428525367
0,111896893141669
0,114947032177279
0,11189534241605
0,108858257056124
0,110330158222133
0,113174581910406
0,108464251259523
0,107423736764989
0,106960431239479
0,110091936305964
0,108414210252277
0,110584441673274
0,110632676294516
0,110360429132902
0,104081699379008
0,107332187004016
0,106112169577055
0,106594494574254
0,101732605923159
0,101748982685209
0,104785942113891
0,107512859230641
0,102150160250579
0,103688453981066
0,10316356485681
0,101763996942046
0,100477606998787
0,099323825154804
0,0937408982874939
0,0940111215273716
0,0982037849976738
0,0975045567086774
0,0988706567001294
0,102948739068834
0,09588981296572
0,0972706889466542
0,0979209048910196
0,0990415030224706
0,0934730590247737
0,0933703637337737
0,0947874204459276
0,0951603536680112
0,0946444416198622
0,0972183364902121
0,0932736232599441
0,0953640956982644
0,0936377480151832
0,0934970115435486
0,0923682947836172
0,0906784581645277
0,0923126419483671
0,0944257988643371
0,0941062605814362
0,0917905134422451
0,0887649572122712
0,0938930466714481
0,0869282924850981
0,0887274190639809
0,0912026070771652
0,0881211111772737
0,084581886828926
0,0864829326575963
0,0865122371473782
0,0858034418559828
0,0877279787179962
0,0898975988451849
0,086505857849239
0,0881494808705634
0,0869453090408547
0,0844574321930255
0,0853221233958338
0,0861516060115386
0,083315392206296
0,0826685738481007
0,0832534941640181
0,0846742739018956
0,082731392576921
0,0812255521337743
0,0820009973443757
0,0793511376503384
0,0792846497304037
0,0827227135660748
0,078214250870487
0,0803434887835846
0,0778222226458069
0,0813545448167357
0,0829275992177263
0,0813251665836673
0,0755405172266652
0,0751497773925117
0,0793940772016129
0,0781549860017842
0,0740782945581258
0,0768133015048448
0,076510690831962
0,0817120429224022
0,0795734031340668
0,0778189406798942
0,0753571915434766
0,0741406455000787
0,0756382925317231
0,0742415082672144
0,0776140628739021
0,0760915010184431
0,0743583605442552
0,0771470825078598
0,0769053797996933
0,0793908542583289
0,0767329481421163
0,0779685355483993
0,0793808293881585
0,0775990309733136
0,0708418767483327
0,073871996803391
0,0755962186694145
0,0797988879884344
0,0814733451336503
0,0761877850519725
0,0743149733520633
0,0767135825891455
0,0817621993832697
0,0787947551127854
0,0743098370937033
0,0789679973165372
0,0788981688520852
0,0779754090568227
0,0806622407599248
0,0800731292642481
0,0777528755952527
0,0788435828678425
0,082571818259319
0,0856362877422907
0,0839690015892309
0,0846360826030822
0,081504477963238
0,085335655056843
0,0800975835335625
0,083229149110782
0,0841012669264074
0,0835141118186046
0,0836301301826965
0,0856996476573082
0,0842617779069148
0,0846555577774098
0,0834664341624756
0,0820450402965406
0,0858122991354541
0,0847567701374191
0,0867815242070321
0,0854857664719774
0,0856878406696926
0,0900715161174701
0,0911985365327988
0,0919588728753289
0,0889418365271287
0,0844895046090133
0,0863358421193079
0,0882214045016585
0,0917868318582097
0,0926857968533256
0,0928242589264555
0,0916260150413454
0,0914279600936446
0,0940471738036242
0,0927508528212077
0,0934594398114922
0,0955787210629137
0,0998228000213954
0,0952602578908792
0,0927347007915433
0,0952333593616574
0,094478399245489
0,100525448421742
0,09829944470716
0,094934894739315
0,0971880584832913
0,101249612538431
0,0980876670233189
0,0944725158501235
0,0981233410626861
0,101329312537426
0,0991620136942671
0,0986433611757255
0,0973706826651962
0,0932878827195064
0,0918490802750923
0,0949304669358832
0,0977612619561508
0,0971342817109173
0,0943860715712432
0,0963942360444496
0,0998898852312238
0,0934346261091572
0,0943638713381741
0,0946867396932521
0,0969111656031842
0,0985659172991171
0,0959853876212031
0,0940391549834838
0,102223697143017
0,102411175458263
0,0979589922935762
0,0945848892087657
0,096338404829262
0,0984351072244872
0,0956437133055049
0,0958274416942524
0,0959055252773321
0,0965337376489898
0,0961653000558974
0,0973672005293256
0,0948001216942787
0,0975813696995484
0,0946865422230891
0,0950981446635765
0,0971273152144523
0,0989581764888857
0,0942969397447935
0,0991633383536002
0,0991697674548324
0,0967326085175149
0,0988453799590125
0,0991624605033911
0,0991848843085177
0,0954956419367794
0,0968793114304252
0,100024567509556
0,0990660882779966
0,0971237244656939
0,0979628849694486
0,0953530091194719
0,0946767498773428
0,0948076100203062
0,0944653186216491
0,0941871152367469
0,0969211571268393
0,0962907760892375
0,0950320820301759
0,0967523985190594
0,092551665852166
0,0909179214456193
0,0926895677423163
0,091883456810344
0,0901854668471482
0,0897267900428308
0,0886727882094024
0,0893404723986775
0,0893805511280784
0,0874859144322515
0,0887662297517442
0,0883856554475447
0,0862433739088422
0,0857667771021239
0,0838268740141944
0,0810442004601639
0,0784226493683243
0,0820026614135102
0,080339945352753
0,0796385298079658
0,0782747694047416
0,077432843094131
0,0785320683567024
0,0770244218686466
0,0751508556297079
0,0780359143491373
0,0731590148603413
0,071109436517823
0,0732933919528316
0,0742570754568195
0,0739589832769801
0,0731774437910187
0,0687692748984376
0,0758513636360963
0,0764644688117138
0,0742255500666843
0,071159822400237
0,0719255584332186
0,0721374812765121
0,0685054177157318
0,0712661105042668
0,0711680864238208
0,0702279029825429
0,0694506988907562
0,0685050157353763
0,0686510098475394
0,0700692758267703
0,0707308825479426
0,0701354468039976
0,0702979041421844
0,0677947370886256
0,0675115391291775
0,0714476969149357
0,068261478244959
0,0661239297138815
0,0651807534192183
0,065684218482306
0,0670357787085657
0,0653923130892448
0,0667375872778939
0,064222297139524
0,0643765176256031
0,0653822720479852
0,0642889394772357
0,0632321345629545
0,0652452881524496
0,0642661306118728
0,063663956769124
0,0613678034521893
0,0643404801139285
0,0630084660183027
0,0611177105259439
0,0623100839381139
0,0626348252949691
0,0636017537349265
0,0651258071553474
0,0633086818039449
0,0574943363440638
0,061813299551115
0,0600390892465043
0,0595331853592936
0,0572219252784701
0,05642648846703
0,0578451829619203
0,0573448444097767
0,0589208485985553
0,0606639880088027
0,0553309736220965
0,0593004348705249
0,0607302154939647
0,0555439910021046
0,0571445514888331
0,060680775494746
0,0573071461757421
0,0547888318783002
0,0554648538681776
0,0551941836780873
0,0596534896653666
0,0587576781529664
0,0606812922804197
0,0613103001695372
0,061173089018009
0,0536106151234009
0,055645085201351
0,0557341426680306
0,0537791279487918
0,0560067922322677
0,0583083984334157
0,0560518180706368
0,0545937172457119
0,0585729323027406
0,0562430446536418
0,0576359454009354
0,0565106144036264
0,0552444526068582
0,054452572820996
0,0523205186791913
0,052170319631416
0,0535419143179834
0,0529204943095741
0,0528443238141468
0,0536846478930322
0,0547460531107317
0,0562399193356551
0,0541314991424698
0,0521708633528079
0,0504294091147103
0,0517448039548088
0,0458816517596679
0,0520875571499929
0,0557785135245699
0,0535157471145585
0,0516518179165754
0,0517313580015141
0,0503471593093505
0,0516545667811728
0,0542610793713923
0,0518650025420639
0,0531764873277192
0,0560165091146167
0,0472680278603028
0,0508869193548287
0,0493680233314812
0,050157624896898
0,0512878893212598
0,0526970654114076
0,0536791439013891
0,0482312806364353
0,0501085748358069
0,0523873909562301
0,0479783411532163
0,0507602249736652
0,0523841215980289
0,0541611491515558
0,0514160237380695
0,0534327209027251
0,0501776236933572
0,0516144052243378
0,0516797046897083
0,0530175117042695
0,0496682249302228
0,048923014170084
0,0491229031066252
0,0508452552213602
0,0517503063199014
0,0544092250701969
0,0503908549065885
0,0482045223411051
0,0519982193139754
0,0515892180410842
0,0466366463295766
0,0478035015641562
0,0515199734701857
0,0495859232334986
0,04948115078735
0,0491699149686098
0,052024939382525
0,0500616709293975
0,0488256599217162
0,050631291196182
0,0484134585788016
0,0503874954227219
0,0492019868610753
0,0491841633517823
0,0475792398805859
0,0482223792536927
0,0469789364892645
0,0481390085084176
0,0503915358921956
0,0492581771296867
0,0472752547838137
0,0452774731489566
0,0484256947227762
0,0492796627833263
0,0464641600852598
0,0450259394380722
0,0468636927415327
0,0457855987559139
0,0451661467690724
0,0446546708155946
0,045353533767209
0,049649764434705
0,0444922430334955
0,0457898610723812
0,0416427069614117
0,0438652483141999
0,0446870717133547
0,0454942325173196
0,0451614640857499
0,043527412045467
0,0474276275130037
0,0445607719180902
0,0464951229384877
0,0435462009100389
0,0431605659287559
0,0454672391754328
0,044370095094591
0,0453415690566981
0,0426852420713482
0,0479221082661806
0,0440347760342492
0,0418534409893129
0,0474072008096285
0,0460828112104853
0,0428360224630458
0,044993957470033
0,04343785611811
0,0428375575377477
0,0445249007247966
0,0443670671202878
0,0453273816120559
0,0420884510535047
0,0419247196400765
0,0435643941712575
0,0431294973189554
0,0438645017859819
0,0410985812999324
0,0415895986568506
0,0457063581722852
0,0407903421544812
0,041678019661363
0,0391508193657818
0,040871773713529
0,0447082797635532
0,0407296145454166
0,0428180784521113
0,040722798941937
0,0417072936145973
0,0408907373906662
0,0413790662900037
0,0388675220288416
0,0420233320728145
0,0391452836884137
0,0384005525292701
0,0406684187515625
0,0372102543116293
0,0381291336997558
0,0403986037054247
0,039759563983127
0,0395485684395694
0,0370037443796766
0,0377381868301783
0,0402533744199166
0,037327563700984
0,0370613431022733
0,0388213142964615
0,0401969365966108
0,0383685723552188
0,0382641079890835
0,0365502093189805
0,0379205923000934
0,0407302169984878
0,039018647390629
0,0388577897159395
0,0358782308623047
0,0362109877726281
0,0396778392108959
0,0394476356885
0,0396590387774945
0,0397419342239272
0,0353977893677528
0,0373239898486695
0,0373915122880715
0,0382668929277776
0,0376016751981646
0,037063998681582
0,037109237746427
0,0359711833757583
0,0399066019785259
0,0382977722085808
0,0371360539586544
0,0376472827922005
0,0379476990883929
0,0383203563034542
0,0375338602585393
0,0374198456739484
0,0342100994239542
0,0367670397529642
0,0371549111697361
0,0351981336368156
0,0347547687105089
0,0349706008661084
0,0370748657071718
0,0340946349578801
0,0345540478280525
0,0358728077843655
0,0352658039746842
0,0353739752989947
0,0351333616355775
0,0349281944520959
0,0333770344041991
0,0349231642536494
0,0356061631184035
0,035041876094659
0,0368185936204352
0,0347384194840171
0,0318276004077282
0,0304047282606796
0,0325607536371662
0,0336770634315519
0,035243739990205
0,0366023467439956
0,0354769393283697
0,0293663488410081
0,0337115754142506
0,0358962068063623
0,0343600131740435
0,0336932001443317
0,0330324194295115
0,0352599881657796
0,0326947246924894
0,0322053362061139
0,0328211076401117
0,0326315904797645
0,0362039236887996
0,0309174063992184
0,032082257130088
0,0329237430994188
0,030268157972928
0,0323643522973847
0,0341122891025601
0,032356966656805
0,0301080248202436
0,0326852458861743
0,0350910894511716
0,034330859016026
0,035006415878539
0,0310130222056898
0,0312129154407238
0,0355903505827287
0,0357781077665276
0,0333091839646231
0,0335183987152683
0,0329437781046464
0,0327401534952224
0,0332197115497627
0,0319342380323114
0,0313989098650135
0,0311036360718277
0,0342408131519124
0,0307501694697562
0,0340574365548324
0,0336089121525387
0,0326199579422638
0,0332418836394296
0,030732444929848
0,0324915108869214
0,0307030783535069
0,0321184403623267
0,0281698410532607
0,0312874476509291
0,0338967398656318
0,0338455441765334
0,0302844266276044
0,0334127712714068
0,0340102815411119
0,0320229855858248
0,0297910134493654
0,0301346407613422
0,0297841645828386
0,0295768193515353
0,0281954504382246
0,0330634260586604
0,0283234260677227
0,0284288337332631
0,0293978210662898
0,0297958029822747
0,0319841432530408
0,0304061523384914
0,0330941437559873
0,0303365505414985
0,0276882777792474
0,029614800597074
0,0326117174169636
0,0289908356035528
0,0317892191227335
0,0337684744672641
0,0310297104357179
0,0303852881363637
0,0284424767225475
0,0296695504831873
0,0316591700011151
0,0304759619963748
0,0292477486018235
0,0278131020308058
0,0287784504412983
0,031000079496286
0,030973031997372
0,0301078609108275
0,0326673220021907
0,033327070279763
0,0311301608250955
0,0294482111975453
0,0290154131275149
0,0312512595150352
0,029386510904367
0,0309116827808064
0,0314520025220578
0,0288232459085084
0,0294949682328119
0,0309998937773886
0,0284227408019099
0,0317493778954084
0,0300201140840658
0,0284065888953735
0,0270945850768763
0,0305505351702066
0,0283969672045801
0,0298240017881562
0,0296470147151869
0,0291204008112275
0,0308937433446424
0,0301543271467393
0,0294236884874679
0,0275541998645547
0,0279652575418874
0,0282110184954734
0,0271168278265354
0,0266101158951143
0,0251179615126019
0,0286768236733917
0,0294475898822879
0,0269005408913349
0,0271817838792246
0,03065025706965
0,0252780649727248
0,0274216568538512
0,0259692671199819
0,0271071868660016
0,0265468439811302
0,0246995628631841
0,0260856174264324
0,0287548864343662
0,0269317029642302
0,0281333666054355
0,0251889144105467
0,0254461175986567
0,0247219739667131
0,0267083639983611
0,0262057408388891
0,0313033257950677
0,0264311544017352
0,0281724351784489
0,0270748992372947
0,0258395400540548
0,0283635027485851
0,0263300179254178
0,0257590401505872
0,0273961551072755
0,0281270323843399
0,0284175826616281
0,0275698103865269
0,0305527161840936
0,0237766708230875
0,0265111045635996
0,0250242368759412
0,0262899101067978
0,0255683254484445
0,0267800919758481
0,0252035195111445
0,0264159186420164
0,0249635234209097
0,0264934622326251
0,0251243588189273
0,0257671340077127
0,0247337845963137
0,0234929681357031
0,0245860633894083
0,0268524202665211
0,0232352283537553
0,0247030133574769
0,0252429227378035
0,0268547748883774
0,0225533874644335
0,0260003049851103
0,0234623125616827
0,0272420661044638
0,0214370180987252
0,0246810183731622
0,0243772903533761
0,0256522334448352
0,0233917100301986
0,0257374822853929
0,0245525549836468
0,0262464176512041
0,0225947813462017
0,0245355160057937
0,0224674432415818
0,025964108611208
0,0228054077910614
0,0254842436632408
0,0228669485077085
0,0224769096412897
0,0198343061552079
0,025230317695265
0,0245215331820692
0,026125946986516
0,0220320571995053
0,0246097619419689
0,0226715527590886
0,0255832719629626
0,0228011327115679
0,0255119717123565
0,0217220058742376
0,026353188870243
0,0216593636384092
0,0290021777854116
0,0224928909052283
0,0271612240138503
0,0253580401755641
0,0287732212622873
0,0260145234623343
0,0343105818674974
0,0283889543266035
0,0357227161544058
0,0355862940968629
0,0412963046274018
0,0347706497190837
0,0404578401010874
0,0364659806186421
0,0402394632654609
0,0364620134132337
0,043756205242305
0,0336475531081644
0,0365684622541545
0,0340944365557763
0,040898874851688
0,033097059258331
0,0436166100314863
0,0323330437502955
0,0419787740010148
0,0336201468220148
0,0430255313790107
0,031773877214776
0,0412189706821854
0,0407632387381164
0,0416431967056065
0,0303008211967421
0,0438948030445121
0,0289358266474498
0,043338802410917
0,0271919476645241
0,0414880344511126
0,0294241647772564
0,0412986096838729
0,0198878507612232
0,0453316116819962
0,0205069747377555
0,0422943004387215
0,025137181599185
0,0442952936014442
0,0157506587560848
0,0479044390076254
0,0218990302931024
0,0513611742184159
0,0135036606271706
0,0509844343795652
0,014360643936558
0,0580762584206484
0,0125509172167605
0,0539094777122785
0,00882684140573375
0,0543110456771586
0,0134294734357052
0,0628095383684052
0,0126023132672911
0,0616140819915931
0,00827480852148353
0,0574865126426118
0,0126019643417194
0,0622672578661484
0,016054641876307
0,046287224919211
0,024404921929966
0,0472998954052042
0,0353933233339718
0,0251682730112525
0,0448023586381717
0,0190116858591793
0,052104328587401
0,00433102884015294
0,0617647411069728
-0,00106216540018326
0,0629530658181354
0,007668140289158
0,0576507894860708
0,0102269104748248
0,0467625898334698
0,0190638431783739
0,0333437786321012
0,0255573682740137
0,0261749342665244
0,0267787433022335
0,0255959576092933
0,0271967849062786
0,0273888176877539
0,024219370970254
0,0307414409405432
0,0192100229206424
0,0303169212552686
0,0170930949105696
0,0292069124163556
0,0190894557974402
0,0270017876173386
0,0182336217775765
0,0251206134971699
0,0174488971476728
0,0241138317357492
0,0193749527909018
0,0247413336208575
0,0185551774135754
0,0236784776210625
0,0184265858434208
0,0223199144517722
0,01708232481328
0,022204788889473
0,0202770466753288
0,0251519318906412
0,0193556815024251
0,0244291224220927
0,0193649397951707
0,0250180273261416
0,0187265305304127
0,0238319605996683
0,0175199379937321
0,0225300012666745
0,0182191956407963
0,0225436343248755
0,0191199540240628
0,0229169246957506
0,017614637553075
0,0211313175237396
0,0179224240757282
0,0237498054299197
0,0191388565109577
0,023931217583197
0,0200850509510386
0,0236330685257136
0,0180930939414408
0,0223217664945183
0,0169463450012998
0,021431254750266
0,0189627691289265
0,0250668893015813
0,0176357794276748
0,0231509898436564
0,0192678577691969
0,0205598134362464
0,0203571024422788
0,0232377301202366
0,0177317355594743
0,0220894413141809
0,0187089029255787
0,0222938125673548
0,0184978848802739
0,0208352164827171
0,0191379037509077
0,0212051576349013
0,0184563955787113
0,0202270954840429
0,0165634344568404
0,020720120395624
0,0188045432410848
0,0219431295974332
0,0176092184924592
0,0210728638117756
0,0179119194568148
0,0216300628166309
0,0173934864864717
0,0194158787171182
0,0166334787460369
0,0213174094925371
0,0179787094956855
0,0194122288616064
0,0170617743809727
0,0202399060701838
0,01754269457792
0,0201279361742434
0,0171640863200414
0,0195211934610915
0,0176002696470216
0,0214566078311221
0,0185414703673308
0,0205277556504922
0,0189460258669074
0,0192835802389311
0,0195138286074389
0,0229389851923414
0,0203085341209505
0,0197118836870514
0,020204305731867
0,0210572844339549
0,0192141637670899
0,0193441067874535
0,0184102970867671
0,0214625002561893
0,0191881865342385
0,0199925912096451
0,0181836185979763
0,0220132873267304
0,0174832601794231
0,0194288196152757
0,0193450734440133
0,0190544136256629
0,0178244797006437
0,0204462974250403
0,0175696671737383
0,022638196411585
0,0197677351180873
0,0189277018610918
0,018549513563077
0,0201128783337012
0,0196936886730186
0,0191561338014835
0,0191290690263517
0,0206579606495553
0,0170833039670791
0,0189403892113548
0,0170212105105729
0,0203553730566817
0,0174217563225263
0,0199586703736429
0,0181554394007376
0,0170901525507868
0,0160575636887637
0,018668099278877
0,0187296654157143
0,0191088194794782
0,0179158026829384
0,0193971905731663
0,0183618122128539
0,018892650685526
0,0186835470998883
0,0203373753942371
0,0176453548793193
0,0188265962442927
0,0160804914081278
0,0192002214515387
0,0182066430390918
0,0194573183242469
0,0180089808855832
0,0202654746535302
0,0181516654716279
0,0191684395117069
0,0193589281152786
0,0180018691044344
0,019279823452576
0,0201276143172251
0,0185042211295294
0,0200217905300357
0,0216957231020405
0,0199235330281483
0,0198696621905671
0,0202189688311852
0,0187475331313661
0,020160349214936
0,0176751967596
0,0179477693169902
0,0207242075467785
0,0178842979878692
0,0190718124607427
0,0206072809430621
0,0185951527261444
0,0207377602875538
0,0189628910332029
0,0213180044522943
0,0172218915318211
0,016388334548101
0,0186834324225838
0,0199024498046101
0,0173313809929232
0,018858939286257
0,0172969844466675
0,0204629194028186
0,0182947748379072
0,0202793200459262
0,0179866042601968
0,0198037215450339
0,0165646455776351
0,0192438416024882
0,0184571169580891
0,0188563448912862
0,0175655751625695
0,0181640678047721
0,0182998926970526
0,0196773500724179
0,018574761845647
0,0184820856478998
0,0155209181272246
0,0181442948120147
0,0193108929210433
0,0192590243815737
0,0173385322578595
0,0156737160931121
0,0173130585807946
0,0191790157313639
0,0201443688547236
0,0183448262985936
0,0156664368875563
0,0169485243037247
0,0167677347197506
0,0167184804866867
0,0188762508031392
0,0192245004266757
0,0181246526532286
0,0202304096460988
0,0182631776786171
0,0187201216717998
0,0151111423383617
0,0169998825769229
0,0173975965175173
0,0175832462454961
0,0168045308470943
0,0179004829310965
0,0183325255362879
0,0179040118383601
0,0187170336490502
0,0168769280144977
0,0177327323899899
0,0179080679306967
0,0171285910312101
0,0176701288015397
0,0194289332328606
0,0209828948527556
0,0161907918707667
0,0167317881792585
0,0184602161639874
0,0160488735402816
0,0157124500268931
0,0177384263412316
0,0189302842097166
0,0176433466295554
0,016925288580281
0,0204103703967901
0,0175162873728176
0,0166514101843425
0,0179627885651101
0,0167454428003942
0,0177072749343193
0,0198267143073569
0,0163016718269626
0,0175767683341535
0,0184668527198715
0,0147049384259681
0,0157420815376187
0,0177678378338822
0,0171912086664402
0,0183909615427928
0,0168647541882165
0,0182997318374178
0,0187452654356471
0,0180157636016069
0,0198657856726404
0,0161446304488434
0,0177589365570041
0,0177918495381603
0,0158251949369502
0,016048732550236
0,0146198377063157
0,0179151682023366
0,0163607022900935
0,0172563278642405
0,0172481072597837
0,0163974068111285
0,0157620536750844
0,0164558688925918
0,0170228108171058
0,0187149275732572
0,0171569395705647
0,0155637945419875
0,0172287040189895
0,016269229343104
0,0177679851696586
0,0162793199645804
0,018146302367167
0,0212419627494371
0,0166240468144786
0,019208817564815
0,0167123465649816
0,0169504813609286
0,018739893238188
0,0187940929097483
0,0170401495385859
0,0173148512981862
0,0166723109404198
0,0165712415297434
0,0158937274410003
0,0179240318067459
0,0154033051314409
0,0165556119010172
0,0170391196972501
0,0152161552569383
0,0154908824514421
0,0187327605675296
0,0168603259486604
0,0164260049245692
0,0139006497935168
0,0157251217619278
0,0150164233729882
0,01974351269192
0,0183609270953071
0,0235799618182359
0,0218374131588282
0,0178800656364062
0,0151895323551747
0,0159605931356396
0,0171096611401756
0,0148236596882499
0,0154872432590471
0,0147986044022099
0,0187634548190662
0,0154479111045376
0,0147253944505247
0,0139125910739252
0,0151681352398385
0,0163541046600253
0,0150395410040072
0,0143002792173374
0,0166563856402085
0,0147543269370805
0,0167259542661028
0,0149204319540051
0,0155770216928123
0,0155538043101991
0,0140327692677983
0,0144524899987958
0,0174527983625883
0,0197943705589303
0,0316018285277776
0,0151633765141472
0,0174805630360412
0,0179149686920756
0,0191834657868754
0,0137342651988779
0,015290661372807
0,0146025563719568
0,0164941522371445
0,0138788140940929
0,0166166710544522
0,0175253981809232
0,0167445874230749
0,0160261117470253
0,0160978171233147
0,0136524367641571
0,0162747282960496
0,0158861459628413
0,0161047100920514
0,0155931228864168
0,0146506465418563
0,013524184363038
0,0154177346207435
0,0135651936901812
0,0151696690666538
0,0154746814390829
0,0250252497173382
0,0202029925512437
0,0165717201320279
0,0150953448637211
0,0129993706467906
0,0145889101475112
0,0128007050838796
0,0149165445900093
0,0136806370858213
0,0136220537863427
0,0140021040008107
0,0153603136907456
0,0146972392540465
0,0169888603081518
0,0166954366017923
0,012099308876488
0,0162499144324298
0,0150997121147319
0,014596597819959
0,0141585231068381
0,0118336001739361
0,0137799451588286
0,0135608428874902
0,0190718579194301
0,0157270829832382
0,017432717771946
0,0199586169305348
0,0363876115923259
0,0156082954545882
0,0148157088335664
0,0152157696393959
0,0135302342534178
0,0140186937214066
0,0126221212764537
0,0151493388767127
0,0146518422778508
0,0139386565689322
0,0144865570896324
0,014269288153789
0,0124540884509328
0,0141184650402294
0,0122320013407446
0,0143001863631925
0,0147888546467276
0,01589218032247
0,0152847361091146
0,0155474222439726
0,0228291568864542
0,0318913471086858
0,0239938033858619
0,0132217201105433
0,0166053802870313
0,0133273828787064
0,0285583956725823
0,0295752217697911
0,0103904287561684
0,0184354148443659
0,0105471994960886
0,018570012160608
0,0101967765204861
0,0167182182186943
0,0146433515808904
0,0252138513232933
0,0135036824602204
0,0199527478751572
0,0122282100606902
0,0159183098968676
0,0152821371400447
0,0138488727808369
0,0102715787503907
0,0162670394234447
0,0134854500503167
0,0140873737222664
0,0128518276670246
0,0141478838116968
0,0127336604634873
0,0158385339965729
0,0171148015486722
0,0230586944329953
0,010494417095791
0,0167199196445201
0,010187764748896
0,016653779246632
0,0178633666032228
0,0334301715701622
0,0148683656833621
0,017366982782181
0,0134790965793093
0,0136584425488166
0,0155188751244581
0,0140992084600286
0,0136824006198176
0,0127106150422363
0,0129141497272974
0,0143152021984211
0,0136377544896077
0,0127838093990594
0,0154879765298911
0,0113641532283016
0,0114336303052903
0,0142609860014762
0,0137894784097992
0,013115490789782
0,0147917140618771
0,0206781080351392
0,0270923007023305
0,0439458284476164
0,0247574795799756
0,0300533065092696
0,0180004984252731
0,0164731801363219
0,0119091200783475
0,0159827965610371
0,0118401389237076
0,017926800558043
0,0109655098743908
0,0164363767284708
0,0141823823071045
0,016692050219572
0,0107098395269717
0,0165955050739593
0,0111010754914148
0,0162019511253533
0,0120665067243104
0,0167876294042247
0,0123490346361201
0,0142869632376831
0,01149101708861
0,0224769349688081
0,0227579238801825
0,0166973835821894
0,0249824872107583
0,0353735573339599
0,0501780879042993
0,0177411355817998
0,0246536217035954
0,0111816801028724
0,0159749570008684
0,0126064322541965
0,0160737075219231
0,0182679654018659
0,0143540397455882
0,0127341197702905
0,0154805720336965
0,0163105432281315
0,0158132314007634
0,0143520810440659
0,0260792601730434
0,0484199711770071
0,0293658929511198
0,0140310133029264
0,0185747248652209
0,0242696539031414
0,0416497632452231
0,018635576076887
0,0140651341506845
0,0188223883956361
0,0115922021656602
0,0169562773829208
0,0105686707744883
0,0176747842461426
0,0181011664515629
0,0197266313462224
0,0116640838154059
0,0182030874027336
0,0116777009206466
0,0173077779307452
0,0193505997292633
0,0245435441787712
0,0268472422080806
0,0155642557324584
0,0188749213505557
0,0228834430739466
0,0130687114253989
0,0173212152483165
0,0124744058809338
0,0171633988419858
0,0242010254766935
0,0314256470888492
0,0201250732643904
0,0310926579727448
0,025007187902628
0,0140931152349108
0,019278959555417
0,0310658410715794
0,0156383332692511
0,0223702257028618
0,0198874484740553
0,0559572748906387
0,0332380226291988
0,0375494458776289
0,0190336235690766
0,0170665114686963
0,0164123212865332
0,012453350211363
0,0178509505574924
0,0290833908935001
0,0239960528798511
0,009589002991168
0,0189046473122658
0,0227475224767421
0,0365287093983779
0,0170183252109637
0,0214703899960782
0,0115420906944875
0,0212208864381046
0,0265048182004671
0,0249193690925424
0,0139548916169828
0,0454846557140034
0,057521400827912
0,0377243388077351
0,0252222007155148
0,0178574235045417
0,0490368410582532
0,0282650935760365
0,013431435577098
0,019727725924832
0,013108359709099
0,0188472474994046
0,0224040290558359
0,0483799569928988
0,0270773947384953
0,0128473658417184
0,0239777506703761
0,0187876831917218
0,0371889049317691
0,0327691007782608
0,0158123129685231
0,0175866964163056
0,0163542849705795
0,0275540065121778
0,04728688702689
0,0527534532122894
0,028801801845532
0,0585962585480277
0,0366410323878692
0,0378646733547814
0,0253509662976072
0,0260392570027043
0,0356277454012148
0,0435503194947782
0,0234980156710628
0,0181289161160051
0,0354826104671961
0,0474724061512796
0,0205652647831601
0,0210883284253472
0,0229386601523373
0,0214587475384335
0,0692188594177572
0,087783572156305
0,0509306863673537
0,0254691811476192
0,029414471365175
0,048546656196698
0,0294142867041121
0,0145261456587059
0,0191539930201073
0,0171568480893181
0,0167589861189506
0,019371377319193
0,0268179497516952
0,0238845368413391
0,0198408799790579
0,0217619999966053
0,0193717809366889
0,0551061326422421
0,0829446779777294
0,0671826539955023
0,040709751281418
0,0562302849320865
0,0544885405604044
0,0270710333522769
0,0243021856652482
0,0168334582911645
0,0317106027549115
0,0270069322448333
0,0216976348447527
0,0292124401905965
0,0443036527382667
0,0487790950213062
0,0416698741955595
0,0492728193173484
0,0302162675208391
0,0352858021162941
0,056171004717496
0,132097374976026
0,0780416693728066
0,0387100255782821
0,0613974207843275
0,0501351644425745
0,103991505584321
0,0489156944196841
0,03747123179031
0,0360897395944597
0,0319776797055781
0,0388193484862219
0,0496820072844971
0,0503802597016242
0,0596857013223292
0,0410199596938169
0,0510357199257781
0,0601197384305367
0,152482455303028
0,108994404305049
0,0710001916915779
0,0488904848006905
0,0775185688451267
0,0628706888463176
0,0533316451633903
0,0472403971826818
0,0593180656488588
0,061765605022866
0,10883031312384
0,0644572752738967
0,061506563026414
0,0740916749496541
0,0833305999641768
0,0726939346919772
0,0947009061535209
0,102858873230944
0,0689428654223672
0,0700914238018622
0,0633347689430217
0,0683963891763295
0,0680804832343283
0,0958316264756552
0,0935848095591743
0,074454681634975
0,0782385656474096
0,0705606909874928
0,0736241034718114
0,0760105013945117
0,0810915209029651
0,0831983337687736
0,130696462210651
0,165059712976946
0,231934805865815
0,123661454215963
0,0825107583638408
0,0839668731962639
0,0887607470582559
0,116817140333992
0,115354865668496
0,117799755452113
0,108428210357143
0,0755581993020013
0,0811098503676055
0,0760143100708547
0,0769282599466134
0,078437829662
0,0765012884990707
0,0741503438021901
0,0995014187852887
0,0940180959545641
0,110001288961239
0,144724728507182
0,0816543542868746
0,0736282225499056
0,0738875888467034
0,0647121778319539
0,0683331319512916
0,0633035117019691
0,0794453553314626
0,0868509972590948
0,0685607178896725
0,0634653848613971
0,0690426892599431
0,0814588396992095
0,0912072585966526
0,0653967557121883
0,0613965153999461
0,0561841828806831
0,056173294521444
0,0571080092425599
0,078063928665799
0,0973471049179997
0,0693055499379834
0,0509029816814434
0,0550592828204273
0,048010930112596
0,0538116398284039
0,0479667473708809
0,0576661467091755
0,0497920454083112
0,0542707757458306
0,0544838318868938
0,0512258653032321
0,0443714196667854
0,0489363930005021
0,0492831563817335
0,0536758060062456
0,047614375507134
0,0503691049205122
0,0416421971597967
0,0490943604229171
0,0417679608643803
0,0478165054097741
0,0437503886874005
0,052047259337357
0,0455271162064822
0,0459087695767253
0,0431649645997174
0,0485908622965745
0,04596287130891
0,0484144530511114
0,043256773854018
0,0435841004271337
0,0428945665207031
0,047683904530209
0,0441111223533377
0,0498393191450734
0,0472195021503379
0,0453908996752721
0,0451158389428196
0,0503935272698946
0,0457926239141535
0,0527694350537246
0,0575843832804654
0,10763695735662
0,0769926533258925
0,0502761738017512
0,0481781877559596
0,0481633074935815
0,042936383018157
0,0528093303486656
0,0917636838487658
0,0804014273184243
0,0509121765589436
0,0477214882250147
0,0456181472511501
0,0679955350476912
0,0580043462681293
0,0530258619740508
0,0501133939313315
0,0551813879970599
0,091033997473865
0,141269959522073
0,153886876315985
0,134956064687039
0,0685964796794046
0,0561990670781662
0,0754293514424586
0,0895167961915389
0,0542027245901078
0,0481326181337811
0,0508309597765554
0,0997917524975749
0,0688307695793337
0,0512585921897942
0,048541187135171
0,0545458214024241
0,0890279860453156
0,0914405385125377
0,0747363703121779
0,0842832227481874
0,0973239266855499
0,0952348316235219
0,12511010767902
0,138467550878233
0,0795585940791798
0,0529961226604825
0,0536108554721238
0,0559392648682426
0,0639639155454004
0,108213643013516
0,0695537746872391
0,0677667338006238
0,0487328753073408
0,0489985582470014
0,0566183081202926
0,0761049770585107
0,0583754450509797
0,0742066277885357
0,0900236897102067
0,051976029586407
0,0639593405941907
0,0849422956838979
0,106668980866075
0,107853872316774
0,0581921058447347
0,0501202868357155
0,0948306916549357
0,0975481470485549
0,0669272713885051
0,0680609442866352
0,0347501957703757
0,0548887958952704
0,0613551310658131
0,0491425876345273
0,0706697051012422
0,080837754109209
0,0881028548432408
0,127088126001519
0,135603340621343
0,100400860174621
0,0552878802956291
0,0363156706621494
0,03586511511903
0,046623039253452
0,0385747261646969
0,0392533560981901
0,0760257461869408
0,0514084833729491
0,0425982525499405
0,0806507072855575
0,0478300719749367
0,0335664564287211
0,0348090702835326
0,0338252474299235
0,0448160336966265
0,0749177583553138
0,0879834848704383
0,0532438071324116
0,061699986394437
0,0647758341930042
0,0433946683492546
0,0373683710023208
0,0352107676591897
0,0359299820084673
0,0431253136187807
0,0548069472103801
0,0401414134701346
0,038155670548122
0,0398238152513729
0,0386209350710025
0,0770040176664268
0,0652360234066785
0,0467320908872308
0,0839808438391315
0,0773767616622766
0,113117616735535
0,0648175820004518
0,0516423426171855
0,0476476685028957
0,0496806292806418
0,0509212863292237
0,0504754980868147
0,0722266014832584
0,0835284508907815
0,0524923689777359
0,0541976515636412
0,0485748006130319
0,0539435778558509
0,0603664510296321
0,0947120845796669
0,0898364915816034
0,138667060235942
0,108757761255714
0,086782840343308
0,0641444118109018
0,057948887661484
0,0699510196937526
0,0647184420503911
0,0557674760614609
0,0551014130174293
0,0663037262571466
0,0865522504240694
0,0607433744543931
0,0618344159764476
0,0590566065183854
0,059501767527346
0,0559578864166748
0,0617777861115432
0,0586955755192084
0,0624495627492291
0,059479436821794
0,0624302837764908
0,0729106918702596
0,131922986818153
0,0767930969143812
0,0708028984447276
0,0664512753197081
0,074015077092117
0,0628102649678242
0,0707395051963406
0,0898372624694108
0,0721805203422705
0,0673222618787922
0,0713838192095688
0,0642225948277572
0,0682950851935557
0,0857361226811413
0,0935553480773665
0,067522841885361
0,0803674374900335
0,0612544119841265
0,120012256724706
0,105554458866439
0,0982352632395918
0,0919924154755034
0,0808498822733865
0,0733731496643251
0,0691776585995559
0,0686567354786641
0,0748932950093364
0,074912409792436
0,073108131021291
0,0754793848800219
0,0694957136806606
0,0710633420710367
0,0684823988006109
0,0737341473153625
0,0984888023971223
0,0750321725538665
0,0751619594303686
0,0696519001396175
0,0724350157495845
0,0713245481470698
0,100977900407111
0,0867192979222748
0,0828554657456472
0,0794512875243658
0,0903980186278055
0,0978812894260081
0,0872924678354446
0,065284706089731
0,0742661136340169
0,0672741748217617
0,0724151426571545
0,064277108149039
0,0894855134018182
0,101347871609563
0,0805321469085303
0,070240819023335
0,069110067127497
0,0662551798545226
0,0708126073210045
0,0666029575463058
0,0701771884556073
0,0712083052853984
0,0745408109470009
0,0754237363510788
0,069576025728092
0,0738069670977632
0,0874671635247674
0,0958806819006187
0,0858606499036813
0,0707411065697952
0,0760435019803958
0,0666201759204375
0,0720139711130652
0,0734266368923802
0,0732981384412254
0,0652997030717204
0,0702307567535676
0,061548184701212
0,0753500192818153
0,0971511937906788
0,0728322543643409
0,0791773148074938
0,0625523858900041
0,0639978371009456
0,0639968125243952
0,0614892613485538
0,0571213943041201
0,0631604443716727
0,0672931756745632
0,0585461641906111
0,0598364165989399
0,059892653142654
0,0581449233014462
0,0576203098506161
0,0631683584187975
0,0571355037260145
0,0577755973340904
0,0587109573735346
0,0575707321997201
0,0552037633356147
0,0542166037651064
0,0542984976712872
0,0573192749890486
0,0788683155944509
0,0776941296261188
0,0819419494250526
0,063773403742677
0,0643165841232733
0,0629488277620577
0,0559950798026958
0,0584850151160308
0,0536865904073865
0,0564776562745494
0,0525913480147483
0,0601069921034174
0,0545855057753308
0,0591820163613422
0,0547733452864141
0,0594061111830806
0,0573457599565883
0,0588321285108611
0,0546264959095936
0,0589497269183267
0,055091690839407
0,0581769025508603
0,0555936506257991
0,0686281374210235
0,0595867195586094
0,0619855550299789
0,0573710150642864
0,0576746739972018
0,0593125718088535
0,0607455640780042
0,0636479535924433
0,0580782718971184
0,056643418615716
0,0568162570252242
0,0542854690744314
0,0592279782720497
0,0546840707973164
0,0558367162745686
0,0546137676407109
0,0555173557586815
0,052699188746608
0,057786014505426
0,0505290826961154
0,0539802304641289
0,0515358364408723
0,054552483322448
0,0508867809686993
0,0554022459301895
0,0503329828549111
0,0507437826387458
0,0486702172575475
0,0495554564113016
0,0482436111193149
0,050184975967116
0,0506111922003824
0,0509086579730827
0,0492734109984248
0,0535151425960074
0,0487402319689458
0,0477965542618612
0,0469393639146032
0,0501678925200443
0,0480583941621925
0,0473546096896191
0,0465606860713474
0,0500771271382047
0,0450396951089697
0,0480992173898406
0,0465252356553457
0,0504624514021723
0,046796672243678
0,0486609420592463
0,0466572480904415
0,0517872716440125
0,0498709035625149
0,0489951487665332
0,0516982101858625
0,0519052236811725
0,0498716462447327
0,0490816022660349
0,0498459108026146
0,0498272217425872
0,0504891860214858
0,0501012028890747
0,050375358016251
0,0499082811462095
0,0526019017681355
0,052196630840893
0,0504544606925424
0,0528078529774583
0,0515267922572886
0,0494701856741206
0,0500813302956743
0,0511508950122481
0,0505473059627768
0,0494060354710866
0,0508731753714765
0,0484147370030108
0,0489082499646797
0,0513625297047881
0,0489793070088273
0,049853587835606
0,0497359114778304
0,0514460953559768
0,0494564646820053
0,0514237244640829
0,0480299350300774
0,0480981096262846
0,0483470881155586
0,0491270583282751
0,0478321141933137
0,0481638482052495
0,0486804710925811
0,0474909405766047
0,0478771944243663
0,0485469109734874
0,046583720561929
0,0497547352882714
0,0482551173301292
0,0494898192263361
0,0463892857414937
0,0463402370823561
0,0465312058719555
0,048044879378113
0,0461390825126042
0,0467821752779183
0,0451056392104566
0,0453482735512771
0,0437861542920228
0,0464395381157344
0,0427038265399088
0,0463577017978672
0,0448578449640443
0,0442620204588409
0,0433471084527838
0,0437883618161002
0,0428821731685687
0,0434853478831455
0,0431634771400303
0,0444349472786012
0,0422289221090667
0,0437036570160791
0,0430831609439311
0,0424035485602408
0,0403435226749884
0,0407493117772237
0,0394700987161525
0,0411179282795932
0,03863697518006
0,0418560665367796
0,0416782255085191
0,0413401948359416
0,0399785733710638
0,0408936750754341
0,0384116353094252
0,0388910796276992
0,0380756176061623
0,0396492525311498
0,0394364355986802
0,0394662374618577
0,0382951405750385
0,0373782235958428
0,0370731895285456
0,0379682568045662
0,0357157313660942
0,0401739311226543
0,0362638172242834
0,03877336850952
0,03743805967698
0,0387477406097615
0,040769276631772
0,0419158701621295
0,0416621858488341
0,0430712218923083
0,0443204259054152
0,0472456302116013
0,0500329819248193
0,0531496760072523
0,0541842450434391
0,0576722857717925
0,0593710691544306
0,0610407957396039
0,0625769534794123
0,0665382589449415
0,0672630530270537
0,0715016515527205
0,0695009380419025
0,0746548288192369
0,0779940408607277
0,0807755122057216
0,0818871946037162
0,0839011508971945
0,0863444043289909
0,0866874747777327
0,0882467864092882
0,0931400907116145
0,0939472018852978
0,0953023336472356
0,0969896456941761
0,0961410199511053
0,0966515930873583
0,0991594206982896
0,0989058853653853
0,0977781793187481
0,0983639660304973
0,0995487355220914
0,0988688070534809
0,0994260345530898
0,098231446609594
0,0986748142680943
0,0984319130512514
0,100540960421618
0,0988989605436634
0,099469438543422
0,0981534121001575
0,0997012083317546
0,0990814469861138
0,100751089038464
0,101696178195556
0,102386333322777
0,103114178022844
0,104497913958804
0,104034647617039
0,106959647309189
0,106523601791201
0,109335023593132
0,110385387269224
0,112532160807259
0,113786169785852
0,11518381308139
0,116414046695542
0,119497567100459
0,11928015453457
0,121126979407218
0,122976673998408
0,12483866112763
0,12615117450946
0,126559142258352
0,128823150868569
0,129245990578389
0,129291207982153
0,126930175065188
0,129131513205888
0,129006853133207
0,128328248538427
0,131137292407076
0,126958556410414
0,12939328127007
0,129407767523516
0,130585672399178
0,12626459601085
0,13014125427086
0,129136168867914
0,131683003128746
0,131437333105434
0,135268732027937
0,137181436794861
0,139008654488435
0,140392275031017
0,146653262783863
0,148960806370903
0,149524105927957
0,153588856272544
0,155292519854068
0,156352842828941
0,160598588264292
0,162897750478205
0,165787194931605
0,169012044597552
0,171209222581603
0,173800007747619
0,177732013922241
0,179610755522589
0,184566923878894
0,18521148257009
0,189945098778504
0,190515703186966
0,197279675290878
0,199169230540435
0,201831152030993
0,203289197432671
0,210160687898863
0,209784051979949
0,211296936846559
0,212382606551089
0,213324539182163
0,215858786595678
0,21745814167054
0,216827475255641
0,219909075882663
0,218328802401221
0,219317236765001
0,218509014221793
0,21690273039878
0,212317530622425
0,210355150102935
0,211981154517593
0,209862179360027
0,211733842538641
0,206028971148732
0,203547145646079
0,202382576492307
0,202495965194168
0,204466406013633
0,201345732956322
0,203929474699775
0,204811529610498
0,207200049662169
0,204981549924566
0,207725914186258
0,208533874518316
0,210722272262228
0,212000121859164
0,211887556499212
0,21250511467482
0,215058689143692
0,21405642294141
0,215600662366332
0,214762139775923
0,214710679466899
0,214251499030116
0,213086510459063
0,212432596640991
0,213630847252012
0,210983254729531
0,210547662877996
0,208744120596846
0,20587041151302
0,204590193241249
0,210110567237475
0,212631644908572
0,205216207401423
0,198137943303371
0,19580419692478
0,196987244952359
0,195327739161115
0,191667372886107
0,191106961453153
0,186565176848598
0,184017465622737
0,181924775228635
0,180207999492947
0,180386469335098
0,175182155909562
0,17288977940762
0,170063558390474
0,162936080934113
0,159665913284707
0,15635483281946
0,151578466409219
0,145051031839867
0,143761739376598
0,135922054700567
0,128306419853235
0,123676671976128
0,11843832664819
0,113357201709851
0,10706117372533
0,0993946492904436
0,0989324256811243
0,0918830839200126
0,089332702668116
0,0862027899471797
0,0849177834639891
0,0846677490160617
0,0828663183148515
0,0799915612545451
0,0826922007109615
0,0811943870431254
0,0800776990075459
0,0805963751085351
0,0785621209672486
0,0778780688163843
0,0776221639857531
0,0755898459165295
0,0734517341082833
0,072227302748968
0,0652730012003862
0,0675269982746851
0,0680675273447607
0,0656539041719992
0,061927427281044
0,0596448676293001
0,0592704075985546
0,0564432891900426
0,0538321270243852
0,054223881269612
0,0496491964222577
0,0465691026519722
0,0434455321295666
0,0418653371069913
0,0408594373412157
0,0384631510683585
0,0358837098976259
0,0357697571271675
0,0347915607974565
0,0330424051099838
0,0287867435659643
0,0268849206656883
0,0260011895006113
0,0268672920142928
0,0235111977199344
0,023824834503388
0,0228288062155858
0,0219894653477605
0,0213890564062755
0,0210979196926526
0,0205528660413684
0,0180272807775843
0,0210214956587731
0,0153185359863529
0,0205251233544534
0,0165702681194988
0,0182650298158052
0,0197640189717788
0,021665012727732
0,0195570882216292
0,0176154509787828
0,0221128596680928
0,020363129824397
0,0208567075719628
0,0226331444897901
0,0185830686237768
0,021038135272428
0,0223864113446392
0,0239310481588629
0,0174484961882328
0,0213800678597805
0,0222671220653409
0,0196940165966375
0,0202110966349647
0,0192765858302841
0,019056104310773
0,0221219106456941
0,0226929738204565
0,0231661229023333
0,0218141083303027
0,0239670851489989
0,0223866681574551
0,0181289767406269
0,0236257965707182
0,0205318963955344
0,021495423263201
0,0188445761478732
0,0232843640188163
0,0241425725703733
0,02087569190136
0,0234178985130856
0,027628350562458
0,0230379909428054
0,024878837508391
0,025299817678448
0,0250054337403746
0,022754705770153
0,0229250171132703
0,0222683239298048
0,0261917030510717
0,0242651919327556
0,0251684367462841
0,021268863387384
0,0243679762499789
0,0289022163057396
0,0290525060414491
0,0270908896909102
0,0272937041000093
0,0287782924778017
0,0252215762737721
0,0240410903139622
0,02665764080785
0,028750071043987
0,029590563729532
0,0294771071816636
0,0345301444573794
0,0280208220840446
0,0314399620833694
0,0293722200429243
0,0332873640265487
0,0335933176768998
0,0385231293080033
0,0364439173185533
0,0397274000638367
0,0348375459336284
0,0392065032537818
0,0338817893781128
0,0345968603849486
0,0354446251616498
0,0344738413066431
0,0333040121001238
0,0337376769899583
0,0260361636928834
0,0335861575440696
0,0326282941316093
0,0315808243441255
0,0296289133036671
0,0307415481192476
0,0296750074535406
0,0293299824798318
0,0259044694041709
0,0277028923762894
0,0287113637611958
0,0270906566165649
0,0292875937689176
0,0319827551483892
0,0272643164978759
0,0305493060336711
0,0262713269818594
0,030907178033644
0,0315107932818032
0,0302942285804742
0,0251195748122572
0,0276432684325841
0,0287699523586929
0,024214669906801
0,0278904618052245
0,0276730215156607
0,0270487461333461
0,0267412589556882
0,0255066487697255
0,0308539095469543
0,0294009878768769
0,0300559985747667
0,0266737185356178
0,0228372975428548
0,0242607810517584
0,0240634604072557
0,0225142018253176
0,0298768044583257
0,0218982969561451
0,0232108484973893
0,0198985128919896
0,0211596760533897
0,0245554226042756
0,022646358689034
0,0197010241938347
0,0231087328294828
0,0227218836844523
0,0264922539881136
0,0237813540714529
0,0230445151077348
0,0176557113057779
0,0275749904576378
0,0208839296611689
0,0197595026682061
0,0154858696546123
0,02062307375287
0,0198178094862022
0,0218636920856646
0,0247157534522154
0,0193766380963916
0,0185039847823697
0,0263311184611178
0,0202776133077719
0,024767317790248
0,0209472626691065
0,0195092969153948
0,0131655627321439
0,0207726188230334
0,0234567766985205
0,020025045511335
0,0189520622602145
0,0182187576971381
0,016260188804314
0,0258000576643136
0,021282683298541
0,0288531087609496
0,0236225006740684
0,021685887614333
0,0212297460057214
0,0276538211816737
0,0322061683065544
0,0323050107555728
0,0280606499738148
0,0289613539617185
0,0243349256081638
0,0292747838702575
0,0267920726652424
0,037265457294773
0,0270339012314657
0,0330590657089573
0,0303375668320131
0,0322627802253768
0,034997856124649
0,0443347666255908
0,0362132584958379
0,042884714726271
0,0381702278811413
0,0433806548158135
0,0295023518114767
0,0360888132771592
0,0434384505530791
0,0440987446930299
0,0366843334327069
0,0399343943861484
0,0442584735173405
0,0528593501303398
0,0356433614754087
0,0510620220854066
0,0407982941142196
0,055768852177302
0,0342326636362295
0,0450252477929296
0,0430955563885201
0,0497676924327137
0,0491739510945866
0,0631748045525954
0,0489796230322382
0,0471546258945005
0,0426293783597191
0,0464582348231617
0,0248784183276405
0,0426562851909462
0,032306437047803
0,0428483536557223
0,0455173657829593
0,0545003446522751
0,0393287747100674
0,0471555352194584
0,0328708188735784
0,0530272562083462
0,0392120240078118
0,045405540110701
0,0348544692011893
0,039488337388566
0,0308418579597263
0,03766426552067
0,0348890660181197
0,0444012669948842
0,0307679780784565
0,0441910657103058
0,0264044469087527
0,0345918884507435
0,0282792098834337
0,0407728664033199
0,0276527105610701
0,0289235002507201
0,0286406663596868
0,0371268349402002
0,0319694968430964
0,0196590729071109
0,0227565787206403
0,0427415840752738
0,0316053072870712
0,0385731800805416
0,040145406951773
0,0491939614215303
0,0281463965059832
0,0400322617802332
0,0383127823182647
0,0487131430024484
0,0198789575142871
0,0370519200295114
0,0412068853711831
0,0504794261924199
0,035969356886774
0,0525547620859029
0,0517590026740296
0,042947634031889
0,0311975811546038
0,0373642463059329
0,00378518629786932
0,040290297970412
0,0524338239185325
0,0551201221070507
0,0368117503102956
0,0279033838385879
0,014971030094992
0,0465781710540816
0,0510725106600062
0,0503174757938936
0,0320079186199242
0,0332947307806035
0,0516604858762567
0,0496769228782648
0,0442313469297417
0,0620904200828672
0,0528584329251847
0,0698686402273784
0,0429235372914451
0,0598111396053721
0,0590183869389714
0,0494205644952349
0,0398539516553843
0,0618090770512776
0,0643309719264119
0,0495774870055313
0,065260219352529
0,0547784574619326
0,0407358148273276
0,0640420865650314
0,053846096027634
0,0769203913049338
0,0768670739413383
0,0626749112887697
0,0564722609118359
0,0824624822859172
0,0498701448934917
0,0418122127470062
0,0430068644864043
0,0707092083178449
0,0638072959584962
0,0266340079159801
0,0207964724237467
0,0722644464361518
0,0322726073133229
0,0900360441457252
0,0689516921252197
0,06483704413319
0,0175965285186999
0,0674233570726815
0,0826684434222068
0,0953693425944299
0,0690129260593805
0,0607679591620326
0,0592268954435153
0,0112656837225854
0,0293525249158544
0,0939339593513187
0,0662402098751617
0,10768463970666
0,0680445523927011
0,0555040197869428
-0,00192478414529839
0,211900769671406
0,0448114953404642
0,0774613128947964
0,0377175405526225
0,0418004565607883
-0,0173053515416019
0,141089776111065
-0,0774802724408544
0,0910242679458339
0,0709806423584787
0,103767108927555
0,0592409038023726
0,043299496740551
0,0997292249876997
0,104454681909584
-0,00746900715639491
-0,0804798131541341
-0,0303800941023343
0,0730401278714601
-0,0146293663442538
