3596
4000.36533379555
650.420452594757
1
2
2
0.0289781850693633
0.0294322427306724
0.0299538655835006
0.0304323933377728
0.0302879109822598
0.0302867184336634
0.0303771153975576
0.0298178577411056
0.0285494296716784
0.0286592580576178
0.0292353793233705
0.0293294166845938
0.0294077764520336
0.0293348318099234
0.0291281380044013
0.0291565056817496
0.0295630355670527
0.0286917399554417
0.0289831702730061
0.029772562010383
0.0291420845109952
0.0291068572641596
0.0293967992431844
0.0298256223053645
0.030283199581741
0.0297931961221351
0.02903984540973
0.0295948498002412
0.0301108434004886
0.0293372810866204
0.0291586760857559
0.0288181721847387
0.0290175470275576
0.0296379296973326
0.0295297356098388
0.0301108446380309
0.0299900545850017
0.0304907676330394
0.0302718209489256
0.0291830007476479
0.0299522352495529
0.0307844645828987
0.0299564847286775
0.0294902497740129
0.0290579230957929
0.028065829028719
0.0291308579456908
0.0301153541636725
0.0296455122933182
0.0293425122107377
0.029326548733579
0.0296415891095701
0.0300605687094394
0.0295802165846937
0.0298804237642227
0.0298324698718642
0.0288643409526034
0.0293299840057514
0.0300057608328003
0.0295451411626902
0.0302019401019337
0.0303131637315902
0.0300239832901678
0.0301849273287707
0.0298188817636005
0.0300347941474148
0.0303497668506351
0.0299265645035756
0.0288381234871729
0.02871490204055
0.0296172206759255
0.0300067783464783
0.0290034097535887
0.029057097979758
0.0289848477506465
0.0274294952679796
0.0278671934665439
0.0294645251199417
0.0299292693268023
0.0291772269434267
0.0283134003274247
0.0282395209817323
0.0280004128581496
0.0283685594279652
0.0284007663196527
0.0272981370994829
0.0271545136849672
0.0272608714618215
0.026186818565833
0.0262580342225707
0.0279349403262514
0.0295199495833909
0.0298793657991742
0.0292361291719017
0.028514268281913
0.0283430712857181
0.0287800805005249
0.029475345397958
0.0298381642745229
0.0301145705091612
0.0290940960828723
0.0280791751634085
0.0268665380326819
0.0271490201968481
0.0282020450946378
0.0265457953760947
0.0283398789473736
0.0286706794628436
0.0278042690798554
0.028329327224284
0.0284463777043998
0.0293843834588573
0.0296135561484363
0.029054472477383
0.0294086289919547
0.0296636975420705
0.027939752796362
0.0283748263374316
0.028895215844251
0.0288032374495243
0.0291230706302289
0.0291435305398406
0.0267555728038892
0.0267063273346424
0.0280579502328157
0.0277363663340842
0.0280986845427001
0.0284448910814415
0.0273403206944339
0.0269608331389288
0.0270058208600569
0.0275173779612998
0.0281898614104149
0.0288993078294594
0.0286700016291038
0.0267456281057151
0.0273475303766197
0.0291480237131818
0.0291632368783312
0.0268973934482652
0.0259469064283033
0.0270996447249162
0.0288492336097381
0.0300688884300782
0.0291019556011638
0.0274231073827653
0.0277188962480567
0.0280725615045924
0.0270530903566019
0.0274559695390478
0.0285924626315986
0.0297308601241353
0.0295813000039321
0.0277467220179469
0.0290398910436769
0.0308622817275827
0.0257061111714943
0.0257599015912599
0.0265142709488589
0.0261966311683353
0.0272514394606545
0.0274321101636864
0.0277795355754739
0.0276433324787246
0.0282244263870172
0.0289013387044728
0.0283813039386472
0.0268752626527418
0.0273707643214808
0.0287166829068996
0.0285554989408893
0.0280192644656725
0.0284171717307346
0.0290711631002835
0.0270168381053528
0.0276857099183048
0.0284667989542571
0.0273179820069987
0.0280644161652519
0.0288429176440787
0.0277689117824153
0.0277589907842392
0.0286592521514338
0.0288404249460812
0.0287455825518006
0.0283190085432698
0.0280807611424359
0.0284702512990436
0.02848880564903
0.0284300460849669
0.0282447883927533
0.0270638713061814
0.0277529829485911
0.0295612054600841
0.0299680335708894
0.0294526412809705
0.0286419043937688
0.0271676462775683
0.0287430844843941
0.0303701477388195
0.0303497739401697
0.0305586004869728
0.030494800750686
0.0301632588833682
0.0303357966581015
0.0308900377883944
0.0299419214368926
0.0292757896277039
0.0302893161795016
0.030849847933479
0.0315269978277435
0.0316359109807451
0.0294451005415412
0.0268473989993784
0.0278423090415281
0.0298243906266765
0.0302955640070047
0.0316194298952098
0.0312753305261384
0.0298174384367793
0.0307364981883628
0.0321502715762255
0.0321047163318924
0.0314454386778989
0.0319691378391969
0.0332061871221677
0.0330673434389764
0.0326789897042883
0.0330490927806562
0.0329693843633608
0.0325725649493273
0.0328548477636196
0.0322532607136235
0.0319814233082988
0.0330839719185269
0.0343397211461397
0.0340001319460111
0.033117571549827
0.0330731614177494
0.0327593444157739
0.0328984191056119
0.0337776492238768
0.0341993115324652
0.0342356099871708
0.0338636038603154
0.0338561231376967
0.0348839136595358
0.0336547302696126
0.033320147263943
0.0339841511991418
0.0337581928079419
0.0328406444915854
0.0331875109141397
0.0344273798016546
0.0349331276185379
0.0359411098903359
0.0368208476491072
0.0366177792335862
0.0362361190983265
0.0360934684512383
0.0358653836198159
0.0357868356813489
0.036202951534536
0.0367081388527103
0.0368688933102656
0.0364895086592083
0.0349390002594882
0.0346589555818033
0.0354745600989756
0.0352004011844217
0.0361330688322676
0.0375961794773981
0.0391597692573815
0.0382250547960832
0.0369011246140038
0.0385914918318634
0.0380667063717946
0.0378138684024108
0.0391878009870862
0.0402553755055696
0.0407060691786611
0.0410249422633583
0.0413258494693151
0.0410542523752392
0.0412484287231665
0.0408737264358727
0.041220552515366
0.0415905684861026
0.0418432206732362
0.0427524059616774
0.0449683870692627
0.0468647097418691
0.0471262268150674
0.0463006879701624
0.0459787585264224
0.0467288085545482
0.0480383158804844
0.0494381837184067
0.0493030847442603
0.0493426621088202
0.0504815266512978
0.0519233649883642
0.0517301431077114
0.052133339123773
0.0538267724497846
0.0544296218065725
0.0544011342287014
0.0551471292979455
0.0562177652769255
0.0566001426819456
0.0571507005773519
0.0585553944740301
0.0595669757562466
0.0600264399848249
0.0614138076643669
0.0640041097459321
0.0655270639045037
0.0660512037836006
0.0676872351787266
0.0699153187840998
0.0706061486579271
0.0719637809968884
0.0737699553823812
0.074880267473735
0.0764385134948058
0.0780104285959852
0.0793154558013929
0.0811462066370901
0.0836915647429419
0.086496150705924
0.0882169853124262
0.088898037493216
0.0907722346473344
0.093949903433051
0.0959392925211462
0.0973135910388417
0.100102440631157
0.104161283992635
0.108253832995655
0.110682347226078
0.112987880838358
0.116012011086634
0.119237324777724
0.122804598980084
0.125958672809096
0.128869247945077
0.133706661338596
0.137512921061983
0.137736605760463
0.139243286605771
0.143093780207596
0.148729152741771
0.154320901202171
0.157086772560445
0.158779961581774
0.161441678957408
0.165534095156623
0.170252183589079
0.174288006107499
0.17916992384183
0.183378272188244
0.187644790211562
0.192722542409935
0.196666550484342
0.200006628757653
0.204775979723647
0.210767683728655
0.216954225854659
0.220437936046294
0.221017105718094
0.223489803344554
0.22900943145154
0.236101159898205
0.244347479632216
0.250895581924168
0.252930579215259
0.253133819243045
0.254871280501374
0.257064967894774
0.25850757514049
0.262344375437119
0.267764577820091
0.273561640576638
0.27779133289277
0.281634816143207
0.286670861428366
0.291251808009194
0.295799244716791
0.299610434511094
0.302179960914042
0.30721087816228
0.31394120487258
0.318280719189742
0.319092069430496
0.321477309528094
0.329375254058152
0.340784176241935
0.347367023441015
0.339691681841304
0.334529904819831
0.337058378393264
0.341140084756894
0.345735383420791
0.351238358877657
0.355332079634822
0.36127103669069
0.370157574697934
0.37549215986425
0.374993961251022
0.373403936802012
0.373840607576955
0.378362408747527
0.384747782383782
0.388948435738074
0.39272598261811
0.396085116493612
0.396691748166581
0.399627761567128
0.408213063819966
0.412870707566369
0.410750251733717
0.411836582661988
0.41366955704686
0.416262082788412
0.422391782556964
0.429063966780537
0.435994905603587
0.440755868156023
0.441049073354052
0.443222225231768
0.447308928861587
0.450605498559182
0.455608905976979
0.460831309878873
0.463744720220717
0.464364005141566
0.464782613888817
0.467305366727916
0.473004425720288
0.480332834535993
0.488505059440292
0.494710443609862
0.491535439948249
0.485396924213107
0.485682572357056
0.489890591131769
0.496029877249769
0.501660177309352
0.509329571456438
0.515637159578886
0.517101606724672
0.518836907160001
0.521288151473609
0.526238935113392
0.532094378527025
0.534318565821258
0.536664221572705
0.540805282836971
0.545378733040974
0.547279105413868
0.551083693775625
0.563079522299723
0.576705655138887
0.57873357881464
0.573230225606608
0.571982200329775
0.567488776706193
0.56803435685357
0.576574245088216
0.582379282784034
0.591436592282384
0.598721468203173
0.600650661800586
0.60245083691277
0.602828332379671
0.60670331252173
0.613967565380881
0.619262043711685
0.622707794984706
0.627720015749247
0.628967155144477
0.626238295776171
0.629990576845064
0.637687566981817
0.643239693545582
0.646004415947927
0.647276460977875
0.651926512500032
0.657900301209832
0.660575317631545
0.664089381764634
0.671209510380607
0.676279276955115
0.677672756105519
0.682638464019845
0.688412686120879
0.693490192777801
0.698915285006931
0.699470942555551
0.702035512763476
0.708055321001628
0.713378290970045
0.722339733587573
0.730472757856934
0.733190954396735
0.733528636247523
0.734133221252223
0.735269294736508
0.740078566572761
0.742002290479803
0.745813808816675
0.755708464703183
0.761069284455333
0.764852926983659
0.765889212691715
0.767133731358767
0.772197260405922
0.779493723848803
0.781758220379736
0.779131864126162
0.781781687820047
0.792608031731911
0.805644630852497
0.815030559112059
0.81845421317699
0.822131962960755
0.823307116446873
0.81548030874526
0.817465990974704
0.826523019729162
0.827708639451538
0.82666908214943
0.829298540215016
0.839951520199995
0.853579843564572
0.856503802749215
0.855540443118908
0.858231989265644
0.86235706071356
0.873998493971542
0.881452950563449
0.877905413712084
0.880014955807284
0.886005667178047
0.892076743265335
0.893571852188165
0.894618163579787
0.906412814023399
0.91195276551635
0.907738512665056
0.914181793192714
0.92368944344872
0.926850939066002
0.930334655807329
0.931667438433245
0.930951388339467
0.930623287922301
0.937237974912719
0.951909727381037
0.962605824710287
0.968463098734927
0.972185344415615
0.969681541445279
0.971922557619808
0.977474143098218
0.976945929052957
0.972166265033841
0.969134210565847
0.969191697970763
0.978351059796865
0.991554351972517
1.00674407046286
1.02243389003232
1.02501445652032
1.03154352119791
1.0391965635944
1.03530469293568
1.03006234297968
1.03796745405733
1.05486884295858
1.05859877853408
1.06065296483008
1.068888511624
1.07600005177251
1.07960840472453
1.07971267799085
1.07883309094033
1.07623867926945
1.07602268295277
1.07982721649872
1.08847837546414
1.09053472395129
1.094991995495
1.10846148563856
1.11338683434293
1.11503668833326
1.11614575637329
1.11555228834737
1.12131888499695
1.12238751417603
1.11982298245091
1.1201717914817
1.11643337330041
1.12233842852473
1.13085939943258
1.13725971450151
1.15852145401149
1.17214454139435
1.17474697642475
1.17000015526598
1.1645335050647
1.1783231414976
1.19112913409304
1.21394996536637
1.22713902154844
1.22018521833237
1.22660540907661
1.22635185251834
1.22149203065103
1.22349966012432
1.22028748905193
1.2249498970318
1.23455345789141
1.22804524135009
1.22259443261361
1.23179153842699
1.22913847741292
1.22954917124449
1.24107744039251
1.24286932722492
1.25595725234092
1.26912122749857
1.26259045733343
1.2569271352809
1.27184240646675
1.27769065090024
1.26617621992635
1.27144182824806
1.28108503605611
1.27117110324923
1.26027442182994
1.25837783516984
1.26289541943129
1.28251698433555
1.30906987315863
1.32971154320851
1.32966988899631
1.31219300890567
1.3066539765013
1.31102530923478
1.31304273994194
1.32106256146681
1.32516213364831
1.33351576148756
1.3490505652845
1.34362581226267
1.33543764553652
1.34620738277807
1.35794778586523
1.35254471826218
1.34560822555384
1.35271857024474
1.35153843427023
1.33742347407734
1.3514005078259
1.36504197381034
1.35264028031275
1.34280693603974
1.34105478096408
1.35653814987005
1.37149538138725
1.36691552210712
1.35896931153919
1.35717139418719
1.34347425717533
1.3410595283928
1.35940451549872
1.37883634977896
1.3808157418133
1.37594410659288
1.3915146932545
1.40455111358368
1.39079825884434
1.37483779871095
1.37173112144271
1.37710430124534
1.39254270929821
1.39707655973075
1.39408127347111
1.39859665664084
1.3976324840727
1.38473788131105
1.38149704655085
1.36847568626611
1.35059293367349
1.3499414444885
1.36297615099732
1.37941492103061
1.38716094592941
1.39016455173964
1.38235327613553
1.36964925544199
1.37574746814506
1.38681316004442
1.38592997372372
1.39084983584312
1.39281158150071
1.36994061289284
1.36358852386128
1.37469313016074
1.38731049376085
1.39795648731718
1.40463803824168
1.4132857108537
1.40710960050176
1.40737582719295
1.40727744618633
1.39602822953068
1.38771433609067
1.3805844776929
1.3750428984822
1.37438914753932
1.36828998684491
1.37796107534018
1.3875774360383
1.38417172903643
1.38867544448059
1.3883921324614
1.38832087327453
1.38606934732546
1.37537093969008
1.36580256064295
1.37524720259855
1.39484956288168
1.39300295815469
1.38496745835923
1.37327327254199
1.36851816597222
1.36617543150279
1.36020352769159
1.36140566179593
1.36674923223708
1.36745778003635
1.36663392672679
1.37504374521377
1.37995805608034
1.37624379668446
1.37403017029515
1.37435886482246
1.36646732266362
1.35891682793641
1.36705948594811
1.37104807550104
1.37029544150517
1.36933701604524
1.36591445450839
1.36937984743119
1.36922065144672
1.36886114047757
1.37675932508777
1.37653873963004
1.37912393842734
1.37576823647789
1.3674394013846
1.36958581295808
1.36413994441255
1.36327113409238
1.37095313804038
1.37180519056393
1.37297445059553
1.36871720208134
1.37094524986552
1.37761843558783
1.36652864690357
1.37489829583658
1.38553507833908
1.37995366597691
1.38427779936148
1.37761340639414
1.37187513996233
1.37125378776122
1.3595080901978
1.35080983625872
1.34933166435676
1.3512584134993
1.35807000572548
1.37180299866951
1.37143912817739
1.37158469672461
1.37755861970644
1.36729556195421
1.35862903519629
1.35416613829312
1.34848321825202
1.34240358419766
1.34829276502549
1.36212623077478
1.36172727253282
1.34921408552992
1.348386537304
1.3599700604018
1.36537660003304
1.36041459798726
1.34778409131557
1.34517138856295
1.34006562490233
1.3361905314026
1.34631527018072
1.35603277744888
1.35422188899573
1.35959380007991
1.35717644876468
1.34345077234442
1.33771468118073
1.33613557797483
1.33556716410026
1.33256643706017
1.33278444915195
1.34111490348423
1.34271275996439
1.32896651726789
1.32468981874316
1.32817544616576
1.31913258723978
1.31293951517995
1.3152507475846
1.31777334005564
1.31753594641655
1.31561274180748
1.32177104695375
1.31548045596685
1.30939745069309
1.30799610627198
1.30611835454462
1.30739256751314
1.30332608018953
1.30028215496597
1.299492097297
1.30247502934196
1.30044610216649
1.28676648854978
1.27584901213971
1.27426139185222
1.27532630054565
1.27013102121695
1.26353892661332
1.26451794620587
1.27306456619117
1.28035767300705
1.27162580282221
1.26169023232491
1.25968319408479
1.25413508684979
1.25294511472941
1.24906684890292
1.24900513895498
1.24761723444843
1.2334936901686
1.2272899173669
1.22627321433509
1.22407979988637
1.22060558714874
1.21498317504408
1.20653023381098
1.19174209684722
1.18625286287775
1.18927699671549
1.18503165784946
1.17856232469864
1.17476853558759
1.17089359747573
1.16940059062752
1.16431392080211
1.15500974909009
1.15243519892856
1.15612838477524
1.15799858235177
1.14853003839798
1.13705659160314
1.132245919395
1.12924686085552
1.12503196354623
1.12437866036109
1.11579583872814
1.10564572666604
1.10387285708052
1.09890562967269
1.09140270335412
1.08330665089704
1.07861044364002
1.07553188912663
1.07438090892409
1.06890915759786
1.05968753631255
1.05563630414596
1.05114535201497
1.04683133811
1.04214545589028
1.03677784353261
1.03172383427787
1.02356013806842
1.01877657673735
1.01181204059304
1.00368840712218
1.00115595144384
0.993247675690687
0.986618725693975
0.984859861447448
0.977005053354061
0.970931857271719
0.968237681934118
0.964581576745357
0.956529034931399
0.951501840203519
0.950202074336909
0.942767961485696
0.937592859407554
0.934877986118516
0.930574089336911
0.924217849275324
0.917014650286817
0.908287181339003
0.902162558385871
0.900431610056724
0.893791752435688
0.889818375385348
0.889554839722827
0.884748027755222
0.876855657837632
0.869348013256037
0.863141002417147
0.856634366202365
0.849798225883675
0.843014668997964
0.840203446721092
0.84048283302375
0.834673565135609
0.828617042125102
0.824921019754925
0.816802570054728
0.809992093813162
0.805821338772283
0.798829355182432
0.791730634718437
0.788863502463079
0.78564211370745
0.779719305564856
0.776347191944967
0.77513237732519
0.771033992717768
0.765875084900408
0.759859645814601
0.753401707250668
0.748557134073589
0.743296514480554
0.738902387763198
0.737528802073906
0.732019369719971
0.72475606950407
0.719518993946561
0.715073187909419
0.713321656908353
0.7104612068084
0.705253352145203
0.698575937625484
0.693338921461558
0.690517191852852
0.686534425631215
0.680912368609313
0.675176625977477
0.671411224649827
0.667545848710962
0.661537243308109
0.656605189936163
0.651615433439907
0.64795158192065
0.644424131327301
0.639962485990965
0.635323036433258
0.631652903344282
0.628956409258838
0.623995341356282
0.61947842615377
0.616062163454258
0.612460016317029
0.607416309229786
0.603146171420793
0.600285199668526
0.597559629617332
0.595097874860375
0.590062870343289
0.585077963415602
0.583282443114966
0.580056856118682
0.575114362177092
0.57006983536028
0.566246811128072
0.563215598618858
0.558573102620093
0.553782836964226
0.550226336845049
0.547397204172138
0.544611678155848
0.541433571202132
0.538281287585566
0.533915415063166
0.529608181934542
0.52648983131803
0.521988923229584
0.517571492869323
0.513604723993926
0.51045276753695
0.508383877964255
0.5047088368606
0.499932908979748
0.497040706998122
0.494741197101088
0.492159929193941
0.488765352731396
0.484811014106411
0.480900702366822
0.477836850800923
0.475384998202468
0.471655727795814
0.467670515554098
0.46437461408585
0.461824543892909
0.458548731803548
0.455602604029994
0.453294181302794
0.450435533202064
0.447144722267751
0.443905535487477
0.441375821203498
0.437849087936155
0.43413092283748
0.432319668082799
0.429841722987875
0.426846334703739
0.423349989157238
0.420365835057906
0.4177932803077
0.41341350986198
0.410119154332705
0.407367306592565
0.404722821645063
0.402421628033163
0.400334798904772
0.398349111089472
0.395094766722263
0.391521596258225
0.388665961311029
0.386941389984911
0.384834252622457
0.381627120203078
0.378555442827544
0.375129348242861
0.372354144344916
0.371078127284304
0.369783172733525
0.366969584934735
0.36465847166698
0.362612304189762
0.359984572719402
0.35748235987498
0.355061265934604
0.352506207554821
0.349635278999942
0.347561860326738
0.346127461442687
0.343819107134217
0.34067490301867
0.338056445273301
0.33634984877313
0.334305992943096
0.331662285132944
0.32941780257191
0.327748130069886
0.326467475080577
0.324483403233595
0.321786469643406
0.319684627697618
0.318228132025983
0.316012420432444
0.313528555128791
0.311576728043446
0.309963665692957
0.308302246172246
0.306602173911365
0.305511458104865
0.303893219524351
0.301684782903052
0.300323069282262
0.298892309897894
0.2977021533393
0.296242878323212
0.294072320768653
0.292838360242194
0.291832776441801
0.290400658664877
0.288867559452963
0.287958559655841
0.287241433827513
0.285517725508422
0.283408269233429
0.282272467120156
0.281179688888558
0.279846660610555
0.27910890518124
0.278056785950241
0.27664304380769
0.274943195276746
0.273574948697556
0.272313066816202
0.271229863928351
0.27065583456464
0.270065852506164
0.269231521306434
0.267818597914359
0.266968604343129
0.265971066959635
0.264627591310543
0.263391120954451
0.261479815763185
0.260424808390416
0.259816941171604
0.257958791053787
0.25635509606745
0.255385985275554
0.254213009502202
0.253437060566427
0.253166541633243
0.252758439073427
0.252938718232555
0.252910639172484
0.251526461758246
0.250270558348843
0.250605116750521
0.250968630561422
0.250513520853873
0.250452264796932
0.250402773811394
0.250802325954294
0.251616659693321
0.251973855964357
0.251841057702649
0.25092775106845
0.250522107692908
0.251274517943802
0.251613300234981
0.251260895689353
0.251092950040863
0.250297535267972
0.248788302235799
0.247680114916793
0.246926476796012
0.246636379240182
0.245219524404133
0.242386966494731
0.240336453685571
0.238416427778707
0.235333446335867
0.232944870678489
0.230355539214909
0.228168542767417
0.226699536190064
0.224222099719772
0.22126522352316
0.218876987411575
0.218108342045836
0.21619197894305
0.213592028684047
0.212065286309435
0.210481050861802
0.209074413714132
0.207453354925321
0.20576394670238
0.204724085738024
0.203653558492939
0.202168955539308
0.200792492290849
0.19995666133739
0.198988288312636
0.197380389553084
0.195822814599886
0.194374053418713
0.192971200848469
0.191875081156177
0.191108993601798
0.189869025814186
0.188523246071944
0.187649609801264
0.186441545418011
0.185315832544888
0.184770736327466
0.183552307597581
0.181982034626862
0.1810797356144
0.179937253467692
0.17886943107055
0.178428275947455
0.177748760336314
0.176635497272329
0.175742665739652
0.174955042905534
0.173796200950009
0.172619551287086
0.172097348203139
0.171766613104811
0.170997741226053
0.16991510950148
0.168722044459541
0.168263447100621
0.168071184926589
0.167278021382051
0.166234395823625
0.165081274523255
0.16480171654184
0.164219854603601
0.163814845124883
0.164512724836724
0.164399568112179
0.1641589048026
0.164095378694205
0.164427133854796
0.165279713251994
0.166200680235202
0.166788024548508
0.166474977283228
0.165894683521358
0.164926453750953
0.164041909578001
0.163176783219607
0.161335160350445
0.159220110386073
0.157148830511373
0.154981591769744
0.15309023676537
0.15093418069211
0.148818600107654
0.146892064232411
0.145021765876354
0.143777299259528
0.143044141596107
0.141931477633566
0.140139293842136
0.138477428010755
0.137181331759463
0.136349633717342
0.135699566530797
0.134754830731133
0.133463905934266
0.132444285682211
0.132096258921132
0.131315108697428
0.130390317211427
0.129883224197109
0.129190088276563
0.128152035747553
0.127196866400891
0.126543316859588
0.126162882475689
0.125488902646196
0.124242462707865
0.123440970480362
0.123195144066335
0.122956725754515
0.122336188459056
0.121668567177848
0.121139942246016
0.120597527142703
0.120331556219478
0.120012798617364
0.11899130503884
0.118131112589363
0.117723727810688
0.117254875143424
0.116779003176804
0.116532439104177
0.116260296041708
0.115560359954329
0.114786271053681
0.114132976210066
0.113904432440541
0.11334771527788
0.112281628326343
0.111658382265197
0.111418731833051
0.111106060267541
0.110427389530399
0.109939674833366
0.109759816604168
0.109149469491156
0.108529198894616
0.108296123495529
0.108172618448328
0.107607142874844
0.106842054151303
0.106613403352173
0.106554733921131
0.106395806390735
0.105618062574734
0.104529654466857
0.104076054908203
0.104179731978831
0.104359441192815
0.103930625853726
0.103243901577578
0.102610290792682
0.102149081579175
0.10188980142222
0.101346322216733
0.101070669890316
0.101323381596962
0.100787692454712
0.0995682846420335
0.0992820127772898
0.0992699928355855
0.0988781797390542
0.0985525115813107
0.0983298729745354
0.0983711207674055
0.098334146837275
0.0978516964629452
0.0973875579594932
0.0972161459119039
0.0969070707938278
0.0963472361907762
0.0958711748403198
0.0956774770369033
0.0957885352963771
0.095708127564309
0.0952552831323058
0.0947278953238725
0.0945223430279621
0.0944652691577503
0.0939626802165811
0.0934713885796054
0.0930930568221518
0.0926126020576621
0.092183276371931
0.0918582001228832
0.0921465622081599
0.0925909859848609
0.0919914906811936
0.0913742959963875
0.0911593834955928
0.0905506355420872
0.0903570291912891
0.0902974016421869
0.0897616736195586
0.089717327282946
0.0896570145255576
0.0891709837989255
0.0889070175823624
0.0885692151230929
0.088436138291952
0.088121355010111
0.0878368133679991
0.0877416236686018
0.0875392685877609
0.087687872455136
0.0875512866937166
0.0872864048595894
0.0871477643678248
0.0870563432725865
0.0868854349089967
0.086412084379773
0.086033518791635
0.08572549642112
0.0854730776979865
0.0854464675656514
0.0854556289373339
0.0852861695204
0.0850583141283177
0.0845965686669737
0.0841707433629829
0.0839378198589209
0.0837463720408454
0.083705137564081
0.0835499102200181
0.0833868414459524
0.083234042778859
0.0833436431781701
0.0829973500252686
0.0823120261851548
0.0825535611324702
0.0827280700383244
0.0823265823002285
0.0819559170394908
0.081567977881768
0.08168203324453
0.0819414181553827
0.0817851619336695
0.0814988287778062
0.0809611375689375
0.0807894289511926
0.0808471618607423
0.0804386139073782
0.0801169468601054
0.0798596828722884
0.0798005750468986
0.0798223834878979
0.0795599608040142
0.0796264299268713
0.0796545283216798
0.0792081967107778
0.0786830544184387
0.0785795267978495
0.0788512674023345
0.0787503079319575
0.0784479480308691
0.0785702667073579
0.0786873051122872
0.0784483482779078
0.078025264377747
0.0775809524329321
0.0777552233406626
0.0778979441740634
0.0774939562737098
0.0776430474624153
0.0777319149436062
0.0772078070467381
0.0768315246947075
0.0767239773732016
0.0763443447591199
0.075858360131652
0.0758974558996802
0.0759942573531029
0.0757650731088837
0.0757650217757915
0.0762810655535122
0.0763580746376702
0.0758440670326154
0.0756913049594541
0.0754740985211268
0.0751122234461356
0.0753178313723251
0.0755249491122334
0.0751421898973653
0.0747671159352673
0.0749465032185262
0.074949532664899
0.0746109129469579
0.074587652027914
0.0744859147560424
0.0741171738614494
0.07382652449243
0.073561186004863
0.0735410583075988
0.0736841124315012
0.0735505177992739
0.0735867328166138
0.0737803626020708
0.0735712809517856
0.0733321193670192
0.072886540779732
0.0725609692693184
0.0728081219216021
0.0725721546168148
0.0723977373014822
0.0724579860938227
0.0722554760667536
0.0723052844548844
0.0722104628056129
0.071834445206945
0.0716894194512665
0.0715208085878341
0.0713176884081944
0.0717558434103314
0.0721544156456975
0.0721081727425852
0.0717971511984882
0.0713344298629305
0.0711116362209606
0.071153068654031
0.0714078312555757
0.0715807078195393
0.0717848919044875
0.071597036415378
0.0711744692149305
0.0712370033492834
0.071166960810704
0.0707792768875977
0.070918392411345
0.0711838209416501
0.070993118477313
0.0706724138050574
0.0703919675759474
0.0705148057483986
0.0706850995132554
0.0706622108151119
0.0707488977855255
0.0705557175670064
0.0704249499306362
0.0706174141235933
0.0705469918347165
0.0703439380603612
0.0700419376574316
0.0699720136808234
0.0702408681162444
0.0701141540979398
0.0699883658850028
0.0701154811087795
0.0700942505237716
0.0701857130218135
0.0702709989984551
0.0702965014506019
0.0701297433218657
0.0697112780441021
0.0697519348436928
0.0701691586710274
0.0701872806500686
0.0698752968925985
0.0697230944552752
0.0696738457583155
0.0696899222366263
0.0698529578794498
0.070140044291752
0.0703946501704747
0.0705355579227334
0.0703466052450377
0.0701097106402943
0.0700749260472514
0.0699348765086867
0.0698537060734327
0.0698630113611099
0.0697751084252887
0.0694575185310673
0.0694528283251692
0.0695998323398382
0.0697345453508154
0.0698974413265326
0.0696944469410111
0.0698162152287982
0.0698126881909644
0.0693484209921972
0.0695459293127218
0.0699403877020967
0.069942443157741
0.0700396296758119
0.0701306400508172
0.0700405490816157
0.0701281537167845
0.0703235851228579
0.0702542088861707
0.0699052353920386
0.0697573151232766
0.06988266552941
0.0701235876560554
0.0703938036713075
0.0702805692230932
0.0702648819181474
0.0701591489710836
0.0698873947982798
0.0702215768265527
0.0705207284081737
0.0703751769344122
0.0701192002624319
0.0702002636309022
0.0705090442196915
0.0707135149488741
0.0708473473476745
0.0706862058248865
0.0706350498191259
0.0707358916974996
0.0707256377505386
0.0709195085875116
0.0712702351359519
0.0712195309842399
0.0708264349205606
0.070509614862678
0.0703961694376703
0.0704937455852951
0.0703646441888602
0.0704934656547144
0.0706494823347562
0.0705995221260072
0.0708947058128535
0.0709610731601787
0.0709392429411375
0.071145076188327
0.0713513311386661
0.0713461486785431
0.0713089367953283
0.0715823903819085
0.0717003927429656
0.0715086126823062
0.0713698875828306
0.07142672264279
0.0714016808987759
0.0712729023634597
0.0714300822301834
0.0713980902870059
0.0715186316363661
0.0718926836299862
0.0716272109039499
0.0714072536429539
0.0715772996512601
0.0718677813601269
0.0720889851751856
0.072122309065947
0.0723818725191635
0.0727199847098731
0.0726923980793875
0.0723082045189871
0.0719590069275481
0.0719974539581255
0.0725819782289993
0.0727579944191663
0.0725759323503226
0.0727872975024156
0.0727731226371756
0.0726490997446345
0.0726479719408836
0.0726338261729658
0.0727463111473815
0.0729247075158802
0.0730876478634375
0.0733117491536582
0.073516627573543
0.0732470330037334
0.0726954655277443
0.0730995079461511
0.0736576566762256
0.0734446411523149
0.0730980799412086
0.0731061887767086
0.0733502506779293
0.0734297399704699
0.0735194071231543
0.0733268859235152
0.0733779908039257
0.0738634816811547
0.0739174494014208
0.0738929858021353
0.0742581690795745
0.0745758713719937
0.0744770001800221
0.0743200769892367
0.0742078865047445
0.0743166585403511
0.0748623486072804
0.0750966138166368
0.0748152062852308
0.0747245616109316
0.0749049902635985
0.0749839088846658
0.0749146866829787
0.0747297077404833
0.0748438244878809
0.0752441481098136
0.0752379670571354
0.0753600554065893
0.0755843513327903
0.0755979932955438
0.0755947985810952
0.0755119334997078
0.0755275380570737
0.0757263298895415
0.0759362729006552
0.0758910386420176
0.0760476820295515
0.0760180485257523
0.0759143533549805
0.0762154178095275
0.0762842553513531
0.0761734837180473
0.0765035022387908
0.0768301260208176
0.0771261964800666
0.0773795276770705
0.0772040150565427
0.0771207759630962
0.0770065219341151
0.0770360567310343
0.0775040396616842
0.0777023485596498
0.0776609645275673
0.0777373994402411
0.0775941113377227
0.0775009954922157
0.0774005356284467
0.0775037113818398
0.0778767882097121
0.078091868745753
0.0782196917901315
0.0781804128290259
0.0782265881043059
0.0785772760186673
0.0788157705883312
0.0789153781581928
0.0788249219965208
0.0786746994805503
0.0787663774415324
0.0786379628886824
0.0785301166267739
0.0788745321636428
0.0791050735273318
0.079107074210264
0.0793299289763213
0.0795119414239388
0.0796296316086108
0.0798367086377361
0.0797093550518359
0.0796328981518663
0.0797256352823396
0.0795853091089028
0.0798577668136862
0.0803111499103659
0.0802776416956901
0.0803680605250123
0.0806155291686229
0.0807522255476696
0.0807667728262273
0.0808029863951182
0.0809081894116084
0.0813243363162049
0.0816214152986294
0.0815192273478886
0.0815859450312949
0.0818618267348284
0.0821566088914329
0.0820478483842054
0.0819951647137533
0.0821966654484345
0.0821837646372637
0.0822084965893857
0.0823994711508869
0.082424313509179
0.0826502146677977
0.0831144348212184
0.0832894230986718
0.0831043425251381
0.0831689653353028
0.0837537714611783
0.0840182602812034
0.0840097790480002
0.0841174084077965
0.0842373680348843
0.0840324436625178
0.0838557286889103
0.0841692107423391
0.0845286144966767
0.0847044249574988
0.0845591540041755
0.0843653804869369
0.0847566196898333
0.085310345327531
0.0852663246887086
0.0847397930279564
0.084795351288365
0.0851650280918271
0.0850470133981506
0.0848852093813665
0.0853763241174712
0.0861882250365035
0.0861409308506616
0.0853437596823924
0.0857664454584406
0.0864442906472478
0.0857620094029562
0.0857689184392136
0.0863981067984408
0.0865865692130063
0.0868734559431274
0.0869987497632621
0.087154792984216
0.0870829358923876
0.08701475292788
0.0872333522181817
0.0873971365951724
0.0879391428622129
0.0887425372032616
0.0890413914196856
0.0889604614498644
0.0888961534290622
0.0887181165814806
0.0885812895370355
0.0886055019252371
0.0886989741970345
0.0891345519069276
0.0895092409857022
0.0888726427154474
0.088938008217038
0.0889518587528016
0.0893143382628289
0.0900529676570708
0.0900847146352557
0.0902846892393864
0.0909368358742111
0.090584369177787
0.0909949030058292
0.0912939636745385
0.0912847815875173
0.0915239606892142
0.0917616886229834
0.0917438771241438
0.0922024779238649
0.0920904090236065
0.0923757580046842
0.0925572851325399
0.0931555772783532
0.0936315400045914
0.0933719995067671
0.093413503918135
0.0935314737029875
0.0939435988349368
0.0940678712875734
0.0945731031089713
0.0944215036878274
0.0946788225686561
0.0944557710285399
0.0951746311334315
0.0953713529296015
0.0954166513921136
0.0956435620954999
0.0959149958041181
0.0962282699398295
0.0962203272032922
0.0963973378821143
0.0965803911742076
0.0970602966127719
0.0972457012752054
0.0973568465627996
0.0977038402950277
0.0980740600167317
0.0984003556076486
0.098344035631652
0.0982320731162374
0.0986889152644394
0.0990515977861954
0.0992366031494318
0.0994337974628245
0.0995490517494185
0.0997913682929624
0.0998213941561483
0.0999340301577179
0.100282719659991
0.100387101718958
0.100204225558241
0.100174292562686
0.100699129581456
0.1012968414954
0.101611778636842
0.101890385101752
0.102127263308043
0.102235498333738
0.102163760883142
0.102328669629063
0.103024005203597
0.103186371333422
0.103131723278364
0.103471116098562
0.103816178315251
0.104074848164238
0.104443985466939
0.104736673185808
0.104967525904953
0.104939780880428
0.104971207609748
0.105284903304898
0.105801866958773
0.106213092179617
0.106302238459736
0.106455721785625
0.106741568454901
0.106953978153144
0.106911847773769
0.106973880342527
0.10711364169159
0.107459521152515
0.107837850894177
0.108189196307889
0.108064051188746
0.108060913998908
0.108594033016009
0.109208764831053
0.109802865192046
0.110052154691097
0.109825096510416
0.10989569011985
0.11032858978672
0.110551880727589
0.110695705451027
0.11096228215564
0.111496928373978
0.111214397405033
0.111165861044905
0.11175621860786
0.112165266126035
0.112444056293542
0.112587445015163
0.112934829976172
0.113076448814368
0.113071115050711
0.113430192327274
0.113756892014316
0.113871309614877
0.114260168189049
0.114749899139655
0.11483930812067
0.114530909876438
0.114673711310305
0.115121353943623
0.115461572861894
0.115887157509511
0.11603040431831
0.116270662938752
0.116619016696934
0.116842609053718
0.117273634636239
0.11747058692792
0.117573553541462
0.11792937743261
0.118390529876063
0.118696622951244
0.118901092322946
0.119089182993587
0.119109895040976
0.119311191747046
0.119825313406971
0.120174477745093
0.120161276650645
0.120434280946862
0.121046625817707
0.121175944827186
0.121046596857633
0.121326201613633
0.121766366607944
0.121971934180088
0.122122018507912
0.122429498009773
0.122672850111172
0.123132835317645
0.12330897522047
0.123445635769218
0.123936261945538
0.12402158767223
0.124148164757144
0.124383507587323
0.124491982714002
0.124722463090867
0.1249515451536
0.125198932869728
0.12568725888939
0.126111001981963
0.126343342225134
0.126488646196726
0.126426028241906
0.126185063387802
0.126360845912525
0.126875056128255
0.127114841007181
0.127513330254992
0.127787844223957
0.127714712851907
0.128159198751483
0.128331251522515
0.128058786768831
0.128297877753387
0.12852846742021
0.128763376174714
0.129187304390801
0.129302658894178
0.129368368806998
0.129933658086761
0.13027790485436
0.13039919241039
0.130424787443594
0.130226473039879
0.130012810663124
0.130324273190248
0.131170547419083
0.131497991244595
0.131801510850624
0.132166887569062
0.132239692916272
0.132325543839435
0.132411159418502
0.13216531063391
0.132158144427184
0.132577638662968
0.132800448852077
0.133081210875878
0.13325805080139
0.133504009329541
0.133754606283278
0.133706661422431
0.133970508940973
0.13412262337503
0.134026026106355
0.134209992756925
0.134313705210978
0.134451438280721
0.13467975708912
0.134698177574201
0.134692070597907
0.134553480230849
0.134393089196543
0.13455989405308
0.134846310415895
0.135078020457952
0.135136050991145
0.135149504558394
0.135100209302577
0.135128354220792
0.13521260459125
0.135219306386455
0.135402292545432
0.135363904855793
0.135304110762664
0.135502064644996
0.135549441816747
0.135696159242142
0.135626609387588
0.135596455811696
0.135372704868203
0.135154068800395
0.135472730267272
0.135706715126575
0.135905630214843
0.135695353811055
0.135594447397393
0.135842857077697
0.135858826530818
0.135856772441331
0.135781611180689
0.13591061178714
0.135925156237804
0.135764705122497
0.135723725223897
0.135641553879642
0.135813966550988
0.135850080844754
0.13580745377341
0.135646329794978
0.135377384215346
0.135611116346846
0.135668814764822
0.135698769333243
0.135333109021717
0.134938078161796
0.134963740631068
0.134968858441101
0.135265573077827
0.135396629760787
0.135171893073353
0.134871140323456
0.134817818170565
0.134577396270321
0.134342559743999
0.134290087909515
0.134357187368296
0.134521235741403
0.134199641036849
0.133930798979694
0.133765873523008
0.133636933602128
0.133400036007229
0.133246900483923
0.133150600701931
0.132886451542264
0.1329394427471
0.132833157318
0.132777891595985
0.132675473156794
0.132431532121844
0.132491257246628
0.132451671052537
0.132064983040804
0.132021037071382
0.131932069404486
0.131577179555828
0.131440945725345
0.131413220500919
0.131168375171543
0.130925907604907
0.130624654903111
0.1304390592979
0.130341669585257
0.130239160453519
0.130057782339391
0.129679622726306
0.129666667920495
0.129788265503322
0.129550253794368
0.129406877422233
0.129246693744684
0.128893424714656
0.128743296891395
0.128437506879934
0.128089917392778
0.127747438219058
0.127643628064975
0.127665225325457
0.12755363059703
0.127499142661406
0.127315390596815
0.127165238489841
0.126799944841543
0.126310107529107
0.126073519164957
0.125441002554471
0.125036782004429
0.125254925590693
0.125335865986766
0.125007933792066
0.124400887705887
0.123986688264637
0.123904963411706
0.123781104655489
0.123613850712646
0.123308649073523
0.122813412891645
0.122507599621056
0.122228085122919
0.122120412753292
0.121744790185609
0.121428309627638
0.121317888881484
0.120940654549231
0.120572267394599
0.120150024364976
0.119970623525072
0.119891312280387
0.11958768776027
0.119464504294771
0.119278378813095
0.118670495592674
0.118325647842024
0.118084436578145
0.117909519941075
0.117785491622674
0.117496465756729
0.117112482604986
0.116916552343268
0.116726701185975
0.116236967144348
0.116034192072812
0.115769414647945
0.115427536838425
0.115256769641832
0.115078886157104
0.114891407252957
0.114551868790796
0.1143467019693
0.114138981536915
0.113935437319811
0.113808986474705
0.113175384420095
0.112957871452048
0.113043984989174
0.11255740706647
0.11240217215379
0.112271635951492
0.112010563145471
0.111663573822055
0.111364964727219
0.111117505999122
0.110720773532641
0.110583256498252
0.110553149617258
0.110069778720882
0.109587256802159
0.109606600963616
0.109744436838399
0.109420208834259
0.10891434881957
0.108571621355175
0.108110607428065
0.107828682314703
0.107729599692937
0.107670621783967
0.107444980892958
0.107235912063259
0.106931342598156
0.106726898231175
0.106625062400858
0.10651852302336
0.106676042642197
0.106174192831052
0.105415387051605
0.105121953667385
0.104918959383946
0.104912571153947
0.104796947760151
0.104545680077932
0.104194685855997
0.103833076123619
0.10368403355776
0.103412562067648
0.103238657491338
0.103204866859655
0.102913617366107
0.102645250436343
0.102685293017158
0.102392075379196
0.102018126402014
0.101884218458728
0.101832198224686
0.101643469481658
0.1012485989244
0.101336498353252
0.101179788677821
0.100489913659363
0.100298656260217
0.101033226402978
0.10081887000875
0.100051666099531
0.100005516542929
0.10008096362071
0.0999710407630236
0.0997052167257627
0.0993573534759854
0.0988422718581884
0.0987437553915551
0.0989977737912762
0.0989800350329649
0.0988302184737052
0.0988454055041616
0.0986066885586945
0.0985864601180251
0.0983612173472195
0.0978869991880314
0.0979140529937853
0.0979439435792994
0.0979398195689606
0.0980471271427287
0.0975690758981491
0.0968570095149385
0.0972456967300897
0.0972495862423553
0.0976149259266238
0.0978535603384186
0.0964855460600698
0.0963273694566408
0.0965936171730686
0.0967175485661467
0.0965599480043614
0.096397176524589
0.0961598280337892
0.0961252008617921
0.0959004992642973
0.0954422761438394
0.0953896965063228
0.0951499291493899
0.0952101188462823
0.0952999511494361
0.0952420460977617
0.0952941170613082
0.0952349684394659
0.0948724027590412
0.094753765728799
0.0949218751599543
0.0947698068119872
0.0946506709247317
0.0946844768391578
0.0949577581881675
0.0946315689438658
0.094141387261816
0.094371523192736
0.0943382835976046
0.0943231507205803
0.0952620122373089
0.0948819545566465
0.0938830861358979
0.0939907698136142
0.0941437332088565
0.0942340673647964
0.0941263129891114
0.0942260314936048
0.0942697397323097
0.0941437941088798
0.0942402129349245
0.0942627087135018
0.0938587448960534
0.0935984976601888
0.0938842066926566
0.0942440622611055
0.0941166340297219
0.094031247586673
0.0938888028115223
0.0939075437485832
0.0940302277736444
0.0946521703207881
0.095385928393715
0.0944702460816981
0.0939754741803365
0.0939639106068769
0.0938728836010435
0.0939465043439077
0.0941647219272685
0.0942569302764639
0.0943571054647708
0.0946736252882996
0.0947048216028203
0.0945409903330739
0.0943191469802837
0.0943376266386466
0.0942978906049045
0.0943601837748981
0.0946357090724785
0.0941899003715358
0.0941900750848074
0.0946073101453908
0.0946888901863196
0.0947354292098367
0.0949526223204416
0.0950651795154773
0.0947616015415434
0.0947873165980604
0.0958324713293189
0.0972210034099512
0.095462828475118
0.0950760067716541
0.0957509463310984
0.0957158938213319
0.0958574610140525
0.095961995910754
0.0962709188818994
0.0960126493325729
0.0957444854356079
0.095990149274465
0.0962949685738883
0.0964837609927803
0.0968404785678434
0.0974831713100911
0.0980353860646696
0.0974645793263651
0.0967151177869967
0.0971773802553561
0.0977511654510071
0.0985041423067502
0.0985652900463806
0.0981316354825782
0.0985115963327531
0.0983262403683706
0.0983959207184279
0.0988594835255294
0.0992184643978292
0.0996848345454824
0.0998344652283148
0.0996291758092931
0.0996515513122192
0.100031360698855
0.10062235365663
0.100953957210163
0.101166176343402
0.10162574242467
0.101409869622593
0.101367750522407
0.102047574579819
0.102458887024143
0.102616093455654
0.102572312998719
0.102469269387604
0.10296636014579
0.103849711040687
0.104138990838986
0.104413225055346
0.105051211833759
0.105039291536732
0.105044448038117
0.105522547403998
0.105799087212971
0.106025849758189
0.106510489115579
0.107779868477449
0.108036256990012
0.10790584882667
0.108394594052524
0.108339828683693
0.10886027220744
0.109650873502324
0.110167707741531
0.110480647584649
0.110671274653084
0.110557865685038
0.111260481558175
0.111932124618571
0.112801815059202
0.113622362158782
0.113990457250285
0.114484149329158
0.114875849486723
0.115554078191003
0.116336169860534
0.116785518217395
0.118238257159472
0.120237136604257
0.119441662961835
0.119644043311718
0.120176238797782
0.121449877527111
0.123142175901001
0.123148698191197
0.124357001092307
0.125539164967372
0.126394113682646
0.127603537275973
0.129497090448279
0.131607097165223
0.132163771242904
0.133775094312049
0.135920606558779
0.138109110797334
0.141132220220004
0.143684721222368
0.146163068211303
0.14894433450565
0.151729793690841
0.154844416071606
0.159561981405109
0.162069599586879
0.164234108204553
0.167361915996019
0.168883901672462
0.17064136759932
0.171911857283937
0.172977961997302
0.174252175049521
0.174789749952723
0.174490677435363
0.174902422974802
0.176350015647596
0.176330954656755
0.175384073826309
0.175633810266999
0.175685499812369
0.176685181126179
0.179579568491669
0.180050325694445
0.178839935391725
0.178964428892413
0.180704449085249
0.18302573985426
0.183881288455722
0.18517221797208
0.187338530629765
0.189168426742299
0.190955135132471
0.19320741028005
0.195566862065356
0.196944347551736
0.198896122212005
0.201531020826304
0.204523327521278
0.208662280505591
0.213042646590843
0.215722740057419
0.217553488928788
0.22148068122028
0.224624011784724
0.227263648183988
0.23076934844073
0.23418509547115
0.238499696304029
0.242497409756935
0.24576097694543
0.24939352700259
0.255464569844066
0.26021599526411
0.264285484893361
0.269088977170845
0.271708378853514
0.275092502064598
0.280337715108441
0.29358783481403
0.296792637586154
0.298981699248877
0.303808552030077
0.311294133271145
0.323752994760682
0.325557604728537
0.328621619725865
0.335440779124926
0.341737903462695
0.348161688505387
0.355717291735665
0.362550047420946
0.369650791315115
0.37596431126345
0.37991326438541
0.387254688024099
0.400949909890421
0.410194522215971
0.414678164988715
0.418502201084985
0.4273749003238
0.436928844901693
0.442446245848401
0.44947032435227
0.455215040012853
0.463971413895817
0.480674072707729
0.484265248125302
0.486838117077811
0.495271444825352
0.50588919716953
0.511516368869876
0.522842553858418
0.534171831024826
0.536012591928692
0.541799538797106
0.550675275391786
0.559543295619485
0.566475084629732
0.577929911017636
0.58618443460539
0.590980114846948
0.598331375625974
0.605368236979312
0.612534967866707
0.619839541830119
0.626307074022641
0.631762891809337
0.642440793362047
0.660066209715696
0.678243433953192
0.669791571950819
0.664463158228007
0.668835270836398
0.674438431255717
0.685051886652624
0.690618935307473
0.696155545888752
0.703228314034793
0.702379155589749
0.705191265403191
0.709943294276588
0.712914409178978
0.716780115382268
0.719709326736015
0.719635802279648
0.724569270418828
0.726824240803091
0.733600153046926
0.742606606824432
0.724408137764243
0.715067650167297
0.716889917931084
0.717158663290009
0.715542717318239
0.712369568235622
0.710125257107748
0.708014197685285
0.700593671590611
0.691846924383384
0.685368584157309
0.685621247915494
0.680591791218238
0.66691962903098
0.657460148002775
0.650920361069
0.644131502391859
0.636731838341935
0.635797462536325
0.632621634762867
0.615249534410027
0.602795390054819
0.593597941071903
0.584614037612001
0.577171128397181
0.569976252597012
0.562964170365876
0.554266503563192
0.544809406028997
0.536864101122188
0.52867815907995
0.51976134785314
0.511911564403432
0.505314800126712
0.49840700663904
0.490979092879308
0.484059251281017
0.477491344485393
0.470412960447155
0.46339940513226
0.457264808178568
0.451133555736915
0.445008243663693
0.439349622884865
0.434058621393678
0.429116843364618
0.423730902737417
0.418521545346539
0.413583002054035
0.408574934166375
0.40414122721224
0.40010143565618
0.396585955827205
0.393247279857652
0.389249353970555
0.38514567813519
0.381461338239484
0.37773730049844
0.373875846221337
0.37079775809571
0.368637203582813
0.368333982376506
0.37045397820842
0.364775260496575
0.358815432264281
0.356555378973809
0.355183492194819
0.352892804440631
0.350852682920857
0.352696688923249
0.350627719242423
0.346117749274075
0.344301154816718
0.343085022167972
0.342497881962996
0.340486021166065
0.337834352583379
0.336279699505268
0.334764261413567
0.337317623885716
0.34065385548225
0.339581614007968
0.336654562996387
0.329609342548343
0.326825302966039
0.328771716750383
0.329316910749589
0.325844138729862
0.323577320055223
0.322099564707364
0.321827509255747
0.320883421251341
0.318360459096917
0.316589662981261
0.314824379452235
0.314833476373438
0.314613867244333
0.311452241378179
0.310756784342807
0.310434263395696
0.307642605279354
0.309694609434616
0.310589374765058
0.304056856151423
0.299830490088282
0.297916292639009
0.297037312265649
0.298284910014311
0.298906824755723
0.295415875193666
0.293083653050736
0.291192718381923
0.289379329219508
0.288203347547496
0.287183268147808
0.285460579837558
0.284164001752214
0.283358702148979
0.2806901266955
0.280201702329143
0.281127429396719
0.281457797227757
0.280785014925627
0.276452448771191
0.273921344218339
0.275708726450361
0.275797844656209
0.272147705589207
0.270123127657451
0.268441289846725
0.267777695704289
0.266871670300224
0.263721229641791
0.261742185991618
0.260750951092081
0.260017951242428
0.261456676140142
0.261916106845786
0.257731044743123
0.253734563775231
0.251847307944073
0.251283394049742
0.250664711853514
0.25000201708778
0.249434471449622
0.249432348588962
0.248460209886184
0.247529247720541
0.248039524131212
0.245944156223966
0.243931693347966
0.243365729382977
0.242952605474892
0.242912175244145
0.243790941972319
0.243537606223256
0.241896127456358
0.241931502780471
0.24252356322572
0.241638858369948
0.240657750980264
0.240290516316301
0.240408870751142
0.240682417144454
0.240919063425531
0.240741761187542
0.240684426517345
0.240802629551039
0.240677442859348
0.241681940089725
0.24344727687484
0.243577657869075
0.245379222017907
0.248423210486447
0.250566719910098
0.251377521683039
0.251756137260438
0.253385556518248
0.254824985229983
0.256255292356577
0.257563358896845
0.259231484358567
0.260784367201391
0.260315813426986
0.260491690482485
0.260908410326779
0.261166577441468
0.26161572822699
0.262842313111578
0.264295154193932
0.265829558574551
0.265547274974824
0.263974057056342
0.26366924773737
0.263334972620564
0.262984101865587
0.2623814575411
0.261612766230393
0.260828982184891
0.261272017425968
0.262537737278909
0.260947346211451
0.25972536476439
0.259986931182108
0.259616755360946
0.259137270241656
0.259093427277123
0.259205047210338
0.259154945693872
0.259128779407188
0.259054910936509
0.259808944146945
0.261425141081121
0.259026832927091
0.257420239730868
0.257985127460278
0.257764705770262
0.257372934518087
0.257432627943073
0.25747469043259
0.257450504144221
0.257122903993872
0.257248412721794
0.257374936886518
0.257363357468291
0.257925698458897
0.258694631860735
0.258723099893736
0.258493053056859
0.25860488257828
0.260493971980702
0.261688074967306
0.260457376463525
0.260396483059081
0.260340066230458
0.260336383733066
0.260066493841172
0.25934862222281
0.259272797495693
0.259417567850227
0.259412194534816
0.259317195363817
0.259187480634017
0.259299412788587
0.258956204612336
0.258795323478712
0.259932304285235
0.25991375155957
0.258856522699381
0.258242659964925
0.258193458032758
0.258224785067985
0.258609844753752
0.258675240362067
0.257337855571382
0.256485921272683
0.257032933531027
0.257580885858382
0.25617736980889
0.254813965469772
0.254517279779921
0.254907465121308
0.255434715754964
0.255503815516924
0.255626898718024
0.255888202408208
0.25604351344492
0.25629276869106
0.256616659528036
0.257483234596612
0.258587350915068
0.259054521887115
0.259218010106995
0.259526178250135
0.260030211481127
0.260427912723128
0.260180316124396
0.260164985229566
0.261058104930836
0.262126405114961
0.261960846908946
0.261097026741136
0.260763075783359
0.26094532679048
0.261316203880581
0.261234853436217
0.260766263834167
0.260514062960644
0.260455198648763
0.260417710721774
0.260472967055697
0.260497737455045
0.25994315081661
0.259748308550392
0.260074019901243
0.259902810289457
0.259825957748164
0.259887735110306
0.259856363255731
0.259831771441169
0.259459717295839
0.258999779954519
0.258892022207461
0.259125721059224
0.258947291359938
0.258882560087589
0.259403810826841
0.259791280989164
0.259971097994621
0.259721149707523
0.259703051769098
0.260317914644638
0.260782053229014
0.260415510811534
0.260628500243629
0.261556330375369
0.261391666739694
0.260955282042845
0.261470382631436
0.262143964839087
0.261809908702116
0.261354098585018
0.261103066240844
0.260395844705472
0.260154233473939
0.260063574930569
0.259772379859196
0.259450419071748
0.259196347697969
0.258915116095556
0.258349079969875
0.257918907916805
0.257450800549403
0.257039210876766
0.256696414051616
0.256366859770179
0.256162330497197
0.25610317570328
0.256180562805335
0.256167828530734
0.255697292486017
0.255300331676216
0.2554677099829
0.25537079655622
0.255062837045456
0.2549637807842
0.25464738623905
0.254240599964779
0.25446781798599
0.254776128424565
0.254736486161723
0.254420062753618
0.254138123605382
0.254312417601909
0.253945934378387
0.253561123353748
0.253591409320701
0.253331675917572
0.252594521979697
0.252223198677402
0.252099693695492
0.251848667098805
0.25162791883477
0.251247733808032
0.251116650864674
0.250653828555979
0.24993651679556
0.249622672751638
0.249509498782639
0.249340257542788
0.249107974761203
0.249131525743261
0.249079981880574
0.249040513996511
0.248940252818471
0.248470752255448
0.248389318905132
0.248264773956158
0.248254127421053
0.248228674960232
0.247727220630103
0.247392638265002
0.24681811792671
0.246525119729649
0.246776321443063
0.246680253327776
0.246210382661746
0.246136812273023
0.246274407337213
0.246168925495733
0.246239677972483
0.246511207943385
0.247081122900503
0.247617655654799
0.247765168772233
0.247808468448141
0.248213661423778
0.24830983543827
0.248264414612384
0.248495003154854
0.248484616410708
0.248636393610457
0.248627802183029
0.248567155881191
0.248906615952258
0.248765620047688
0.248754471373415
0.249152029689317
0.249518300505746
0.249654507975174
0.249632602906383
0.249687340768597
0.249687698629386
0.249993479768201
0.2504598590244
0.250792743838657
0.251044588257226
0.251282631978585
0.251401209775222
0.251468219860589
0.251306615546837
0.250922649831708
0.250517238056279
0.249826492305958
0.249688772937482
0.24968769726916
0.249062916055686
0.248685503973925
0.248299978724983
0.247839248868942
0.247089837319275
0.246216897920545
0.245651952301416
0.244921765814161
0.244108860618268
0.243400190948169
0.242888691688775
0.24237229866651
0.241895405542454
0.241392829593153
0.240620407183085
0.240029299190155
0.239288493880433
0.238550849850442
0.238238228812439
0.237850750447389
0.237258847560333
0.236830812018184
0.23641850416672
0.236253851006223
0.236337215203353
0.236114557464294
0.235763334191579
0.235748133876639
0.236116701144836
0.236179327474106
0.23591582235452
0.235776535996099
0.235814219619117
0.23594611433032
0.236211147200672
0.236137804055484
0.235757105424283
0.235633261855116
0.235532393753904
0.235214444183318
0.234770003436789
0.234421303389954
0.234111310454701
0.233705310087319
0.233334947239998
0.2329640891602
0.232369944287823
0.232072790715816
0.231851781944551
0.231355687903958
0.230781129520555
0.230238216475467
0.230220917545701
0.230169025135732
0.230249298932651
0.230717476570058
0.231089553864496
0.231396476569959
0.231762923444685
0.232212203131641
0.232819869447254
0.233675200015478
0.234815497778537
0.236135144728532
0.237513680097612
0.239285013727572
0.241239429206834
0.243137252917916
0.245229065958083
0.247536787188286
0.250097429882316
0.252712754224232
0.255329528169214
0.258332450330136
0.261861013897703
0.265341141113224
0.269038488577083
0.273168653723564
0.277439858646044
0.281785260628058
0.285950901973578
0.290037819109776
0.293941724086244
0.297488355039853
0.301015524895294
0.304428583525067
0.307482101001981
0.310514718918976
0.313125824502291
0.31526926543385
0.317087075585102
0.318289774207273
0.319233119141087
0.319406701596217
0.31902852495528
0.318484341515631
0.317445534522265
0.315995691312368
0.314398338772331
0.312461216800234
0.310402998219608
0.308437942604758
0.305886144266733
0.303200891721785
0.300515718351525
0.297832458060932
0.295383461450555
0.293402831824152
0.291640317227934
0.289801760393634
0.288665211680711
0.288489940139949
0.28866846523186
0.288939762647227
0.289602214971593
0.290783149331639
0.29219168280887
0.293901175012757
0.295574745789091
0.29705669432778
0.298956527365631
0.300986306455929
0.302581602903861
0.303648901754644
0.304521377258818
0.305158630561291
0.305687195427627
0.306015100283625
0.306061681004301
0.306430459257382
0.306618787694132
0.306444214238448
0.306913644116551
0.307397862163007
0.30755290515778
0.307736115045763
0.30797235273053
0.308856740112798
0.309978872831933
0.311281390814074
0.312998757689734
0.314800941896143
0.316695784285135
0.318543791155737
0.320204081568575
0.321360118267559
0.32188538573057
0.32250215822116
0.323475188136501
0.324169148015099
0.324474795913929
0.324836126732655
0.325886863535921
0.327009614052113
0.328215837811378
0.330433860566616
0.332946564063573
0.33547104865944
0.338492296737886
0.341561922736143
0.344956976994182
0.348659108896038
0.352867025213667
0.357757733166892
0.36293858407705
0.368547669169426
0.374290513426319
0.37969336191357
0.384589720147022
0.388858992949096
0.392441010003328
0.395297737487265
0.397034769481086
0.397108005094183
0.395933504526995
0.393747068879947
0.390039484255823
0.385179263991787
0.378990383713353
0.372024911180139
0.365839197555178
0.360544447851633
0.355898897155524
0.352376846546186
0.34970150191471
0.347903278091974
0.347179955368505
0.34772648822608
0.349377275476192
0.351668757550994
0.354442876357443
0.357335799261302
0.360462782550303
0.36390830373419
0.367708527737675
0.371908256251329
0.376772643125116
0.38190663536559
0.386900385379132
0.39234193560277
0.397310213199342
0.4015823779938
0.405734161830556
0.40873996016039
0.411181099446478
0.413564079955121
0.41533068949687
0.41690341485663
0.418399550172775
0.419437968819751
0.420484275310915
0.421008478431284
0.420923699763778
0.420851439875829
0.420498758250711
0.420296961751747
0.420524009641366
0.420875742273063
0.422220864982692
0.424426046863105
0.427062345569839
0.429826195952114
0.433102644058649
0.436848074728639
0.440312582269577
0.443705123151026
0.44703650654686
0.450672628242179
0.454744336615596
0.458568175858192
0.462263135282898
0.466102026642923
0.469223006836064
0.471845707365687
0.473973227921351
0.475325857717571
0.476205458759184
0.476362835697806
0.475908478982004
0.47491605269432
0.474007629711701
0.472997762044936
0.472246410027033
0.471958922813543
0.471312823814004
0.470491180908419
0.469868625175851
0.469663386379725
0.468701121472887
0.467928422906639
0.467989099114623
0.468793331590302
0.470040625591348
0.471534028965445
0.472846551360283
0.473384640092657
0.473812178141471
0.47370192204472
0.47299133678056
0.471650544887779
0.469825877195204
0.467210026778897
0.464409972523466
0.461308501656114
0.457928159195511
0.454991838573637
0.450953288824612
0.446272208477814
0.441628656394416
0.436249713902484
0.430657408849414
0.425030631324644
0.419558840903058
0.414258529202247
0.409116845333378
0.404630713756086
0.400281127849588
0.395592228933738
0.391623044742281
0.387985040804746
0.383981597567123
0.379843692131469
0.37607855302504
0.373144317816377
0.371246019879566
0.369210042478517
0.366715374149958
0.365323238454458
0.363973158565727
0.362127475046762
0.360424364516844
0.358939513264314
0.357335832793411
0.356095856319295
0.355253914355217
0.353762281531969
0.353066538370722
0.352787253330929
0.352641087726124
0.352419332699273
0.352061949057714
0.352298635412951
0.35207086167422
0.351553133214685
0.351312088350852
0.350886087083544
0.350735839879152
0.351643408110569
0.353056500069858
0.353898216682445
0.354406066949404
0.355578268392597
0.356547171483496
0.357240802918828
0.358474577380491
0.359390190446175
0.360552910592823
0.36264773091118
0.364702133944825
0.366141347370849
0.367893278601419
0.370043742434386
0.372412551600804
0.374211027299463
0.375874692824113
0.378363718340314
0.380066113147278
0.381179871690397
0.382363750174617
0.383741249617235
0.385864333737454
0.388388415732816
0.390579480032529
0.392531605900786
0.393923357984508
0.394795917836422
0.396679931041122
0.398895831872326
0.399949997082397
0.400381049254946
0.402381050478781
0.404580425182115
0.405957520495268
0.407605368949934
0.408899439829794
0.409553903067771
0.410295188222112
0.412033411076721
0.413747374327731
0.414353983530209
0.414832416449987
0.416617374398972
0.418648149004931
0.420688934240546
0.422311349876679
0.424465512437499
0.426944047960114
0.42777511469077
0.429074169382605
0.43076103427905
0.432868079924195
0.43561214620777
0.438192161179709
0.441367465187264
0.444209842892806
0.447390341807614
0.450335381281048
0.451852934173096
0.454116432703381
0.456339049015467
0.457745121425334
0.459133144537441
0.461283061405619
0.464071221844997
0.467472131198278
0.470325740234921
0.471992702432922
0.473775094902688
0.476187665373766
0.478354083146332
0.479809036332775
0.482398802791664
0.485435615591611
0.487544953083784
0.490142265716726
0.494445870004663
0.498820995412436
0.500935062270382
0.503462429083181
0.50581909819268
0.508038235803091
0.513010760755187
0.516852845208426
0.51968662590996
0.523989899369421
0.527734160842233
0.531056290948536
0.535838436128273
0.540645794607562
0.544603917969368
0.548776772878226
0.55312620137275
0.557370676503506
0.560606831951774
0.563882052789519
0.56849598177807
0.573541116381458
0.576604760664575
0.579215207626722
0.58206150518789
0.584999256602801
0.588953677193046
0.591045047558338
0.592449883635514
0.594699485167242
0.597548331738388
0.600796368966151
0.605054250766273
0.609967820326537
0.613909206197442
0.617410620920649
0.621254104005568
0.622480092860727
0.623514547398234
0.628272798183735
0.630953567519753
0.634161815648981
0.639545722948061
0.643794384296677
0.646179707385653
0.647346908451902
0.651466440686571
0.656890512268517
0.660734658928945
0.66428396354736
0.667069039772157
0.67013787943565
0.674173716231491
0.678321408454832
0.680881266457502
0.68379277627135
0.687844104386134
0.692861183744873
0.697878124316806
0.698997249702635
0.701999586395071
0.707332321024321
0.708159008719191
0.70767104133709
0.709682844773551
0.715349740201741
0.72119576546235
0.726618078863342
0.732066428094641
0.736550418070194
0.740821288275831
0.742000403999072
0.744185740413864
0.747117306955364
0.749171967549345
0.754550881908531
0.761741498454667
0.766057301828538
0.768512904009311
0.77619203078375
0.780210954752165
0.778432731579329
0.780330424872218
0.786281422717376
0.79097061070691
0.793968404963947
0.798967913720986
0.803254167640759
0.807262372984662
0.812870002200286
0.818397302150891
0.823787231279113
0.830658413013699
0.836019307484009
0.836363907663616
0.837916578835947
0.84571373165752
0.849185326658968
0.851305929556135
0.86125113908608
0.863039761594891
0.859424367811539
0.868817693092256
0.876664862824839
0.873511158421336
0.875649817381303
0.882071495656984
0.887136174103903
0.896465377778077
0.905715735851609
0.903287761878378
0.907393906157039
0.918048098956423
0.922533769765015
0.928205791675503
0.935940160292418
0.938390312093154
0.942202305954881
0.950703133917709
0.953213560682329
0.952046144324424
0.954854196944661
0.95722956540481
0.959023664428037
0.970961816032259
0.979836789186144
0.968340413173807
0.97314783616581
0.989264665697998
0.980771698859228
0.975945441476131
0.985936239293322
0.994453673747842
0.997991988042225
1.00448127716828
1.01350579905234
1.02368305448571
1.02854089860581
1.02040897593466
1.01647727081797
1.02934385107583
1.04115039464979
1.02854376223172
1.02935722259872
1.04667835085487
1.05511203465693
1.05015655653459
1.04542351331666
1.05522396230803
1.0596452526769
1.05596261487076
1.05190565010125
1.0572617975416
1.06287518816743
1.07069595222758
1.07642534805982
1.07069848045893
1.07621556161605
1.09180965174501
1.10319974429143
1.10951679864554
1.1273975973238
1.14188059129
1.13768508148369
1.12550866973537
1.14770559812807
1.16924558405501
1.16411585213886
1.16633423141414
1.17276185174909
1.1586421935535
1.15882220205176
1.17656023266619
1.15082319179497
1.14357720100055
1.16196308780685
1.1784256312792
1.19044964672873
1.18670931243949
1.19469384299873
1.21855359633169
1.2250591420426
1.20783119684429
1.20483095964787
1.21185137730587
1.21763215314235
1.2239533632879
1.22400215259117
1.23050326129083
1.22223830223504
1.19003630357502
1.23861733286267
1.26964693305221
1.24346843526623
1.28288989933919
1.30428438515075
1.30563314055965
1.31120091139312
1.29098001954909
1.27229944865628
1.2628946476681
1.26210660016705
1.2993074860067
1.35152603492305
1.34300037695146
1.32557179354833
1.33683668277819
1.34251274269488
1.31610768283953
1.306626724239
1.33163045912241
1.36688156206017
1.36684500985425
1.36878437985018
1.39899190929728
1.38677892561149
1.27221672603335
1.23072688300966
1.33672828804169
1.44053788852389
1.4213139157709
1.42350292822617
1.56767542102936
1.57339365618537
1.46648056361072
1.4519852353562
1.50649614325426
1.50038703013998
1.457476317354
1.55781646025064
1.44993803912424
1.34835625563078
1.54231628477128
1.42134458775989
1.34265615577622
1.45132371677158
1.43520639877016
1.52326778446086
1.4585904873155
1.51820905074625
2.11517961515299
5
2.21222635013002
2.1828381027603
5
3.34801684818594
