3596
4000.36533379555
650.420452594757
1
2
2
0.0250089294600463
0.0248812508453141
0.0243912850814445
0.0234312112977672
0.0232369624362458
0.0235447037820616
0.0233374737999299
0.0233864352584051
0.0235473721115286
0.0240179218548422
0.0246683641383531
0.0241881825155475
0.023446293125648
0.0234590872814124
0.0237626107886522
0.0240446673799408
0.0246551830465252
0.0247628483175513
0.0233223307591997
0.0230439736843621
0.0241582680890375
0.0237159271799614
0.0236590025184574
0.0244503420195982
0.0243642073499059
0.0232908393883125
0.0230584977565625
0.0237169806110749
0.0236311564033348
0.023609321613808
0.0235881292421389
0.0237587008176803
0.0237998147642679
0.0236142402903116
0.0236386608201969
0.0235161004408755
0.0236521205366727
0.0246079979998625
0.0262044981489117
0.026555317118897
0.0250318058308102
0.024413877722181
0.0245149376399357
0.0244034722267512
0.0250215690056374
0.0248964175483945
0.0241335053050992
0.0239111597963139
0.0240178324187504
0.023950285624097
0.0238444659813637
0.0235686646808386
0.0238498083197729
0.024509761394873
0.0240733088736733
0.023195007868079
0.0226902978526731
0.0236128121060717
0.0252130543966332
0.0250557901596483
0.0242956451168955
0.0234361246329601
0.0233732963345277
0.024131269438367
0.0242639828488192
0.0249946974788589
0.0252290508539824
0.0249694691178095
0.0248787291674658
0.0253129445873033
0.0260759281917225
0.0257577530355204
0.0242089362126011
0.0243799583784104
0.0252994542760039
0.0244406678911791
0.0236580598518947
0.0244308961701433
0.0246708737811248
0.0234297934377671
0.0230388739017626
0.0229373768288727
0.023353101826571
0.0243297811365244
0.0237719597551912
0.0231033769080519
0.0231423916148154
0.0230605787405752
0.0222878528117887
0.022038247504886
0.0227981494958464
0.0230881083536075
0.0235818809054916
0.0244625164679168
0.0248864176722141
0.0246135292784952
0.023452369559255
0.0237612400685473
0.0256808336658092
0.0257100755396968
0.0244309530419947
0.0236938275328964
0.0238949328715959
0.0236606466723883
0.0235843105344384
0.0237710640440053
0.0238955150546204
0.023588735339948
0.0233976542535747
0.0237597040994228
0.0230617938084664
0.0228554031637448
0.0228741152244742
0.0231769709427114
0.0243116350337857
0.0249577154494518
0.0232110492860124
0.0220282721402308
0.0227712207954887
0.0235466297161121
0.0235266608015138
0.0227667691246454
0.0222488611162336
0.0220935998459248
0.0228422654235097
0.0245515089441483
0.0249034712154021
0.0242023490955644
0.0236266864043906
0.0229151736187178
0.0226855454779898
0.0232644621088327
0.0244151590404087
0.0245386488088599
0.0245189172541835
0.0232482446171898
0.0223996820058228
0.0234665406863338
0.0239698639567739
0.0231217697169037
0.0231330786546406
0.0237080760555634
0.023038533135145
0.0227292122089046
0.0235447770341732
0.0240682103084208
0.0237232558875707
0.0234446422489762
0.0236683083700259
0.0233094209655581
0.0234767451690408
0.02431135530927
0.0244004183927443
0.024153171045707
0.0240284900506966
0.0240699936582394
0.0240219868474483
0.0220602256529416
0.0214539911782246
0.022012378658981
0.0236505798522125
0.0243618440211792
0.0231501975986204
0.0229303089002871
0.0245474343879261
0.0252624721328351
0.024612189086233
0.0247903637208585
0.0253386772232289
0.0253081754710296
0.0246290387492054
0.0248542931053315
0.0242254212476052
0.0242567865089992
0.0255617160418797
0.0258318124076671
0.0248014000287753
0.0247361280588353
0.025694457123663
0.0251306010547695
0.0234837628437565
0.0231055943534286
0.0238715195717827
0.0241631248576151
0.0244519166434003
0.0249303221886927
0.0258891822023774
0.0266425224660857
0.0261700714434637
0.0249245381103545
0.023585461345297
0.0229101115954058
0.0235423599504682
0.0242022764018234
0.0253347632203761
0.0269605605296297
0.0266779690229447
0.0254117214868415
0.0253112965153952
0.0256822130792008
0.0262185645053372
0.0261543247329349
0.0263417279555661
0.0267942980544142
0.0272815119463825
0.0277708726057135
0.0276839085564307
0.0269578392756538
0.0266063765924191
0.0265422611501644
0.02718498860468
0.0281258294695312
0.0276870195109927
0.0271834312138642
0.0271395150029955
0.0277981918028014
0.0278630936413904
0.0282295641704875
0.0288454671945461
0.0282334949079059
0.0280904684676794
0.0285410941465374
0.0291775924315529
0.0295469501221218
0.0291344321705126
0.0290907935747484
0.0300793761582215
0.0300029509132121
0.0290018626180903
0.0291802408709228
0.0293931597975238
0.0298319286977842
0.0300851938070584
0.0303343040882569
0.0311944165785146
0.0314323174055901
0.0310449063361557
0.0304568740389607
0.0303971251588505
0.0305525237621427
0.0301416011096024
0.030493552226549
0.0321618608314155
0.0327170692235158
0.0326118882367533
0.0328116296404737
0.0327924605701341
0.0316811036335468
0.031615952286602
0.0322538063812193
0.0313344257637633
0.0316003172048328
0.0333495198055701
0.0341888056257968
0.0335723125424681
0.0335810861297463
0.0340366740735564
0.0337763575709925
0.0333704803145262
0.0327886328473805
0.0323758858814625
0.033320338724586
0.0339501067507929
0.0356743649600767
0.0365827112709851
0.0339567160806067
0.0338570712710306
0.0347687670934485
0.0362909518470627
0.0358235945500955
0.03480106396372
0.0365963951317141
0.0384834372248914
0.0363284671321145
0.0357341069505401
0.0376200697875949
0.0376897560289455
0.0375971919815764
0.038874180456787
0.0394472685164567
0.0403726467053779
0.0406582269526433
0.0417856455333587
0.0415231552588466
0.0410991394945384
0.0420808102660405
0.0418304498196419
0.04258305951402
0.0434638585373353
0.0438788350176735
0.0442941469913778
0.0448959705709462
0.0454331501975591
0.0466642752113782
0.047241084902622
0.0480049797780816
0.0485721391182045
0.0492251722590671
0.0495170012864012
0.0491410990845592
0.0501780876065141
0.0520509939226016
0.0529737907377368
0.0536870676813086
0.0543681762744948
0.0544532538935383
0.0559976775236587
0.057615610597629
0.0573426399844021
0.0585098021290392
0.0600024840054547
0.0601582881332162
0.0606250122100655
0.0625747486545913
0.0643909562843299
0.0655420400599467
0.0668431309260965
0.0684866238430256
0.0709042939108611
0.0721367061833439
0.0727795084224707
0.0747465104900799
0.0767529754760314
0.0785820756765362
0.0806974673503452
0.0826101362372871
0.0844367256098754
0.0861450805579237
0.0884499492166731
0.0918147886785753
0.0936415707674531
0.0946952080389861
0.0972401769874711
0.0992004601582761
0.101537008991754
0.103427267603904
0.10574479512518
0.109560853115669
0.113350196869823
0.116745870494424
0.119347036215106
0.122166373712271
0.126754661034028
0.129953024235521
0.13337313872456
0.138227591495499
0.143200832109247
0.146393415438705
0.145271887692536
0.146678438134458
0.151822459033602
0.159076576692967
0.164177838252024
0.166035169010574
0.168229598409286
0.172531928087048
0.176599688127418
0.181943348149916
0.18741777038674
0.191503244303579
0.196497530463133
0.200576241397271
0.204688101928188
0.209722397775328
0.214101811428167
0.2191400130935
0.226351997578063
0.233243809868934
0.234950978236358
0.235751391207342
0.239015421283232
0.244684882667377
0.251772273835771
0.25862076212052
0.265068453797981
0.267215392165242
0.268741088140613
0.271250643838669
0.274357583537467
0.277053031824369
0.279774382968574
0.286784987420596
0.293396214647452
0.297082376512439
0.301281988658223
0.30659713489619
0.311051929606342
0.314543146642547
0.317896324780209
0.321387410027834
0.327132619616023
0.333948301975027
0.33748543996577
0.339377650253454
0.343558919040272
0.351071368310126
0.361870112317893
0.367298938428717
0.360545126203225
0.356671831064137
0.360021630482199
0.364903355424236
0.368910519700629
0.37508477556046
0.380921164860441
0.386866317505452
0.394692817165408
0.399221942438108
0.398788281043432
0.397783655100977
0.399414823509027
0.402806249198102
0.407518477711203
0.41493969130095
0.420970733368329
0.421805542482592
0.421703558210863
0.427704326353387
0.436909117583415
0.439412718062595
0.437797377657196
0.436869844457651
0.438214580859938
0.442916954871464
0.449509811980687
0.454751328301125
0.46191641678055
0.467467229530955
0.46945110647694
0.471482355959681
0.475071873475739
0.478305810396043
0.483492389912166
0.489387613847085
0.489889413578499
0.489780404276513
0.493040790824729
0.497114467695458
0.500504389345984
0.509626394010846
0.516126876461901
0.517217730130922
0.517208425944315
0.514293743259343
0.518469434195009
0.525790698998393
0.531465242077657
0.532854854373474
0.539071265910847
0.549911681808763
0.553991184024574
0.553262205297706
0.555230839695492
0.561779327034177
0.566778023708959
0.571537237408562
0.574833791766749
0.575329261673084
0.579121874240819
0.583386844287406
0.58762452206613
0.595963399494221
0.603349643662037
0.607879106471223
0.608187125936038
0.604323227073485
0.604887351372548
0.607921623323698
0.609194818811964
0.614640404145533
0.626930115102901
0.632084939747365
0.632621784281155
0.638425299744132
0.644785316580357
0.646994692146747
0.652007772088538
0.659506065579475
0.663382328086341
0.664266403282406
0.662595459428479
0.669190469374859
0.674926045614136
0.678603159429272
0.685428388058653
0.687588099176063
0.689786845832851
0.696081402569201
0.703297597804286
0.705106650250989
0.71112624283898
0.722788878031581
0.725902434189137
0.725428522857537
0.729516037404553
0.731401557391022
0.733368695989309
0.744136221518189
0.748436085175092
0.75039829477794
0.758695338980575
0.761719914437276
0.763681914539668
0.766537895267239
0.770830938871372
0.777969794923617
0.782272829865169
0.781340325662286
0.778002777724851
0.777544464401554
0.791334210905366
0.8031371739394
0.802756540179431
0.80633652871403
0.813171134808364
0.822839771967319
0.823269132206035
0.824600282246286
0.828725799524732
0.827969723182005
0.829408389213412
0.842930866245323
0.856203517882823
0.854900014814365
0.861586652207945
0.868662413747022
0.867482074835237
0.872093897319976
0.874244955725835
0.872339633744485
0.875146943250299
0.881916337893478
0.88412760162802
0.893149827068752
0.902331490151908
0.898213551535179
0.89872807678676
0.902973665676032
0.910856736319019
0.92589820192394
0.935360418005828
0.935055670075767
0.940301082561243
0.949466067153831
0.9542294492829
0.961891713581032
0.966751845682848
0.965215896991024
0.962370811876391
0.967231431446091
0.973732164058835
0.983297018358347
0.985401672956138
0.980193989719704
0.991223239635424
0.996625961585823
0.98427712193432
0.984626219283231
1.00729729967208
1.02249261597879
1.02240836691586
1.02498715317053
1.03532189715432
1.04444168756669
1.04104630398253
1.03015313221263
1.02756896971907
1.02997070278116
1.03613392380592
1.05270544214504
1.0585701282869
1.0671466301173
1.08763566684669
1.09161538411669
1.09252544795814
1.09256997256665
1.0909620643204
1.09526720583705
1.09843333558507
1.11377375420242
1.13508440431917
1.12988819688021
1.12273065243439
1.12909686276385
1.12968351666528
1.13827030589919
1.1475830256163
1.14480839789043
1.15091353460154
1.15705851688543
1.16480397893157
1.1676732863515
1.16812939609358
1.17984742250834
1.18177820352169
1.18115500140646
1.19781437271494
1.21566857392615
1.21337244304848
1.20432413482793
1.1975898670187
1.19457906238039
1.1840242650081
1.18775823820804
1.19706491904528
1.20226159332319
1.22549170019379
1.24788534645809
1.26377094719663
1.25572361362752
1.23637129393407
1.25525337367594
1.28340066658517
1.28877094667642
1.28710483064304
1.29284068053743
1.29785143623875
1.28772414818792
1.29175586281798
1.30523143219051
1.30608889021445
1.30553668615175
1.30027928224364
1.2867463680593
1.28332680326293
1.30133616173858
1.31591332986763
1.31917888584146
1.32150032015961
1.32808039774163
1.34833873737268
1.35038035205822
1.3221456552159
1.33095419196899
1.37602385632776
1.38635241032377
1.37493601023697
1.36246908158616
1.34091840496873
1.33499977724192
1.32805459124418
1.33699107078512
1.37244539650786
1.38444109610902
1.41062393666646
1.42478434402186
1.39957615017527
1.39091837676959
1.38457572514221
1.38530541936231
1.38366708704932
1.38250150171675
1.41224032561419
1.44061362403461
1.4487203973614
1.44881851863816
1.44223635066168
1.44555009802993
1.44777332882619
1.44670849364285
1.45692235980219
1.45689095960284
1.45422243255467
1.43378477132124
1.43477180347154
1.45081616666596
1.42993218239073
1.44463332787302
1.46667222692051
1.45596315570683
1.45447043292948
1.44688836663374
1.44304388331962
1.44370955656089
1.41251874859595
1.40295337424693
1.44357804100613
1.47157349619898
1.47972390545431
1.47667522938549
1.48233916949665
1.48559514308215
1.47032360206328
1.46077215965882
1.46716246294788
1.48515698185213
1.47880282244481
1.49020468069476
1.49544969031876
1.47982927657795
1.48433120866169
1.46972660350872
1.45786701550639
1.47368272341652
1.48354766497291
1.46882251610884
1.48367186939678
1.50451099701793
1.48856474526321
1.49035469625411
1.47599145736394
1.46128932232172
1.47593572243814
1.47365793146947
1.47734026582113
1.494918407222
1.49602817390455
1.47950738382704
1.4655908764064
1.4744584717968
1.48717737686235
1.49234800609093
1.50318560828326
1.4895976609087
1.4846170654614
1.48309046233272
1.4630975895467
1.47363325919782
1.48660176469211
1.47559579788106
1.46850494719177
1.47535368248301
1.47853640943029
1.47375148545265
1.47087667115804
1.48228570001549
1.48227321962129
1.46586603418688
1.47028898364554
1.47191073923099
1.47204650483504
1.48828057923397
1.48199602069655
1.47776497219457
1.4788436210989
1.45701113615507
1.44783317696269
1.45064617902875
1.46115626479651
1.47130360118663
1.47599736181373
1.48401576240214
1.47788023862585
1.46400176435338
1.46139566865915
1.46353800388329
1.45776200276814
1.4666602578625
1.4732066402614
1.4684491203189
1.4680397440846
1.47781328898459
1.48023866647635
1.46288486933649
1.46353061267664
1.46181063610726
1.45905532779381
1.45900107888999
1.45611169469991
1.46729283868364
1.47111878231702
1.45913451313567
1.45994879837358
1.4647678711766
1.47528285969464
1.47972002743952
1.46265195295474
1.45207125553862
1.45898062611346
1.47203696866747
1.46398435675629
1.45687362430409
1.45419470984282
1.45669524973649
1.4595682428635
1.45491053670724
1.45202793848979
1.45257971056747
1.45671935679114
1.44968042663837
1.45524897342488
1.46610167692902
1.45852785325581
1.4596669974532
1.46793910579284
1.46380048612662
1.46413114755114
1.46588090564047
1.45789718119641
1.45174018895797
1.45080556462653
1.44806288232937
1.44419461966517
1.45545608520078
1.45834658022187
1.43433944614005
1.4332274761768
1.44401825534416
1.44596323131747
1.45364411055954
1.45475923147031
1.44884679726878
1.43935126100956
1.447479498835
1.44556984635418
1.43972763372447
1.44037978302655
1.44965022556186
1.46578039452131
1.46367137917028
1.45090708281263
1.43447431042748
1.43295452622769
1.44207452109585
1.44261848401074
1.43682992054371
1.43983219194478
1.44134791639703
1.42773055836776
1.4219990679669
1.41774553821187
1.41576314109791
1.41715185036251
1.41124765480476
1.41564612458486
1.42425143958277
1.42088226962296
1.41356539824702
1.40538115627228
1.39361236305573
1.38691915320476
1.38187719570997
1.38431481621875
1.39241582981941
1.39090153943871
1.38354941234843
1.38627097386013
1.39643288051768
1.38211107083162
1.37498585369586
1.38695105873264
1.36942752370185
1.36121003133487
1.3764369152521
1.37439812909575
1.36521896422601
1.36265907820697
1.35363113062005
1.3421983460512
1.34287363745037
1.345210596034
1.33886425786951
1.33041934745389
1.32323202123096
1.31819571128982
1.31235554788044
1.31491331661863
1.31357953221571
1.30665683879997
1.30199043167043
1.29330701825906
1.28601965414199
1.29449647699663
1.30214281456497
1.28931747519341
1.27361832602305
1.26304026025174
1.26606660726185
1.26686338751278
1.26664863923244
1.25753283532639
1.24087957454548
1.23550032960119
1.23591196942545
1.23112631700183
1.22745597234608
1.22818360899312
1.22190150433135
1.21471308727324
1.21159087496536
1.20664258252565
1.19613717029206
1.18120545295123
1.17426654024825
1.1766840721575
1.17071820331503
1.1646268049
1.16205628405839
1.1601880690295
1.15758155428736
1.14513191425026
1.13599857276248
1.13656029218572
1.12919892495593
1.11636815483935
1.11321203728383
1.10894329817867
1.10208042783446
1.09732545855478
1.08953269077781
1.0866677090684
1.08042396906173
1.07128086931396
1.06833511229602
1.06296439753372
1.05445834287306
1.04801949900351
1.0435106555976
1.03726461597245
1.0346279820379
1.03307125013666
1.02892345177256
1.02387059979676
1.02003420301383
1.01278790727845
1.00081457558497
0.995595828666387
0.991326470997485
0.982046277862685
0.976902182793358
0.972103070541674
0.961083359928451
0.954328578668894
0.951350223579931
0.947320900082701
0.945164829762325
0.939720504643854
0.932479569117367
0.929567336730391
0.922602826951929
0.911819619171851
0.905750070422422
0.901038494525006
0.897096831792331
0.892327619120487
0.88858355005343
0.881247588084589
0.872240057122441
0.868833290270383
0.866362312643206
0.860607569875755
0.851838495835243
0.845014251285478
0.837853503666118
0.833148012376694
0.829554423055196
0.824188579859062
0.821599267973454
0.820067849861148
0.814858152143609
0.808972161338894
0.803918012575743
0.79567868752187
0.788919259514481
0.783519753954905
0.775553992958099
0.773193274331937
0.773978190619087
0.766330406095039
0.75768560710036
0.753722690503488
0.748263362892305
0.742521794677632
0.739864288684192
0.736480656145244
0.729537092852802
0.724446148427518
0.721974482701789
0.717262194154976
0.71343679391043
0.710633545534853
0.7044762808936
0.698183577851773
0.692220142398914
0.685584332088598
0.681692590922087
0.678284973387891
0.673087261218898
0.668617498225647
0.665331859715349
0.659808465453193
0.654598833499787
0.65302950790915
0.650199979089129
0.64389476390696
0.637786022311565
0.634077902098341
0.631838857981295
0.628183432197437
0.624119822018355
0.620144162356525
0.615161290274806
0.610319205543576
0.605477103533605
0.601315078738013
0.597721211868976
0.5945855782815
0.59107247619234
0.586064203454346
0.581721116084216
0.578211274908199
0.574955748939915
0.571784963169928
0.567286528710442
0.562630677177436
0.55898664499727
0.555803858166121
0.552309858263547
0.54687586615583
0.542004535470043
0.538884853169129
0.534759561865423
0.53003096883474
0.527325526376707
0.525158033401867
0.522456267716429
0.519083266402374
0.513647768220958
0.510330777545911
0.508467985241584
0.504532484045106
0.499355212239053
0.493905576587166
0.489925835177477
0.487948780970292
0.484630751068456
0.481141346176211
0.479677356028735
0.476170112542251
0.473282239037333
0.471910070863699
0.468055438697746
0.463984083203762
0.460989745566287
0.457444933529663
0.453894512036148
0.45076746117851
0.447493127508253
0.444993587621117
0.441195655836914
0.438026677550833
0.436299631500349
0.43315920863214
0.430441068165212
0.426685589893859
0.422463893790826
0.420244345642608
0.418340644262609
0.415837557046359
0.412995846008705
0.409327448017887
0.405830126796105
0.403926501235075
0.401081824992199
0.396947980640641
0.39363766547102
0.390795524093346
0.388339694169057
0.386656651634299
0.385371811404038
0.383126267256047
0.380718671097139
0.377856518437725
0.3738902989836
0.371082609731306
0.369390063780202
0.367291995814461
0.364559738202335
0.361299598399689
0.359296827550252
0.35794485484061
0.354987945472841
0.352024473932676
0.349385456194417
0.34735893513447
0.345403004330822
0.34289629692651
0.341405819173695
0.339306397106573
0.336429643785801
0.334134306862699
0.331709923556577
0.329889760905638
0.328775792268589
0.327133851274537
0.325356686674351
0.323381198457825
0.321159394186449
0.318946224495768
0.316604976057865
0.314495808027339
0.312344916888817
0.310235406326202
0.308675308035737
0.307841215302392
0.307093899741008
0.305847531720251
0.303625540280649
0.301122112110277
0.299503611467448
0.298428935459689
0.297422163018268
0.296504747268455
0.29511968969229
0.293436121000268
0.291897590176112
0.290982903008374
0.28938159001763
0.287162605989788
0.285893630916609
0.284836819729504
0.283584318746557
0.281567639090888
0.2803122394304
0.280235239701464
0.279398247981098
0.277376123790892
0.275276625781283
0.274153653710063
0.273346766354359
0.272320959772161
0.271105056102145
0.269319548880499
0.267866553115386
0.266705298492907
0.265354885879519
0.264166055690785
0.262748202007442
0.261389507648878
0.260525171444041
0.259609302498183
0.258396374297165
0.257200987919594
0.256127959566217
0.255545370648627
0.255636111185099
0.255341973490872
0.254536831313421
0.254644600634679
0.255000075731847
0.254417842414967
0.253841924151642
0.253856348853396
0.253670230630738
0.252854204114863
0.252716264001893
0.253448389808669
0.253536837608948
0.252996709555253
0.252523542623656
0.252274689637539
0.251815142706331
0.251025234559047
0.249676930158056
0.247888837349387
0.246944241698312
0.246346001423483
0.244643840877257
0.242552978563355
0.240917127552269
0.238837634505364
0.235630335622332
0.232670166721291
0.230164310680486
0.2275397774837
0.22539178488091
0.222913708272076
0.220612407864996
0.218937106127313
0.216885828155968
0.21459861345685
0.213537408860977
0.21254356631893
0.210461753401002
0.208172063571733
0.206178938496646
0.20500272452594
0.203290920535034
0.20128505910988
0.200795863451159
0.199828867813467
0.197963069944641
0.196527624805687
0.195412443263195
0.194585350579573
0.193253756989931
0.191795761531253
0.19086564749433
0.189590432374481
0.187551834328395
0.186032424290202
0.185020736424959
0.184307966679415
0.183870349390461
0.1828403106274
0.181638410555488
0.180603577998275
0.179048094515018
0.17768215440704
0.177076748426857
0.176183870970968
0.175245399534
0.174427039907272
0.173347868117502
0.172173077055815
0.17156808549689
0.171746093652362
0.17069675485271
0.16909180330919
0.168795308378863
0.168294065181181
0.167369931086209
0.166354726646331
0.164659534336762
0.163665310963796
0.16344021947738
0.162097628901935
0.160647160782151
0.160247347337352
0.160601689394513
0.161252353520305
0.161377219419017
0.161293566757222
0.161245226167098
0.161346960376432
0.161895944731153
0.162146982103043
0.162205585938673
0.162455421297169
0.162187589372346
0.161281592822257
0.160174123136461
0.159025518358994
0.157424550803961
0.155450845405399
0.153492817227981
0.151347282362783
0.14894874691994
0.147153554551694
0.145563261915204
0.14314370240885
0.14141444856135
0.140220103705999
0.138458124323206
0.137106229338266
0.136070008026479
0.13482317725617
0.133494213096425
0.132784176878555
0.132121766517961
0.130843876045101
0.130200710738189
0.129612767551532
0.128530186064348
0.127615155935903
0.126440158872857
0.125443069414151
0.12501502672787
0.124236057273392
0.123411649277549
0.12297910438568
0.122530417307184
0.121933268715049
0.121318300033372
0.120738553292375
0.119933276037038
0.1192360243974
0.118710194177325
0.118360967722552
0.117806825293768
0.116870464728027
0.116464014319436
0.115747905578303
0.114831618599856
0.114509643418863
0.113916468480133
0.113503326505398
0.112955257312914
0.112070616362739
0.111651197247954
0.111153470887283
0.110729121600203
0.110587155465404
0.110108460032953
0.109403919862918
0.109178749562492
0.108969901083726
0.10815328408983
0.107506792661274
0.107026427634813
0.106211734438831
0.105532980016568
0.105018398264747
0.104672326560752
0.104409735097481
0.103881951240657
0.103201612342768
0.102732218214267
0.102425105524471
0.102077111082268
0.102073951383503
0.101795993751369
0.101075440007088
0.100390070822077
0.0998524366525598
0.0996833035154289
0.0994848707944322
0.098872169548707
0.0983367908323183
0.0981906937297258
0.0980575294974738
0.0979192172094173
0.0978164633579912
0.0973466211084599
0.0963456197110273
0.0958984184940394
0.0959384532313858
0.0957075337042344
0.0952800533259106
0.0945732063044995
0.0943444388913384
0.0942350391423094
0.0939857071870294
0.0939332693591606
0.0932678820644714
0.09273039884698
0.0924172615719039
0.0920946443322414
0.0921028182166023
0.0916229597288775
0.0913369925748692
0.0914613109623885
0.0910604933289516
0.0905471292472291
0.0900393301375662
0.0895232258230719
0.0892978185942473
0.0889296585861151
0.0883763766340035
0.088570445275892
0.0889075993083226
0.0885278902641853
0.0882065388641602
0.0879206539714304
0.0877329882007604
0.087586986384804
0.086916870746904
0.0863134463192691
0.0862504467788057
0.0859964496609374
0.085824143021573
0.0858195553351846
0.0853009929689751
0.0849904855567642
0.0850677593411242
0.0851039915801678
0.0846581263032885
0.0842757037636967
0.0841917048275787
0.0840486212676059
0.0840676061893836
0.0836794467033123
0.0831196305061368
0.0829343898427835
0.0830211399510698
0.0829247806231813
0.0824306774606898
0.0821767637545026
0.0818502526987757
0.0816661691102773
0.0817515551763538
0.0814885173108273
0.0810833680441983
0.0805215162058783
0.0802108224694866
0.0802042540905178
0.0802145145996277
0.0802214923084123
0.0799484677058795
0.0796300412271616
0.079330975840719
0.0790207294995576
0.078892670112098
0.078948258174461
0.0788429109756136
0.0782830897072076
0.0778438449134735
0.0777107490420621
0.0776976130714925
0.0777856152266411
0.0778363212046971
0.0777029332919452
0.077183394538127
0.07697148026547
0.0772237863777927
0.0771844877152638
0.0768672677972413
0.0767642453586475
0.0765081596719157
0.0760490571045875
0.0761538113712262
0.0759355949991123
0.0755785892947341
0.0753636606062304
0.0749999770226028
0.0752027565559688
0.0751039178143307
0.0746614392876182
0.0746931608665724
0.0748752422039814
0.0748230812591418
0.0745976963681314
0.0743003613394611
0.0742390082177505
0.0744187156791803
0.0745394038711589
0.0745784321835504
0.0741040744609422
0.0736718433935225
0.0734815408529662
0.0728757243760132
0.0726856580348174
0.0732494489390279
0.0733019714610926
0.0728481742309518
0.0723649722847805
0.0721376600494494
0.0722620568817614
0.0720866949935972
0.0718463069508501
0.0717563110430217
0.0715951353280742
0.0713380035738198
0.0713725254365299
0.0713929518619315
0.0713844585975588
0.0713851274649509
0.0710871344469132
0.0711846449929322
0.0712835189267703
0.0708703862086616
0.0702660190403401
0.0701299325238489
0.070497046452765
0.0704529062197713
0.0698930221199529
0.0697023363293715
0.0701890052324158
0.0701658463589337
0.0697386296472951
0.0696917268434475
0.0699116185000189
0.0699736328075863
0.0695552798575371
0.0690401715170312
0.0690263990585986
0.0691253614014081
0.0687266426449355
0.0685759513080506
0.0687077796547886
0.06874361442409
0.0690082446676347
0.0690287821738766
0.068712546807232
0.0685239486134445
0.0684311586582924
0.068367098552409
0.0682745394549
0.0685385083451017
0.0685935686238479
0.0681608123157657
0.067805382865228
0.0675574513395577
0.0673837810331266
0.0674931948416977
0.0677666713457164
0.06770154603935
0.0676920512600141
0.0676342934929936
0.0673946036822156
0.0672053204977823
0.0670660744352849
0.0670297358354475
0.0669877802236305
0.0671327136342319
0.0671872418470446
0.0672102891698569
0.0673108090546467
0.0672817822587054
0.0669410767704889
0.0668760841952322
0.0671531833614268
0.0669730810588025
0.0669134972703839
0.066970756474728
0.0669575721422282
0.067082523785165
0.0670525536737539
0.0668067469352501
0.0665473727340604
0.0665034292454202
0.0669239089143841
0.0668578260799209
0.0666280081429258
0.0671633057019472
0.0670918753932254
0.0666590811581851
0.0665203945503758
0.0662849370248039
0.0659923172764201
0.0658301618865767
0.0662211340453349
0.0664224450413835
0.0662315088283487
0.0663075143974438
0.0665355646071268
0.0667410059942616
0.0665718136176021
0.0663392342992757
0.0666436616083625
0.0666160589792382
0.0662461199388556
0.0664397998348563
0.0666087794429416
0.0666722735305549
0.0665084278009275
0.0663134288397842
0.0664114671908607
0.0663960643577651
0.0665687169390234
0.0665007066578507
0.0663446883849884
0.0663608231743869
0.0666286693551195
0.06686465151607
0.0667853144861751
0.0667217775959519
0.0669209702360877
0.0670522380885117
0.0668681028498503
0.0672258558808087
0.0673603527113907
0.0669779825260841
0.0668790394995568
0.0669146278556596
0.0668062318680381
0.0669854736727319
0.0673277658765634
0.0670082419037873
0.0668662908970771
0.066974037670572
0.0669013636011495
0.0670508377766385
0.067247451420279
0.0672673914015602
0.0672506544722366
0.0673665851258674
0.067501545917369
0.0675327092037866
0.067503087535693
0.067664142012671
0.0676997049316629
0.0672440911601619
0.0671675079485843
0.0673831549961941
0.0676409484269441
0.0679103899742552
0.0678195909628136
0.0677304854981937
0.067798302600347
0.0678408591067505
0.0679053023739803
0.0681034736067929
0.0682508502165319
0.0682236334339617
0.0682005331763551
0.0683205861560333
0.0681791666865018
0.0682841174787923
0.0684634008908993
0.0684617258670686
0.068456393261738
0.0683859463020914
0.0683838185873544
0.0683272365445466
0.0682881304417957
0.0684102244405862
0.0685991128177037
0.068734626130531
0.0687497383398473
0.0687767374455184
0.0687374919873012
0.0689266376858541
0.0693458542571078
0.0691886867157329
0.0692946128060644
0.0697256406319475
0.0695880206477887
0.0693138045139392
0.069543953012129
0.0700559501653421
0.0698849676668635
0.0694601736114415
0.0697170466826609
0.0699755115270678
0.069994855609659
0.0702071312072843
0.0700536697722712
0.0698352535889411
0.0701958424153444
0.0703202733145486
0.0704362054353267
0.070627818840704
0.0706544528575477
0.0708318136393515
0.0708597809408015
0.070575926528437
0.070645750734031
0.0708211792626233
0.070797492025073
0.0709674623589873
0.071063745324901
0.0711528997021524
0.0712233095306214
0.0712123845480438
0.071400038095303
0.071444097735838
0.0716225327861549
0.0716818720196957
0.0713232022034427
0.0715066904399485
0.0720059503693481
0.0719856628576245
0.0715519915815996
0.0715993527180169
0.071936852080622
0.0721928366055065
0.0724653364187944
0.0723290427439943
0.0721429306665501
0.0724422329691592
0.0724963375931467
0.0724293392153311
0.0726344014880366
0.0729966289437978
0.0730672408663488
0.0728279801984567
0.0726202953604669
0.0728946352356695
0.0730162983963683
0.0727805329263198
0.073161738678314
0.0734642517727381
0.0731428830114387
0.0730325395593665
0.0733152429995388
0.0736009321772917
0.0738462571950086
0.0740197579975781
0.0741970094802191
0.0739308401153966
0.0737631997802198
0.0741722918974804
0.0748217853130971
0.0750024580781402
0.0748441440859946
0.0749042509851265
0.0746926594839583
0.0747152222276962
0.074915397877458
0.0748778929810362
0.0748315975604923
0.0748954741324037
0.0750821602711561
0.0751749303279194
0.0752246540383926
0.0755198414327275
0.0757909997650559
0.0758330603128748
0.0759834606930916
0.0760203064283165
0.0761992936027026
0.0763921017870045
0.0764702884312261
0.0766868012862417
0.076902252596093
0.0769050545526693
0.0768778262845844
0.0772782966885166
0.0774225073368242
0.0772206315641594
0.0772004321972288
0.0774301136859814
0.0774290413756342
0.077430552715856
0.0777452780850647
0.0780549758675669
0.0785656852770112
0.0785746542748663
0.0782916828502698
0.0783528606063677
0.0783554855758722
0.0783387047325264
0.0784159533670859
0.0785254414595697
0.0788890392048389
0.0790510126259501
0.0791093696839622
0.07931960210839
0.079282624903571
0.0791781669487317
0.0794765666680358
0.0796063447126258
0.0794675692986821
0.0795367026998443
0.080115817957708
0.0803822480145201
0.0802091503421726
0.0802447249524628
0.080394557036904
0.0806285484860473
0.0806249945134426
0.0808304211130976
0.0812020372579667
0.0814861958270002
0.0818809245035046
0.0822126023020734
0.0818354294347908
0.0814446200460116
0.0817096542858361
0.0818365266472733
0.0818164995921792
0.0817680641575735
0.0822192818701272
0.0828074991825932
0.0828436591873542
0.0830765412211737
0.0830260124889375
0.0829966626584351
0.0831731874110877
0.0833014584411875
0.0835190352124286
0.0835729884747335
0.083663602919211
0.083846042395916
0.083917848007405
0.0841700727954789
0.0846820056826477
0.0850096327854128
0.0850199148679315
0.0846106969202105
0.0846616950447427
0.084956352873121
0.0849860252168104
0.0846866904004066
0.0844395392968834
0.0853260586313872
0.0856683478940567
0.0851758110350134
0.0852552053057711
0.085634780743918
0.0852474706704076
0.0856328846665215
0.086083248422312
0.0859778997406117
0.0863463527938998
0.0866051318197314
0.0871931149578779
0.0873582477473588
0.0869649128753653
0.086946312357681
0.0870981137679711
0.0878028933206189
0.0885685350172463
0.0885600576349088
0.0883974048619714
0.0887238301612671
0.0886226718374332
0.0881409096574101
0.0883242503621408
0.0891492021989164
0.089267042997374
0.08917625271723
0.0889815055946888
0.0893856556094213
0.0901803258649178
0.0905632513048816
0.0904292707743664
0.0907514853979273
0.0907334217316428
0.0908188170817157
0.0907520361555247
0.0911259420736401
0.0911895112863101
0.0913933082617481
0.0918286078666019
0.0924373195189477
0.0924775813252033
0.0925606574789235
0.0926858653757103
0.0929748276299323
0.0929260294153327
0.0931737061653461
0.0939086375818664
0.0936271694900978
0.0940070605144607
0.0939641023774656
0.0946682091929852
0.0943875828650463
0.0948513133749181
0.0947150553345045
0.0951217917877229
0.09553882963549
0.0960161897906305
0.0963440728693366
0.0963110684165452
0.0964985117181431
0.0962899706260644
0.0967086925706786
0.0967900205273715
0.0971346599830528
0.0976733887900968
0.0981449081721826
0.0982992820287665
0.0983451187739712
0.0983825901383249
0.0981402819795359
0.0986779207001411
0.0992612499569206
0.0995213655464047
0.0995947964976458
0.0994429266377798
0.0998822946637104
0.100203553264718
0.100322528459256
0.10083095578888
0.101295015078341
0.101235993671338
0.101336064323894
0.101739331697528
0.101908560873764
0.102101730494522
0.102136374086707
0.102476120558174
0.103039448942127
0.103316654813014
0.103476574408401
0.103221648050618
0.103725734464454
0.104234563703564
0.104233595635796
0.104271758374682
0.104299475460724
0.104570009555017
0.104766837920494
0.105173148077595
0.105793355680645
0.10599866287028
0.106071622692445
0.10608672760121
0.106325794074274
0.106820759498226
0.107060558181161
0.107352910615018
0.107629314008383
0.107911551524724
0.108239740466354
0.108562064062763
0.108896542141247
0.108945961033147
0.109087994983263
0.109253607693219
0.109527178705708
0.109915939025599
0.110165567400362
0.110157453256137
0.110216478189512
0.110552174403655
0.110831264225684
0.111254446046442
0.111652275443187
0.111755803541268
0.112064558038385
0.112434161503752
0.112562440579547
0.112837482514066
0.113076990246472
0.113275049417669
0.11351045683725
0.113889988306638
0.114398483144281
0.114450347302755
0.114536619623857
0.114979767316551
0.115063914649132
0.115088110028778
0.115588304359119
0.115818770898658
0.115899168052324
0.116350026492031
0.116709252205935
0.117048670289652
0.117163961098842
0.117346162285549
0.117669469004197
0.117806182108048
0.117953678192299
0.1182544911738
0.118457944037422
0.11880322161526
0.119002803681812
0.119245634891547
0.119749314573483
0.1199852869727
0.120378129845239
0.120782184260564
0.121075125167169
0.121262984057449
0.121342176086308
0.121490584103498
0.122099604616892
0.122625364138382
0.123098022598206
0.123194182894776
0.122901342676082
0.123443573625149
0.124007913770924
0.124470757367983
0.124870261508884
0.124787883125436
0.124631056175705
0.124843029301199
0.125035581155915
0.125186086240225
0.125643019141592
0.125732631347248
0.126174676626388
0.126750218946887
0.126956847749537
0.127137039730392
0.127219336054165
0.127418867401101
0.127644016618877
0.12771356197443
0.127507289584136
0.127580279859174
0.128260886182809
0.128746533593868
0.128841629540842
0.129230467296762
0.129744028929057
0.130079028323138
0.12996266959816
0.130307619334099
0.130823690324317
0.130625370568025
0.130894876774979
0.131499472436139
0.131678909443877
0.131721185842792
0.13204089733807
0.132130075318879
0.131995452461888
0.132367986620378
0.132704903902722
0.132924384649202
0.133250673054551
0.133052555250767
0.133141705127355
0.133711192923194
0.134027201092451
0.133941535656853
0.134256134335108
0.13449072549482
0.134366119385915
0.134892022543934
0.135308241870655
0.13520645044668
0.135249727113152
0.135673150815235
0.136042291964487
0.136160919859835
0.136144356559386
0.13630943490737
0.136414139702395
0.136810141450384
0.13712550543779
0.136967022676075
0.137077212176011
0.13714596184862
0.137366104313382
0.137444546807363
0.137535366275383
0.137735556626601
0.137708727255322
0.137927654684458
0.138042144843793
0.138201206191342
0.138411331728618
0.138283635187878
0.138172038475617
0.138505524284011
0.138655342230288
0.13851835760866
0.13882573274608
0.138917093921815
0.138669490312992
0.138669327157163
0.13892796369173
0.13898108155304
0.138839202205779
0.138871408513207
0.138862607038462
0.139156864439489
0.139341376927252
0.139177126120717
0.139219092455471
0.138931921761937
0.138967326846543
0.139191785139759
0.139259431050491
0.139416941255949
0.139386731855813
0.139395344373778
0.139496557747412
0.139584306173053
0.139561787121956
0.139656010632969
0.139462735686513
0.139137911679812
0.139225362377305
0.139225768052534
0.139170726343249
0.139286537437533
0.139397247520359
0.139391833615916
0.139341196847677
0.139134448011651
0.138748702595725
0.138978203784839
0.139305167026256
0.138994903431459
0.138861174272567
0.138677944504729
0.138497861935328
0.13867944144965
0.138673667601679
0.13837629283115
0.137974644841262
0.137868228546735
0.137939203460823
0.138097581137637
0.138056231514299
0.137908478766893
0.13802362632261
0.137965152214407
0.137635444139354
0.137546913204998
0.137576088612865
0.137155062267627
0.136523796125853
0.136315865740375
0.136143941213884
0.136069168315382
0.13635974716821
0.136344114053752
0.13592524707938
0.135589586305515
0.135596877260187
0.135423439285481
0.135183240270996
0.135180710181421
0.134812024732879
0.134594408300365
0.134768671078595
0.134600408239687
0.134451005715269
0.134268470657918
0.133888092795865
0.133796156209639
0.133687275736965
0.133281027282823
0.132994691909311
0.132758724314804
0.132448792274505
0.132330834691124
0.132303170592354
0.13217898704444
0.132069739922915
0.13190174175364
0.131523107617631
0.131098614082381
0.130756332765736
0.130438524048649
0.130204578148902
0.130071486533036
0.13013381161019
0.130045231220852
0.129694929418303
0.129445605858463
0.129206404895084
0.128957958613199
0.128781744040487
0.128426824119372
0.128010664823874
0.127626152414983
0.127344388309333
0.127269473111395
0.12705036546001
0.126706020474291
0.126513423024838
0.126084951920422
0.125645052199342
0.125560394319645
0.125520970460597
0.125311384420169
0.124981075103331
0.124765783616149
0.124608004457684
0.124138305211584
0.123736338642097
0.123654409008751
0.123398599354797
0.122926485239716
0.122279435840842
0.122070964814732
0.122057551324393
0.12193646787055
0.121556808363742
0.120762119683365
0.120642763104005
0.12071027983009
0.120433216520922
0.120040453458131
0.119815372509493
0.11938679503126
0.118817524409893
0.118628973779439
0.118472596371968
0.118052974063087
0.117625986090136
0.11732530423015
0.117108166733251
0.117209801208043
0.116948808362805
0.116707519974891
0.116528533017507
0.115632324594502
0.115146443688007
0.115175890850686
0.115059323295925
0.114926559817598
0.114408074253235
0.114302079849115
0.11432899930803
0.113583673578136
0.113290016660874
0.113088572498664
0.112954132180524
0.112990828009444
0.112366973787094
0.111939054676971
0.111623089198499
0.111316267554177
0.11135630223369
0.111124879105005
0.110849841720529
0.1106824690968
0.110403733454135
0.110000348011676
0.109630046563699
0.109520037096135
0.109351841690502
0.109116222685189
0.108660285073498
0.108335607013266
0.108502421701694
0.108154428465785
0.107554717537885
0.107168002466447
0.106982725123705
0.106720946784537
0.106238034022041
0.106167475628212
0.106117109040651
0.105893624293952
0.105718158024717
0.105666853992598
0.105537809645327
0.105370851061937
0.105027791975648
0.104486824777064
0.104083222905275
0.103907477716362
0.103888464360247
0.103449271532955
0.102934031058535
0.102860817868253
0.102912600180232
0.102899312152253
0.102520839739882
0.102045199766602
0.102044396913463
0.102191976437906
0.102104626586923
0.101731134824104
0.101423021136257
0.101869825161692
0.101524041926822
0.100602691549681
0.100726137278822
0.100794576903807
0.100450353203899
0.10016619608355
0.100124999723447
0.0999805193748155
0.0996826744404377
0.0996762561908886
0.0995811635086577
0.0990574060116682
0.0987802902335836
0.0988780830610699
0.098819200610241
0.0987100510464585
0.0987627280174476
0.0984355671859911
0.0979397033150948
0.0979754879690639
0.0980976759267027
0.0977860744492559
0.0974744517624134
0.0974493341311251
0.0973839223958984
0.0977760778067086
0.0980165958231182
0.0968909010018709
0.0966993894749424
0.0968745371487605
0.0964651006275143
0.0963104908038221
0.0964682611932976
0.0964025254167998
0.0962926640178668
0.0959913678462097
0.0957430512884798
0.095942218423685
0.0956060299887085
0.0954587943619285
0.0954162681742031
0.0952054765360237
0.0951878298559161
0.0951342587470969
0.0950483733581933
0.0949917407881729
0.0949389340738321
0.0950200256511429
0.094975031956959
0.0946214572174617
0.0946795330854501
0.0945091562059112
0.0942688096377017
0.0946272292154166
0.0946242216830548
0.0944272753597526
0.0950407755714502
0.0947753798048076
0.0937864683977981
0.094007268970419
0.0942112645142743
0.0943599903452413
0.094577260979495
0.0945012634837609
0.09437496804283
0.0942294807923251
0.0942011996057309
0.0942627844412018
0.0942538215518389
0.094121005742294
0.0940029098113673
0.0941094715703976
0.0940274546025173
0.0938035356962903
0.0938415960944939
0.094162183771292
0.0945386019846282
0.0948443088896518
0.0951953287289631
0.0943028134139774
0.0936895545508767
0.0939835984883364
0.0939433323371627
0.0938750980096807
0.0939112631159938
0.0940312779943239
0.0944161812604786
0.0947659041319125
0.09486429180424
0.0946406941554225
0.0944230920294954
0.0944486091000734
0.0942990092685171
0.0941510817159808
0.0942534904720144
0.0943396207501517
0.0946215341633165
0.094787445967853
0.0943951242348002
0.0943245943086444
0.0948614488662048
0.0953763707818232
0.0951328702297668
0.0949984663505556
0.095720474056825
0.0966834694178611
0.0952111327408395
0.094833840548795
0.09542985176171
0.0953274231228894
0.0957666627267396
0.0958972281309548
0.0961882127530467
0.0964463199195435
0.0961106361799039
0.0962403568555879
0.0966994750868894
0.0967157787165472
0.0966295751897558
0.0969981143080572
0.0978371808742006
0.0979501295215578
0.0972357920111281
0.0973255563753937
0.0978894146003754
0.0985891222457573
0.0986727901696577
0.0982540577530722
0.0986816094914873
0.0987344185891179
0.0984872590030405
0.098711533731987
0.0991604233106725
0.0995687056115353
0.0996877707346211
0.0997069739914531
0.100052783409453
0.100531571379361
0.100795206118026
0.101062706588207
0.101294548589255
0.101763999783626
0.101827662230118
0.101476128920299
0.102016877510733
0.102459996745198
0.102505369447467
0.102915042178503
0.103077555650812
0.103230188123392
0.104020398735951
0.104277704507804
0.104264060905026
0.104806674466651
0.104868207666391
0.10499454149797
0.105798536814205
0.106504345918169
0.1066088582345
0.106898160299379
0.10862827160561
0.109107999647625
0.108167032695917
0.108473380923615
0.108673162995939
0.109227810542292
0.109800872923931
0.1101788207875
0.110720185597326
0.11155088618865
0.111627148202936
0.111913716353409
0.112691806777933
0.113623314845738
0.114251869374173
0.114488663977582
0.115329262268245
0.115952539535017
0.116509498204272
0.117403406929229
0.117870385338131
0.118749222419037
0.120813962414251
0.121085516430256
0.121145712504447
0.121956125086513
0.123269319567679
0.124759309047484
0.124852485199639
0.125848721994018
0.12715468106775
0.128044673001994
0.129320350662131
0.131288723583053
0.133171121186618
0.133722557922618
0.135333738494829
0.137575595256262
0.139883986848887
0.143027923372748
0.14533109410372
0.147632832012727
0.150709239203418
0.153919503136688
0.156666804332677
0.160425791488405
0.163051889790621
0.165038180093953
0.168499843327422
0.170538573204631
0.171987163573122
0.173710359887741
0.175250913647332
0.176300246760481
0.177157499990619
0.177250966680006
0.177732047563353
0.179505323711435
0.179660532387756
0.178707722432142
0.178899668626943
0.179031680024292
0.1803508750672
0.183838796772704
0.185071053048283
0.184170837679132
0.184214480496993
0.18577217292151
0.188186022758592
0.189265366480619
0.190903974396998
0.193288990846396
0.195271655456619
0.197278220659238
0.199799587352084
0.202914961058841
0.204946086218168
0.207315567761266
0.210164170602484
0.212859154112057
0.216735199100855
0.221753186870412
0.225065399351982
0.227099517571299
0.231400066741131
0.23470694360232
0.237129405456196
0.241256648993189
0.24548093480243
0.24990404300911
0.253850668453926
0.257587984707654
0.261571552033379
0.267274539605156
0.272132793651086
0.276393259685392
0.282219793833438
0.285798011060125
0.28909611083712
0.294377312781963
0.308273370940581
0.310994103794685
0.313446455602737
0.319326913744449
0.326259163211945
0.337579355427443
0.34121248398936
0.345590502571321
0.352157416318765
0.357852405544262
0.364542993020943
0.372330324436499
0.379581424009282
0.387418222984106
0.394128192613672
0.398373574658582
0.406890367092216
0.422516762988411
0.430462762514284
0.434286279211701
0.438808258087927
0.447862578925361
0.458002923042086
0.463901383819497
0.471562614731216
0.478465867747903
0.487516571249627
0.503783101501949
0.507582804944481
0.510651888603901
0.518825894041557
0.529024416324984
0.534920158225504
0.546351991107664
0.558061861221041
0.561687384027899
0.568723351757085
0.576779967158337
0.584385161874731
0.591362361662537
0.604057509757908
0.612693569833167
0.617175292452453
0.624836410644427
0.631938080554611
0.639801488956171
0.647880093283058
0.654782174731029
0.66116113551956
0.672619743961839
0.690734604021046
0.7104597478909
0.702309724513574
0.696841568778202
0.701809380988744
0.707533541106295
0.715525302033166
0.72114313357649
0.731171377362674
0.736901119756169
0.733118975823821
0.736314314759683
0.741563946256335
0.744132396423575
0.747619966067394
0.750789502092227
0.75367533446016
0.758902147641815
0.758559074947512
0.764943416128234
0.772579426412543
0.75610807591961
0.74858626913377
0.750411114503093
0.748473842374463
0.744117376109335
0.739886204420493
0.739171972241686
0.738761295993259
0.730800310743289
0.723452610366159
0.718754672205813
0.718819037852484
0.7127448757301
0.69928310147563
0.689255156972671
0.681394940369449
0.674919229844205
0.667050321813445
0.666453252587635
0.663390029790869
0.642430118209806
0.628575651425962
0.620581972770313
0.612422150030433
0.605445440157415
0.597469586037145
0.588550018159941
0.578845817938224
0.570120228141255
0.5626222889462
0.553650290414214
0.545663497536132
0.537997473514523
0.529329696180465
0.521372901910703
0.513968957904919
0.506785144064829
0.499837057609116
0.493278077092366
0.486592716727631
0.479485615836171
0.472904357598274
0.467074314303263
0.46132908523179
0.455319312414585
0.449504204532442
0.444304061598457
0.439186235680806
0.433808842571011
0.427977405011108
0.423196157643924
0.419848491722014
0.416211012940786
0.412055159740808
0.407660793783878
0.403309269715482
0.399528890776236
0.395717694633699
0.392028401541952
0.388808702917856
0.385357080116705
0.384207735223918
0.387580038469496
0.382968392350954
0.376116646309367
0.37338316743013
0.371336817836443
0.368445112561513
0.367270825053393
0.369017734162258
0.366417479713329
0.362098535623334
0.359635523729442
0.357688857767646
0.356758176585668
0.355142479669246
0.352809981909559
0.351064148487701
0.349500028614818
0.351252561326256
0.35492591125029
0.35648977067781
0.353206241759851
0.34527432139636
0.341794318280417
0.342766041611995
0.343238799457874
0.339757959267618
0.336994713884273
0.335530125386135
0.33550471634971
0.33469072137445
0.332034769499524
0.329674823789818
0.328027266111168
0.328400336155207
0.327920810101212
0.324823048557131
0.323643434310359
0.323106383502632
0.32075067881252
0.321710095560313
0.321842698878307
0.31623712011589
0.312330407047604
0.310748072840369
0.309604915027905
0.309641931744407
0.31093841710219
0.308275711517196
0.304881623690683
0.302474305559863
0.300465056457149
0.299738995767661
0.29910897964512
0.297117705441826
0.296392801829237
0.295463881484275
0.292426962824402
0.29138472258319
0.29219154594788
0.292776524683987
0.290769231187759
0.286478612054088
0.284737948390999
0.286587967789881
0.286965365242411
0.284094301182614
0.281408086526113
0.278912714512046
0.278162196150463
0.277228734536259
0.274148137428133
0.272529610933475
0.272145282413556
0.271272247203233
0.27147950765302
0.271725184817807
0.268751100941677
0.265363408366096
0.263460239436573
0.262551437762233
0.261503081742754
0.26006786668516
0.259345092229674
0.259302536862375
0.258121939252596
0.25735386236283
0.257933698922238
0.256560627160284
0.255027786982114
0.254460701610211
0.254033821717356
0.254022980901085
0.254813173403747
0.254275659565639
0.252364173546914
0.251826327572646
0.251929530176066
0.251203368534389
0.250676393713943
0.250542118415258
0.250659688796209
0.250789943857452
0.251126410142301
0.251436160345019
0.251335588065774
0.251145250838151
0.251401176417531
0.252847751810408
0.253451901003212
0.252954569428415
0.254795319163124
0.2573104738325
0.258531818836002
0.258822931411689
0.259106234405138
0.260905980929292
0.2625673960815
0.263465078693246
0.264303449946113
0.266068546399034
0.267219909095716
0.266073403054886
0.265815962676985
0.266449391168115
0.266920489024791
0.267505654325354
0.268432236474391
0.269719519485783
0.271387848268828
0.270714923879443
0.268726734979276
0.267743910220574
0.267337631964176
0.267049892705367
0.266807700060811
0.266194338389152
0.265794530786002
0.266494909459549
0.266604332815017
0.265129428362541
0.264356199938558
0.264240379884507
0.264533515559909
0.264686272687864
0.264213649758209
0.263693235753738
0.263454550019529
0.26343445404766
0.263357913426998
0.264715253205334
0.266133388264606
0.263505719042575
0.261569224048449
0.261598506653821
0.261720793148264
0.261534218806874
0.261838840121259
0.261914710226904
0.261630253160723
0.261342832850347
0.26081741816025
0.260950259573055
0.261703132522475
0.261807624850314
0.261790920601698
0.261582105494458
0.261659319968102
0.262515391676598
0.263975576166699
0.264409834430094
0.263191160994994
0.263206849286888
0.263032000172806
0.262344693760728
0.262670515871271
0.262794374926392
0.262723234606546
0.26248381057854
0.262342455950817
0.262780824202245
0.262793249841973
0.262625900136111
0.262503264728624
0.262562191559001
0.262543911546366
0.261637272921446
0.261606764140934
0.261606005221761
0.261253037894368
0.261528422738618
0.261922181720366
0.26222997674744
0.261502518320918
0.260828897432971
0.26136458097146
0.261716923626908
0.260475733191089
0.259039250626396
0.258592062555594
0.258761071736773
0.25890757287798
0.259201199559566
0.25993686335737
0.26039139448249
0.259773362809813
0.259631279594215
0.259799250854926
0.260163635100334
0.260818099565343
0.261263062159326
0.261725625066749
0.26220206262744
0.262151109697516
0.261917593854645
0.261945211394441
0.261851319378522
0.261981433941022
0.262370271897742
0.262078664792171
0.261549233701042
0.261411264257562
0.261437337562001
0.261491627874246
0.26162213484191
0.261461963680283
0.261075730787455
0.260324854011265
0.25939570495835
0.259565915930771
0.260245096512868
0.260020803777879
0.259420302500766
0.258796513071011
0.258569765318189
0.258904425806584
0.258420493752381
0.258094968663186
0.258517253190269
0.258218696651376
0.257572571693401
0.25739361483339
0.257531493683969
0.257737069083595
0.257859912633554
0.258018519590563
0.257895876943852
0.257771264492365
0.257824481563862
0.257896924594213
0.257885768462889
0.257748484531029
0.257927117744619
0.258199535754562
0.258522857956648
0.258428652585821
0.258504792182915
0.25860309252041
0.258156420294201
0.257797320481526
0.257846182098572
0.258061580395846
0.257701481445084
0.257365030544251
0.257315444651577
0.256993022318133
0.256296213887813
0.25612114127781
0.25640875413658
0.256167756995698
0.255704879005275
0.255598146230253
0.255445967277963
0.255060798694764
0.255007003147004
0.254991182265154
0.254815617669355
0.254927457435171
0.254798763769633
0.254242101457487
0.254024774363696
0.254275794130923
0.254393020789571
0.254496937669298
0.254506355119466
0.254110874401704
0.254054011707572
0.254292480142022
0.254263777818221
0.254150388811245
0.254041037876959
0.253743628140397
0.253393718111762
0.253128476969292
0.252934495782888
0.252631051816877
0.252509597642854
0.252357532749682
0.252137550208157
0.251942391005062
0.251747696908055
0.251332833130232
0.250953930502946
0.251086544862962
0.25073650886286
0.24999861055228
0.250032527974155
0.250072453829732
0.250040591007768
0.250169331704723
0.249870591659482
0.249627801257174
0.249498856848047
0.249449933416274
0.249706997284187
0.249815007070192
0.249383820750889
0.249068335005403
0.248987807961645
0.249178522866627
0.249294485145513
0.249331624114588
0.249538903715248
0.249065992081903
0.2487518799804
0.24890005132115
0.248926359132577
0.249165519882332
0.249166552789051
0.248823183712069
0.248921639296914
0.249478896620835
0.249749488842461
0.249804484114972
0.249901798075582
0.249951809400151
0.250209515185376
0.250689315329058
0.250828479801038
0.251116627626027
0.251490544237889
0.251477924004732
0.251381471394116
0.251416598752894
0.251931227724691
0.25218957238538
0.252018880181603
0.251981190803582
0.252178286479305
0.252281210795365
0.252429812433858
0.252553524814723
0.25233881572166
0.252428203344201
0.252762169075061
0.253062924182645
0.253037401717819
0.252905236715397
0.252828868897086
0.252644867742745
0.252744345039234
0.252841558030053
0.252272367731549
0.251958746397193
0.251735735656301
0.251172062812214
0.250784275541241
0.250544563237564
0.250304380853443
0.249909063776182
0.249333509467179
0.248643456571113
0.248016869859743
0.247466661981875
0.246984506837476
0.24659682130272
0.246370258251796
0.246120543885517
0.245704383638384
0.24518904282382
0.244838446970572
0.24445121167517
0.243575814095062
0.24293796471881
0.242402747456086
0.241902766606024
0.241813601687217
0.241834083603397
0.24170033481066
0.24138955277972
0.241244674321635
0.240975447819131
0.240716317688896
0.240502462448495
0.240208181731553
0.240105274013573
0.240315258173951
0.240579167793686
0.240782413289692
0.240761286705163
0.240709765730693
0.240735134041113
0.240607575596871
0.240479664233077
0.240285733619513
0.240216009748423
0.24007821152265
0.239724691862128
0.239348896143122
0.23895359262435
0.238953507898764
0.238828447783502
0.238277666698308
0.237996632354544
0.237816848064251
0.237630434578601
0.237589897642489
0.237537295595698
0.237483426495496
0.237762109039871
0.238017060426415
0.238127157051462
0.238842779280998
0.239728095774293
0.240321963575413
0.240824171722393
0.241716880141028
0.242875216722312
0.243764363163447
0.244753872737085
0.246009573987303
0.247944524967376
0.24993297933736
0.251317889874228
0.253067569824706
0.255223672361336
0.257136356065344
0.259149431189334
0.261375931784104
0.263996183915195
0.266610862172024
0.269079245545346
0.271742841634049
0.274629940610505
0.277644247293141
0.280457086517759
0.282764172727517
0.284813009418829
0.286970910551004
0.288886830142668
0.290741731488315
0.292617523441071
0.293946055521904
0.295211405092094
0.296488164615864
0.297265361865124
0.297641799611495
0.297583784079739
0.297328083331161
0.296832481034069
0.296106743336575
0.295287556971948
0.294314642758212
0.293183380677078
0.292150598791579
0.291009867209361
0.289631708152409
0.288205087946904
0.286771162088565
0.285205908870518
0.283579328911901
0.282254405457767
0.280990952508
0.279805257427257
0.279022502031187
0.278796557611647
0.279013039552956
0.279274945142977
0.279683765402621
0.280420197876404
0.281571606812102
0.282939626186048
0.28425117004355
0.285724205764664
0.287372176624364
0.288959356983216
0.290367056043375
0.29194647288495
0.293665155792353
0.2947976589938
0.295400217348313
0.295929111392806
0.296631187299731
0.297121585493127
0.297171720366502
0.297103657087946
0.296904000437158
0.296957147175681
0.296696549034434
0.296359688611446
0.296530499987203
0.296947192672493
0.297496482457983
0.29775313661417
0.298164844950234
0.299290705170804
0.300483890489891
0.301856668183869
0.303581789149825
0.305054993114797
0.30645747030808
0.307571441488798
0.308612553842462
0.309571243781248
0.310432505330069
0.311422434979086
0.312343377586097
0.313601707958753
0.315140530763529
0.316688116199166
0.318176716218654
0.319782703819705
0.321876739521358
0.324162825476781
0.326168313364585
0.32854034489087
0.331190577134847
0.333982114404036
0.337405973844666
0.341126999104064
0.344964754446676
0.348685890408498
0.352283781485757
0.355330611960738
0.358167984621712
0.360530823851377
0.36200187788673
0.363329893950952
0.363650968965332
0.363096195591549
0.361951692733509
0.360014734961951
0.357506450698259
0.354178547797166
0.350497793244107
0.346538686893491
0.342372755928859
0.339365563972932
0.337137316529875
0.334948638980504
0.333301658873661
0.332646769688244
0.332960748709291
0.333782707482984
0.334703979168952
0.335802730847459
0.337016635648902
0.338413038823931
0.340372817699556
0.342377399971844
0.34472359258384
0.347362380010061
0.350097348060596
0.352989787751976
0.356054525062378
0.35913128128871
0.361698603418327
0.363856549291038
0.365615713969252
0.366937510677698
0.367994046381686
0.369263442221457
0.370429425995328
0.37142114385041
0.372127227680056
0.372486418023257
0.372883395705455
0.372851909553299
0.372076872795281
0.371773467370675
0.371770326585987
0.371508226368803
0.37177558270454
0.372272066564992
0.37327183724409
0.374606770569116
0.375172717198009
0.376231352758036
0.377642712251241
0.378741327660833
0.379800989572019
0.380704445195384
0.38166901819443
0.383290938099629
0.385276452132775
0.386318129502328
0.387065525228251
0.388262883650715
0.388877930557748
0.388335745480477
0.387429657954635
0.386587122962106
0.385874529644931
0.384272930969859
0.382092670068906
0.380769753289713
0.379567214205249
0.378541089349701
0.377541229015165
0.376430622923602
0.375636727426242
0.374856010191399
0.374164094922479
0.37391924767681
0.373526705900262
0.373528831561887
0.374282781156048
0.375025994771747
0.376124981051923
0.377459705932407
0.378373563044537
0.378214524550048
0.377908732888716
0.378002438216178
0.377318773775841
0.376210705636
0.374978253102584
0.373674356519937
0.372200419856703
0.370409238673641
0.369155684445044
0.367385396360899
0.365192364220164
0.363113919494908
0.360391690667535
0.357315163150246
0.354398365116509
0.35183714062738
0.349709816966736
0.347945627198145
0.345601879398904
0.343486031268674
0.341942636851491
0.340066313365366
0.337766372933902
0.335942876910148
0.334342078808959
0.332825669871666
0.331714096693695
0.330219324136625
0.329132798803625
0.328740315036099
0.328694102815936
0.328400366324896
0.327811626567866
0.327661647216003
0.327312259136453
0.326516648042225
0.326282772250116
0.32631192970045
0.32614163892169
0.326531721872713
0.32695890253071
0.327666379044554
0.32877417574384
0.328990589046313
0.32910770319898
0.329841111985751
0.329913344284464
0.330192004455508
0.331134491549813
0.331673347502656
0.332729793654866
0.334419424296957
0.335941149119578
0.337162654062239
0.338746335547395
0.339575979828104
0.340388502592752
0.341837664586978
0.34263052171515
0.344068320375611
0.345622482627277
0.347467927250751
0.349695655327136
0.351617173173507
0.353629414070073
0.355265971517873
0.356528569399697
0.358402538280659
0.360625536137428
0.361979358348753
0.363114945043767
0.364724314941975
0.366760140549718
0.368876353301256
0.370369228340774
0.37248018352431
0.375075789528264
0.376973908319739
0.378310998780212
0.379522801979859
0.381040969630791
0.383505063428444
0.385339657100718
0.386281357869177
0.38856034136985
0.391004448344919
0.392797900554216
0.394486689241048
0.396515080480215
0.398503768156671
0.399816911827643
0.401219251444819
0.403150248315541
0.404826335973665
0.407167032638674
0.409753553866187
0.411445095923374
0.414143498135252
0.417159692212302
0.418872869657365
0.420376739264823
0.42263809766321
0.42504151421754
0.427368812157221
0.429651744058186
0.432850500906583
0.436327287732545
0.43975542136415
0.443740690612393
0.44687405731087
0.449483713246678
0.451368696639015
0.453222424176133
0.456617813503093
0.458591405537358
0.460604358241475
0.464271383179237
0.467067994680846
0.46922784247924
0.471523523785549
0.474466462000955
0.478059454430502
0.480398530830896
0.481911268705313
0.484183490580386
0.486418967846396
0.489850678131403
0.494458517090695
0.498336252106736
0.501255026946402
0.503753582101341
0.506996696199917
0.51017583814659
0.512732443541251
0.515917409168162
0.51966350902752
0.523397320021674
0.527111372489126
0.531022891034882
0.535291260393489
0.538850700101807
0.543421162439266
0.547861991062262
0.551693253497684
0.555322326191341
0.558364789338919
0.562574898578194
0.565937148242935
0.568579547964737
0.571529126116649
0.575043889923749
0.579087271736819
0.58351220458861
0.587585979145138
0.589974763654673
0.592689455235149
0.596826599593948
0.600225354806727
0.603566898088139
0.607891802136957
0.611275775385527
0.614140722397223
0.619513509446971
0.623775432169449
0.625210812699868
0.627950172615601
0.630445568779631
0.634394477745978
0.638265890113538
0.642197748224955
0.647739551171302
0.65241818993307
0.65522088451153
0.65943150649025
0.663924846120748
0.668583400896752
0.671829612183571
0.673241471744908
0.677300364226357
0.68256129507529
0.687617921151801
0.690636841176946
0.693380431406415
0.695574885448878
0.700488853248384
0.706364433932888
0.709302947533306
0.71161646321089
0.71346764191099
0.714799301699291
0.719543793464902
0.725628334287905
0.728435592133621
0.733382136913544
0.73885090255877
0.743068685701409
0.744919018629073
0.748045515027113
0.755182673789916
0.757882170888117
0.758913532190214
0.763247364229282
0.768809555817336
0.772855602840977
0.773004866020148
0.778558006523845
0.786844469577987
0.792235977576162
0.796851528233837
0.799916343594022
0.803016750888509
0.807172304688943
0.812801994629491
0.819278646623009
0.822930612017423
0.825621841824432
0.832280099544418
0.837290498233003
0.838049288317439
0.841170585856145
0.846855915526951
0.848935448803632
0.852340961125776
0.864195583794282
0.868727142430703
0.868526385422809
0.876513686598145
0.881753024574238
0.883966095789717
0.889131948973472
0.894520024323985
0.901588790313995
0.908633624746689
0.908577063804077
0.908862880199409
0.911598033815605
0.916568139829595
0.926895316656869
0.929962545236343
0.933429788374066
0.938729447406904
0.942609213369347
0.947885160403921
0.948249014405163
0.948796411326059
0.954602806312132
0.960146928281038
0.967460026445501
0.977941110449971
0.980892708905837
0.981791325696817
0.984327613294525
0.987780419068732
0.993772796420462
0.994310384103489
0.989544352817362
0.998466845750596
1.01436508099102
1.01418192622697
1.02029182597696
1.03523679860431
1.04240322911055
1.04100756373306
1.03309315355127
1.03583329817848
1.04254262352144
1.04162108924385
1.04681841212535
1.05478327404959
1.06117029629398
1.06290924579882
1.06715494669691
1.07516700589693
1.08096369672513
1.08695107135913
1.08762762830959
1.08811435947236
1.08843172207514
1.08955348453417
1.08953646939114
1.09535526840493
1.11262936006746
1.1193485067449
1.11050446288367
1.11529285492242
1.13412751371982
1.15229232527395
1.1584757251454
1.15090951430459
1.14640715953335
1.15832722645567
1.18109046516439
1.16147881159499
1.13595567324227
1.14007282973877
1.1759257432867
1.19911534579674
1.20107677042263
1.20092574065174
1.17742397553226
1.19541407391097
1.22818899652288
1.22339106016389
1.21133464564257
1.2061976596494
1.22151586671552
1.24175652838717
1.23650950193793
1.23130975789348
1.26649180247109
1.27059307913784
1.23413358116441
1.26558170600203
1.3175326968379
1.30576403724846
1.32012320560412
1.30977707446531
1.27324686386949
1.286565658555
1.29874162339715
1.29420025202125
1.31634366658956
1.3534536391766
1.33072786320516
1.28816828963872
1.27725388792988
1.27602662117816
1.28707683850752
1.29766448695422
1.31882487061804
1.37684837353911
1.39710032943905
1.35248451039778
1.36162811670608
1.36622243709177
1.33639164811161
1.36345655807326
1.32952566392074
1.28285250386913
1.35573473629707
1.3948786593579
1.38361371629579
1.47326248470986
1.46591399260503
1.46469242319962
1.59353417904184
1.44440286557094
1.34987705939002
1.38835743589228
1.37157792734301
1.46709993803434
1.66892422030125
1.66658973540801
1.59080411096416
1.70975971455934
1.89851869308141
1.51993961317439
1.40507022013388
1.42738321618227
1.51953706285889
1.66705377218421
1.56329301896583
1.50024987311161
1.64527334716544
1.76622488309221
1.74181262785644
1.68602740979076
1.57132700180898
1.61542967798948
1.46796924452098
1.56692084047217
1.68919595300892
1.43501923344222
1.80353496962732
