3596
4000.36533379555
650.420452594757
1
2
2
0.0317684531795706
0.0310635698321773
0.0301816808971184
0.0301318284753093
0.0308560471741333
0.0298902951512804
0.0301299362844114
0.030964947276659
0.0313186225988954
0.0309807251855573
0.0303115931358467
0.0307249989933196
0.0312343167765456
0.0312242199963555
0.0312290882327221
0.0321997634820058
0.0321236890521976
0.0314080962251844
0.0312065785920513
0.0310006022407773
0.0317196864719271
0.0324012991872741
0.0321481937797809
0.0317103634533982
0.0320571213993736
0.0318688322619261
0.0312763670715624
0.031134760313248
0.0310483628092802
0.031574190055944
0.0313356189742056
0.0308558947403969
0.0310027606012546
0.0309396594117959
0.0315681308081831
0.0317323742938838
0.0309867731902078
0.0312250698853711
0.0318964204945455
0.031798241974227
0.0308810453111327
0.0313054748695012
0.0320881746111533
0.0315821322384312
0.0316347621211117
0.0316299769407551
0.031035907984583
0.0312471179372867
0.0319693469882002
0.031879742112203
0.0313867789918832
0.0311537427117775
0.0320586245032599
0.0323463179890593
0.0323275636601748
0.0314777143001232
0.0295990073998031
0.0297950598934912
0.031120093132927
0.0324191331839188
0.0315354301879761
0.0297529156341029
0.0304439591144076
0.0309921525022662
0.0303211254027723
0.0305874163527354
0.0315432453186175
0.0322628402295954
0.0322740872920351
0.031637667154192
0.0328758675678563
0.0318355142786174
0.0288481086590711
0.0300141492061167
0.0306960012868088
0.0307166702679472
0.0305341499986057
0.0302541381244845
0.0316136187482104
0.0311336718301041
0.0300037749302751
0.0299154960301771
0.0306934616507601
0.0327806909137673
0.0322860149555311
0.0297407241742641
0.0314723224846371
0.0331786300528635
0.0303560837904663
0.0295354565548357
0.0303135045000291
0.0306444836653318
0.031468285015527
0.0313724158685775
0.0310911472098957
0.0315243991786642
0.0310615694305246
0.0304536239683005
0.0314693798540986
0.0328455589976985
0.0329762513929972
0.0318937449408894
0.028051894147737
0.029664388105314
0.0282495571091797
0.0262619857759525
0.0314378887373599
0.0291007280178847
0.0268275302626028
0.0288012052780267
0.0294026265900044
0.0302633180997482
0.0313716929486712
0.0314247031561061
0.033844748846935
0.0335772517630709
0.0279858232360406
0.0283133108818843
0.0303185473209599
0.0314958297263314
0.0338010090844986
0.0333043125623709
0.0282273932590666
0.0282472936303092
0.0290991315129051
0.0301168149080456
0.0325167762373545
0.0305159190326138
0.0261971956551761
0.026972009924697
0.0288856025259764
0.0291045356310982
0.0310443969227951
0.0325171612609227
0.0284449454208883
0.0277337629642397
0.030944684298293
0.0341780763132308
0.0332684835776793
0.0263227895985467
0.0260038828224154
0.028769312539541
0.0319592195500216
0.0329174045162579
0.0279823596855478
0.0274521449100745
0.0302226993247958
0.0291196038139994
0.0278525144488896
0.0292054577109071
0.0303942990642879
0.0321433885701001
0.0318686253057535
0.0311489483337143
0.0361828669320846
0.0343704328611527
0.0234400837303484
0.0245771905620921
0.0223083371849909
0.0246397223688878
0.0278853606518735
0.0283230923925394
0.0291862470812117
0.0296020827294505
0.0300028763141006
0.0312591869283787
0.0320351651389065
0.0310230303688787
0.0323756406003851
0.0322968251428622
0.0293873286048931
0.0307440216627765
0.0334156176761962
0.0274751830765121
0.0261012503402468
0.0307773977749315
0.0295317860979838
0.0284136183273364
0.0320240833392722
0.0320365655312561
0.0278357815448232
0.0281697620423873
0.0304118167481814
0.032630030690124
0.032747682525937
0.0291129980518079
0.0291057021154489
0.0310770720484234
0.0318100441423039
0.0346479334928281
0.0352122166317552
0.0295728728761704
0.0272761859103303
0.0281377546282464
0.0309610544321989
0.0354504407104085
0.0327329495853144
0.0269646720442755
0.0285863953550471
0.0306630305891711
0.0315664577743122
0.0315879123539282
0.0322781002455236
0.0326805141585709
0.0341106957399355
0.0361757819201989
0.0311084546176091
0.0273809083264595
0.0303844003270098
0.0335346200650179
0.0354411976954761
0.0364434699282058
0.0318824126023104
0.0277583016712615
0.0299542192221249
0.0317131604016058
0.0330419325662812
0.0329836292644224
0.0312303976369742
0.0319094621096868
0.0322022804338188
0.0318159950082434
0.0327571654432987
0.0337102299527823
0.0337522613398994
0.0341123936775714
0.0350449550710331
0.0347999242298497
0.0346445608952065
0.0352910157685052
0.0343861070009075
0.0336144991952093
0.0351228040981282
0.0368876039296638
0.038407540169358
0.0370130542402248
0.0331924683390842
0.0340873010054402
0.0356103257440802
0.035242673702429
0.0351112212827095
0.0362280936152179
0.0363836828224687
0.0360741548709475
0.0377635443467021
0.0385167784443876
0.0354929545240467
0.0341995431708372
0.0358214985023076
0.0379093355214771
0.0378188033703613
0.0359533851727194
0.036993885373609
0.0382809866614422
0.0378798708864206
0.0387348650873632
0.0403608611444146
0.0376533377322893
0.0368603119457106
0.0385964439963218
0.0381887021177364
0.037865982790619
0.0383819159924436
0.0407546160417213
0.0431696991909656
0.0381731983294014
0.0383640749712741
0.0414616071176375
0.035415608112951
0.0346541911662592
0.0377919453425416
0.0416198723983455
0.0463957548761372
0.0382271851774896
0.0318411982408187
0.0379771334894944
0.0423008025736298
0.0423171925455855
0.0432011803758538
0.0447515869651802
0.0458078825284492
0.0466443748636132
0.0454206499396239
0.0425299359517292
0.0413767778525704
0.045467719476046
0.0458280695824876
0.0418739491369275
0.0430832682861054
0.0452875571210909
0.047237889803475
0.0489563948248753
0.0497413582645461
0.049956792532404
0.0492181041053695
0.0508487830470202
0.0545632811580401
0.0531987921281932
0.05158899489957
0.0541015813205734
0.0551749582782529
0.0543052208021856
0.0548302971440931
0.0562992192913171
0.0578326786274762
0.0586092255014834
0.0611986204858549
0.0646550128191837
0.0606582089424396
0.0597587421899625
0.0625158198714775
0.0610822117172026
0.0616318506042899
0.0648495166714691
0.0675017764966853
0.0693626707383874
0.0700035073099898
0.0719978111061101
0.0762440135346897
0.0765094381999916
0.0756007870321147
0.0773314081228227
0.0785455897851843
0.0806983570208869
0.0834836634640234
0.0855598011062058
0.0877932039386901
0.0900445230729947
0.0920045506610306
0.0955316430054344
0.0973968529010638
0.0974486944389995
0.102259952855415
0.10302438060589
0.0995705065849301
0.103356205526917
0.108521907055023
0.112122389767387
0.114816676262188
0.118456356790054
0.122150900919948
0.126181985925412
0.130741152000766
0.132659686502879
0.135396232290576
0.14218031063878
0.150043064460701
0.149383321199099
0.143250504989411
0.145878129626632
0.154076908362279
0.164820656793363
0.170449961660031
0.169402241536214
0.170378283755284
0.172540356935646
0.177966517581891
0.184131552959256
0.189697360708678
0.194829412018497
0.198960771605315
0.203710319684835
0.20800102819272
0.211741378985637
0.216254561117909
0.221033982853745
0.22904366696627
0.238013771956816
0.237476459502305
0.236500292789394
0.241736558995341
0.248670238416976
0.257131031882195
0.265467554096971
0.269648794941055
0.26885774250631
0.26930442194865
0.27229531043616
0.272584743956342
0.275369648328171
0.281897463303688
0.289284217049183
0.295765414741871
0.299830991801784
0.303328091255235
0.309365205834865
0.31564014776171
0.319486914281395
0.322710798758252
0.32577313315882
0.329676973458874
0.336493017879446
0.341955006646953
0.343974934252085
0.348903911971691
0.358475003380022
0.368600825232296
0.36969864761588
0.360354676455645
0.35726883409076
0.361269106051936
0.367946369450637
0.373573520983572
0.378402409204426
0.38472016683464
0.392520286019346
0.401223722368891
0.405556229194786
0.405032956965584
0.403776374398139
0.403606410591683
0.408893735595927
0.414662907924403
0.419889301775046
0.425509911934507
0.42560583321929
0.425931938664413
0.43264379069617
0.439742989712941
0.440724186266462
0.441424166305978
0.442443789171298
0.444887799298584
0.450320535044568
0.455919734361332
0.461139826968886
0.466693574350054
0.469330089016882
0.469928517386442
0.473938010528059
0.479618598457225
0.483613536580789
0.487198021726784
0.491882551869551
0.495389466316461
0.495728580532793
0.497936592430742
0.50191892777798
0.506876844271733
0.516878089528948
0.526417250137982
0.528769400347805
0.52516037060745
0.517464527597128
0.51766128754282
0.525549603864625
0.533452671573147
0.538679043457791
0.54285301008351
0.546337174329739
0.550490738940095
0.557240771331473
0.562448539830143
0.563154998175841
0.566578137681221
0.572750155215215
0.577613473939355
0.580608618732444
0.583363940388823
0.587453172250196
0.593413977654074
0.606303418570851
0.617662854747593
0.618754149772355
0.612936379801966
0.604797742168508
0.606586455846559
0.613939542341946
0.619005408340792
0.623947332225534
0.632990542791889
0.639944147836383
0.640517119487405
0.641959226408322
0.646145138648286
0.648258945258645
0.65258607708863
0.659904925159436
0.66390536058492
0.667692426605645
0.671274366745987
0.676840055140775
0.680227423902183
0.680706808929222
0.688593340199603
0.692983674653533
0.69392688619267
0.701495544030114
0.707044548448498
0.708526502906398
0.715640439206268
0.725350464059255
0.72884428871364
0.729731832146162
0.732571293469046
0.735839058149011
0.738601555209459
0.746289120159625
0.756851650779112
0.761849057490634
0.761262233151081
0.762547520527514
0.765852201574586
0.771695165633876
0.779285226222885
0.784658729495017
0.785471891967546
0.783832093170147
0.785365074328358
0.790238492594073
0.803728468598987
0.816859108793245
0.816139101730832
0.81389185088027
0.818869827632753
0.823520682608713
0.825511432098207
0.829417768810208
0.832875447075286
0.833554514698745
0.834907737219372
0.842871837620813
0.855287641456224
0.868748366324896
0.876758258818225
0.874622897867168
0.875834626816346
0.88501717460815
0.885065139212548
0.879865887120017
0.885908180705686
0.889981017747666
0.887238764290203
0.891420234833166
0.899947773310181
0.904650144994677
0.905932476735738
0.907569032767935
0.913436816947413
0.925966059241893
0.934036262476046
0.937936821514799
0.944049384630077
0.94855349939583
0.950898505665401
0.956365689785885
0.961637425458668
0.961797143018311
0.965704522753317
0.968193771502802
0.97043812562376
0.983202468101436
0.995013002529443
1.00123588943336
1.00244724035389
0.995420681940062
0.990517441830059
1.00091754595847
1.02093983650267
1.03411102154176
1.03889088785949
1.03404190988986
1.0351996684302
1.04420812300639
1.03968286531517
1.0388365814974
1.03914308197073
1.02636150104169
1.02316469292126
1.03628996775186
1.04573332915
1.06743035983895
1.09866028866555
1.10700299534991
1.10992213306587
1.10954644054469
1.09845225301794
1.09110539265858
1.09747210866807
1.12424993471129
1.14946105332485
1.15177175834481
1.14507618872225
1.13699956914593
1.14692820564472
1.15656273067103
1.14788398677445
1.14566983431366
1.15160792600592
1.16194463745027
1.16944454800525
1.17140549495802
1.17809486195197
1.17814550130736
1.1753341570657
1.17617938479086
1.18984338183601
1.20363379613043
1.19880438929885
1.20017790559929
1.19263816768026
1.17950969394039
1.18747565556899
1.21268872586324
1.21402080184749
1.20774199843395
1.23501459962422
1.25225039188759
1.24419569180487
1.24128955292045
1.24413493222265
1.25410097121319
1.27967946219692
1.2941021785971
1.29599100170757
1.30484193791944
1.30141878104275
1.30409461372406
1.31920715583074
1.31117317928616
1.29692830243711
1.30324312326262
1.3192568622808
1.31771918665377
1.3163409812302
1.32218308310483
1.3223637355375
1.32958156128543
1.32386276649263
1.31525850698821
1.32519990239214
1.3349572448292
1.32509437468548
1.33888620897564
1.36808897014068
1.37299109311654
1.37144782666775
1.37747423066662
1.37435874875028
1.34688521088408
1.33477400297011
1.33733817511906
1.34167281567272
1.36652181747518
1.39973172032798
1.40540822350954
1.40992910404989
1.40449466683668
1.39530250947143
1.40071781967847
1.40113776766812
1.40587864154705
1.41581011846234
1.43553780908095
1.45555395890583
1.45204200721014
1.4423982352943
1.44548961601424
1.4440725032895
1.43454172279563
1.42244981161204
1.42236675024574
1.43698043175373
1.43502701877386
1.44129730957801
1.4521956613011
1.43960020315026
1.43679003361942
1.44880562214667
1.46982165559043
1.47620330410201
1.45777566705353
1.45073495841576
1.43656414660181
1.41818370058572
1.42367045351007
1.43695679502211
1.44790979143363
1.46116218907952
1.47307080608721
1.48844164985267
1.50372860202522
1.50319147719688
1.48987711593477
1.47803557902964
1.47666756885705
1.47972049615026
1.49433357984658
1.49674685172001
1.48480262042575
1.4747787102197
1.47757804563851
1.49597465189617
1.48973301621699
1.46795039475485
1.46416292263766
1.47380972238078
1.48476292033128
1.4886527173499
1.48300997427464
1.4729233015046
1.47807788489172
1.48556638054167
1.47079455529242
1.47302463133569
1.47471734475748
1.46732195854604
1.46994375085141
1.47124847587402
1.48941546822922
1.49749665442846
1.49367217283728
1.50347466423918
1.49591010131186
1.4716845364983
1.47385736707449
1.47720198334425
1.47935827552277
1.47643562927725
1.46473418370452
1.46037608269247
1.46653377755417
1.48529491254411
1.51005406518796
1.51270298922977
1.49590017591406
1.48107895447971
1.47316421468506
1.48105917141975
1.48393406052162
1.48731386763189
1.48955579863849
1.4813138832185
1.46006074079491
1.4558360226491
1.46033673189598
1.46351804417686
1.45451341012857
1.43465295906266
1.44930770508488
1.46008273136706
1.45512064583721
1.453217782864
1.45419956927555
1.46630162343299
1.4666490746498
1.4689051325901
1.4676120462214
1.46442006672689
1.46814500936615
1.47480771800536
1.46933490440939
1.45647251902454
1.46027290493163
1.47236859435162
1.47624756975347
1.4538319649686
1.44895843288403
1.45332812156151
1.4587490227152
1.47275981720009
1.47330052201976
1.48436547621572
1.4911323713503
1.4777795757434
1.46204661289769
1.46744584733224
1.47581813645308
1.46389262406785
1.45777428221852
1.45150003852796
1.44735589222976
1.45033129662646
1.44871381288343
1.44892680860048
1.45084666787624
1.45329495004136
1.45440810893671
1.4544404117246
1.44989679082189
1.43620614850997
1.42841677083758
1.42602676807978
1.43072654391784
1.43385693290356
1.43631585865443
1.45590992647988
1.46598096007986
1.4544956970736
1.45645134014315
1.46396378517398
1.46574364589748
1.46759749619531
1.45821447818038
1.45063985448087
1.45073535786021
1.44609036925745
1.43563948248999
1.42452191227729
1.42409223162563
1.42750176948573
1.43982101748202
1.45903220192202
1.45376843205019
1.44249535892603
1.44046181126873
1.43131247101612
1.4414890855349
1.45479216348419
1.43563541726714
1.43122993630248
1.44378555339813
1.4461159814084
1.43274227489373
1.41840268260294
1.42138869451716
1.4204496455127
1.41713020055528
1.42348760935927
1.41522222118257
1.40420018156542
1.3943505071001
1.38308238322321
1.39020028236075
1.4073662121982
1.40447041418409
1.38934276223478
1.39326475447026
1.39857707709416
1.40294573207641
1.40185469587248
1.40371896817151
1.3969127046854
1.37633677281233
1.3800362326437
1.39818541656154
1.39215674868451
1.37774213198694
1.38334203182514
1.38094084179281
1.37302047949975
1.36950059949886
1.36681743932038
1.35798212458245
1.34251212354172
1.33456310478806
1.33572167193964
1.34009148846674
1.34125432331837
1.33389918549269
1.33056196501303
1.3262538710524
1.32235629390214
1.33037525005263
1.32484091296116
1.31159439028537
1.30421323341562
1.30201103647157
1.30198206745692
1.29603757131942
1.2834144176233
1.27876393234681
1.27850484680069
1.28200422408939
1.27905045885317
1.2626788183573
1.26255212131155
1.26366864578214
1.25820918617865
1.25093780112588
1.24611440457613
1.24611496798554
1.23627281080173
1.22244381884239
1.21875227341656
1.21543640146233
1.20978461243821
1.21165345355674
1.20429845685876
1.19876234529791
1.19578732674468
1.18863350989178
1.18706125727333
1.17895608660327
1.17133239676888
1.17045481461144
1.16652832741132
1.15617067824348
1.14657724100338
1.14213041256508
1.13825439629138
1.12966527450869
1.12143143583853
1.11685263924707
1.113093322885
1.11006885724852
1.1071175690174
1.09614046231763
1.08707776388898
1.08962366904497
1.08774341997333
1.07674499522324
1.06638248577837
1.05987438239018
1.05019685856149
1.04427594955047
1.03777754072416
1.03017144488105
1.02660207102529
1.02594806507345
1.02296334193231
1.01719392497869
1.00971717368494
1.00650595330574
1.00243143945722
0.99326963373701
0.98826298313432
0.982793594914031
0.977837929721863
0.971985344844885
0.964819356770196
0.961437835747851
0.954765231076841
0.948250603682642
0.945163673536178
0.941381568231755
0.93701669431482
0.927905096951562
0.922040355104239
0.918144739206052
0.908972533933587
0.902298678618158
0.897515446168852
0.892501861293046
0.887653157758687
0.878886691984835
0.872172813650669
0.868750703022553
0.865409594775393
0.858130246289698
0.851407642128193
0.846862176393557
0.838114079769924
0.830468614209229
0.826319233245409
0.823210359842217
0.819782593548617
0.815961795783044
0.811064021343397
0.809023859212687
0.806052293737985
0.79760050136365
0.791918857735248
0.785831710561203
0.778655615764083
0.773579254747708
0.770577645552536
0.767688619291002
0.760957558364496
0.754682151095232
0.750829540203509
0.748623261903788
0.744030002451619
0.737609273902586
0.73274678386622
0.729098041663052
0.724281548956514
0.717750421962561
0.713528950559139
0.710973117621839
0.706628406272616
0.701033251959427
0.696649475404428
0.690695983412412
0.684422057875019
0.679783489348741
0.674924171997319
0.671070401694636
0.666145219315296
0.660800952473516
0.656387576361943
0.652537140968729
0.649563635715544
0.64621478671743
0.642559371084742
0.638996207180591
0.634543609225505
0.629614690633136
0.62490921740736
0.62077707809691
0.616724623837802
0.613575182325515
0.610740592786354
0.605964018488523
0.601762458242814
0.59797696321186
0.59417621189952
0.590039081156984
0.58509022901482
0.580125611227512
0.576611493202517
0.573905630121235
0.569726235999023
0.566482193460664
0.562432965301546
0.558332726158004
0.555372508223015
0.551775747645773
0.548864397528437
0.54476959044425
0.540748812732585
0.53718423645421
0.53197381248304
0.52763590903928
0.524362168307241
0.520331979853245
0.51648137997145
0.513985082616651
0.511143595890784
0.506963971106645
0.502646080937007
0.499328001586695
0.494870113395443
0.491273698565417
0.489826771279588
0.488031424841199
0.4856152169054
0.482151335089384
0.478006736149734
0.474433234726863
0.471912800655703
0.46861980723236
0.465344753394611
0.461673860950907
0.457466623115325
0.454866540077668
0.452148940497427
0.449310295608905
0.446767499423842
0.442683534658696
0.439214002170077
0.436365425465725
0.432773050999679
0.430682175784689
0.427854029198991
0.424590412152795
0.421639640058052
0.41812334897289
0.415653532233139
0.412869365853848
0.409478870677031
0.406792337562593
0.405007803810347
0.402997512677255
0.400321521417423
0.397538337588076
0.395509996476328
0.392699438976803
0.389598357184891
0.387534253104679
0.384930344029449
0.382138563043215
0.379937285131327
0.377677305147995
0.374878880182353
0.372090757481494
0.369502188659345
0.366698006529777
0.364627881494044
0.362802776106174
0.359988186959913
0.357282806246032
0.354853873875267
0.352582387506297
0.350575925289402
0.348556857545206
0.345950281818304
0.342721533251221
0.340753175392895
0.338952269459552
0.336947605390727
0.336102297691304
0.334458125975088
0.33259299223889
0.330795071871504
0.328481161473729
0.326465801807451
0.324225653471999
0.321609368639702
0.319660152628645
0.318078356352606
0.316345946057818
0.314598607027296
0.31310174994243
0.311778174975227
0.310465886998836
0.308498928822637
0.30688549268156
0.306215941370265
0.304686099459376
0.303609884925205
0.302286406863934
0.299963158726826
0.298475239955033
0.297495449026871
0.295374204750082
0.293450106650018
0.292769415683495
0.291881170997612
0.290456920964593
0.289205830490914
0.287691942594381
0.28644729756042
0.284914851690885
0.283646077280197
0.283363274598489
0.282049554602879
0.280520096776779
0.279507742067654
0.279019208201469
0.277702226341665
0.275929050103832
0.274466082943667
0.273119489265381
0.272571327882141
0.271476047904796
0.269669785758118
0.268355894036504
0.267508695692542
0.266025981914011
0.264384424920593
0.264008480213866
0.263480903955524
0.262489041913551
0.26226354188363
0.261894983010457
0.261336618903513
0.261435950365615
0.261948193513842
0.261934117735309
0.261111185085787
0.260790095127235
0.260533910401469
0.260473090451137
0.260928015265436
0.261039069742685
0.261229284156722
0.260768033469571
0.260716071854524
0.260761520210143
0.260234242139987
0.26000351472417
0.259303059114877
0.258042326964834
0.256503920640523
0.255354573759283
0.253720630749295
0.251610710970649
0.250440415191012
0.248928543853112
0.246236952404157
0.243991772090099
0.241195869164007
0.238873775648599
0.236903124389191
0.233773934665379
0.23148172940573
0.229317558464509
0.226588515931139
0.224513316218135
0.222862791541927
0.22065773987059
0.218468475407444
0.216573786790129
0.215448136268713
0.214741751303489
0.213853911269544
0.212016058858744
0.209983355727957
0.209217956655191
0.208170364703595
0.206777410670561
0.205273605967929
0.20386218689358
0.203031348380365
0.201596230245606
0.20021831048005
0.199094506528621
0.197530461183448
0.196734059921426
0.19585324763009
0.194457427766798
0.193418367450503
0.192390977189378
0.191103769789387
0.189993147220337
0.189275712077937
0.188477574466891
0.187350612708114
0.186275343281483
0.185338199874925
0.184084799831575
0.182933957733044
0.182402784395971
0.182332100368411
0.182073628147719
0.180551207150102
0.179260501953961
0.178302226623541
0.177230324390748
0.176202733047361
0.175373813450679
0.174738650351233
0.173761977751173
0.17316231183761
0.172193039184394
0.171071885761497
0.170563889792602
0.170105182096736
0.169299009952588
0.169178599424154
0.169453596352056
0.169213828405107
0.16928888898855
0.169589079202121
0.169990773462105
0.170349241869588
0.170686167616427
0.170890230211985
0.170471562053276
0.170233714205857
0.169115434727027
0.166704426914174
0.16439523453884
0.16282793731151
0.161450747486044
0.159571687940113
0.157013776176754
0.154658524312222
0.152895511424841
0.151042360287658
0.149687918578378
0.148135172837614
0.146699099393566
0.145426072807933
0.144078367737473
0.142599949832807
0.141342483778754
0.140546971341696
0.139473487852744
0.138399947390607
0.137445507027216
0.136627894274509
0.135837806814503
0.135320480065416
0.134753248533472
0.133933529186693
0.133047472780973
0.132494254311329
0.131796845222934
0.130347493069702
0.129436152910609
0.12903721275472
0.128469807348446
0.128356745595132
0.128345765799921
0.12770538288291
0.127029085925595
0.126398543056135
0.125300760035166
0.12439868097649
0.124243556379919
0.123850226091371
0.122797475139455
0.121890496952361
0.121214392017525
0.120549914272785
0.12005841066228
0.119229971451711
0.118365949286785
0.118150386382857
0.118095595550883
0.117568840712874
0.116894290791403
0.116649090345534
0.116505424698702
0.115760294419301
0.114866769870045
0.114729456875128
0.114648248324517
0.113885746282449
0.1133191344523
0.11278910062425
0.112034206733008
0.111516024346966
0.110991196454489
0.110729640422202
0.110475348417075
0.110296135924455
0.10991992749646
0.108876309076802
0.10807489940858
0.107962548011479
0.108194052793086
0.107528022739608
0.106439707290253
0.105920058611708
0.105553420902123
0.105237210780443
0.104792203859256
0.104739919688782
0.104670795994933
0.104231867699214
0.103921134890618
0.103333433112901
0.102763927101299
0.102527358575773
0.102118214541861
0.101822177947971
0.101499403527124
0.100738615947126
0.100390326494976
0.100790980636768
0.100788200743905
0.100348467848125
0.0998888275284376
0.0992424234596805
0.0989402347323958
0.0990226552116539
0.0989024412963711
0.0985498881361233
0.0976779724287635
0.0968232353686279
0.0965529284501472
0.0962527184108902
0.0960537154916392
0.0958633709826172
0.0954962361576088
0.0956753120757427
0.0954749003094425
0.0947042591313859
0.0943361733348591
0.0940572843095793
0.0940255724912599
0.0936813814050743
0.0930780720989112
0.0929321137158795
0.0928233672724228
0.092634295947357
0.0923237297988536
0.0919323949476584
0.0917995671783282
0.0917081394927812
0.0913797879444179
0.0910978795197066
0.0910406965684975
0.0907400133103943
0.0905939420914406
0.0906542736320435
0.0901296973308878
0.0897758927360738
0.0897848161174655
0.0894683134007619
0.0891998095103134
0.0892549972863558
0.0893032529403529
0.0889392405117891
0.0886032223992266
0.0882714436783245
0.0876912492737115
0.0873135142374478
0.0870308801928345
0.0871792163748847
0.0872940895267531
0.086951195194275
0.0868293223390762
0.0867384778913758
0.0865182256097208
0.0866523249661808
0.0864329912293036
0.0853856420401913
0.0850180162795048
0.0853946814020852
0.0852231228623934
0.0843899980300512
0.0841373354854612
0.0842177976426697
0.083991166865403
0.0839431922812973
0.0837162258793269
0.0836218096381884
0.0836018840630645
0.0832816094894876
0.0832035234239942
0.0832030582359533
0.0825418428070251
0.0822806358400577
0.0828141968113154
0.0825035535775089
0.0817004825061672
0.0817374391885503
0.0820778190741356
0.0817390366215021
0.0813606811917764
0.0813626344016795
0.0811888839310156
0.0810352626931861
0.0809639814155129
0.0806698602613932
0.0805510551122989
0.0802575317454612
0.0799133028543683
0.0799340961748602
0.0797278174653172
0.0794739866385181
0.0793982184625838
0.0792681466241663
0.0791696898176096
0.0794485241264115
0.0796028569351221
0.0791165547367364
0.0787614537662227
0.0788151379217182
0.0787584983166829
0.078412419345054
0.0780139161659644
0.0778057781485371
0.0778060337481171
0.0779004570191195
0.0776994302695656
0.0773952581609445
0.0774587818179009
0.0774633511468599
0.0773862796072153
0.0773785308811396
0.0771046608534075
0.076780751153416
0.0766553375798861
0.0765464595968663
0.0762971118679485
0.0761435004841463
0.0762411681843169
0.0761531058459443
0.0758155859751029
0.0759100701937062
0.0758602593620468
0.0752618186651682
0.0753345384145631
0.0755877056523187
0.0752592506232666
0.0748773864262043
0.0746805628969428
0.0749165238620862
0.0750893994641342
0.0747021626064306
0.0741715276312545
0.0742340751199465
0.0743530914271577
0.074243927643882
0.0742159112979616
0.0741101051700541
0.0739935207367287
0.0736247826106862
0.0735414116997518
0.0737368770700319
0.0736866388075315
0.073536163133637
0.0732458196049139
0.0731186729615818
0.0732225082291066
0.0731099296602179
0.073001317895904
0.0732915939106944
0.0734170982200895
0.0731543843827704
0.0729012900794608
0.0727271110642493
0.0728563201175801
0.0727742546413447
0.0724635846233743
0.072380177509044
0.072172668246211
0.072071317394919
0.0721666941434186
0.0722654828792796
0.0721312847635706
0.0720285216326287
0.0723975772756201
0.0722727514909936
0.0718426288666373
0.0720132677096995
0.0721939405800535
0.0722942600992349
0.0721969120511221
0.0717805076932383
0.0717730777096852
0.0720127236775744
0.0718672148923872
0.0716386801880535
0.0717436242526908
0.0718749959893327
0.0717981420462545
0.0717805158870157
0.0719534722859108
0.071755559516282
0.0714445877507343
0.071577257490254
0.0714858930342097
0.0713040593681327
0.0713885572781932
0.0711079014019431
0.0708551442835076
0.0710683304891526
0.071173736681595
0.071155883414071
0.0713310416935353
0.0715552880642798
0.0713203208458551
0.0711578756920423
0.0711622343708179
0.0709092734024953
0.0709145080102915
0.0709455165691449
0.0708503350813901
0.0708563288511238
0.0708952793029036
0.0710593015168616
0.0715689947154593
0.0717935917533687
0.0715221068649615
0.0718521514170895
0.0720748535641834
0.0715912089523476
0.071235516121043
0.070974172425886
0.0709600572597534
0.0712198915917492
0.0714489577359092
0.0716546926876383
0.0717147264857264
0.0714558261091514
0.0714560091833212
0.0717595967558376
0.0715635459755263
0.0715645160773138
0.0718688233810842
0.0718554374334808
0.0717690602927699
0.0715789757624032
0.0715857170588312
0.0718175130436227
0.0716476927214466
0.0715730555597004
0.0721226679334881
0.0719965393330497
0.071228724566998
0.0714097753644057
0.0722048681249625
0.0724815629342467
0.0723905120068321
0.0722274277192859
0.0719297451563734
0.0720100472609883
0.072390927302388
0.0723877240416088
0.0721999323645411
0.0721800321085207
0.0722180273784607
0.0722517998053176
0.0721642748146877
0.0721996537988139
0.0725344338520321
0.0725116930704943
0.0722979779532631
0.0723651235861749
0.0723809527568755
0.0722408927231247
0.0720675854391797
0.0721901339137465
0.0723641943415168
0.0723100420920638
0.0722882623163446
0.0723995441899232
0.0728124612338878
0.0730469513090941
0.0728513019533649
0.0725993834001637
0.0726941664540766
0.0732272694632174
0.0734715184755186
0.0732857385203022
0.0731110127405011
0.0731341068028167
0.073113148218015
0.0733402841413369
0.0737849367040107
0.0736876653811536
0.0736917612162156
0.0740129787559543
0.0740208526741892
0.0740080716952616
0.0739091739242843
0.0738385428693601
0.0739811104025555
0.0740379599768562
0.0741893256081721
0.0742668068304624
0.0741436802270403
0.0741209692895504
0.074244354773756
0.0742739618511617
0.0742771365665772
0.0747607726612202
0.0751933929381911
0.0750527167281197
0.0749263430328587
0.074879202872665
0.0750676879091587
0.0751584598202126
0.0751705349545882
0.0754688821643415
0.0755042812408603
0.0752982299803621
0.0752853898791393
0.0752925003494523
0.0752467240471218
0.0755384549299431
0.0758661716666881
0.0758096022533598
0.0758095087819692
0.0760007284802967
0.0757722761802605
0.0757265668618795
0.076108185210824
0.0760381472863405
0.0759029660669497
0.0761838582485696
0.0763988391456185
0.0764593677263531
0.076517862504039
0.0766517745824932
0.0767628508026578
0.0765781965547282
0.0764445022629808
0.0765790795125126
0.0764448386149578
0.0763711957203255
0.0766692736296064
0.0772199595754229
0.0774696256833796
0.0769797799952979
0.0769395582022208
0.0771784907729831
0.0772528068243162
0.0773868652879612
0.0773964596440626
0.0775149853143682
0.0776073370170883
0.0777467268572818
0.0779889398712954
0.0780096299689336
0.0782302966471146
0.0785163763295662
0.0782914415790696
0.0781493731331227
0.0784800898810452
0.0785777094403874
0.0786719776730088
0.0789524147594519
0.0791346185118316
0.079285619807823
0.0790765217188695
0.0789535487992644
0.0791651389614197
0.0793618903134487
0.0794334800799894
0.0797504196960856
0.0799946744811643
0.0799462539974082
0.0800494489203764
0.080064674117279
0.080233204129482
0.0805454810172231
0.0803549213893785
0.0802848388176031
0.0804561005349109
0.0804860892468388
0.0806936500537279
0.0808363413637426
0.0806349201800503
0.080491335256961
0.0808925421237248
0.0812369026803085
0.0813480245172484
0.0814470630230726
0.0812255952138855
0.0810762439491428
0.0814594620290419
0.0820256930235568
0.0821440605985622
0.0820965266544429
0.082276689723623
0.0823001753646151
0.0823114933887899
0.0824365502793813
0.0824059146425567
0.0824987672067312
0.0828230221976083
0.0828347150368909
0.0829769924861629
0.0833838087359431
0.0834835996012782
0.0833086557190609
0.0833910498927734
0.0836667258406248
0.0837655166893272
0.0837894923145882
0.0838608197846896
0.0841321553874624
0.0844505042888175
0.0845545323618996
0.0844781480537889
0.084451231894457
0.0846056070012639
0.0848110313058946
0.0847899863606687
0.0850537827029179
0.0856151501084904
0.0856359073649454
0.0856018260188905
0.0857535543210208
0.0858973813286209
0.0861869870614211
0.0865661407788924
0.0868248732351976
0.0870362484932281
0.0870177486998518
0.0869193945488248
0.0872181709853513
0.0874798771847889
0.0877496664535118
0.087896076808105
0.0878629918674885
0.0876752793641848
0.0880552689481854
0.0883589482596839
0.0880261653849998
0.0882145553247973
0.0886188305208152
0.0886953264740413
0.0881208686822707
0.0879733549654813
0.0887697405683885
0.0891899069419193
0.0890126741367479
0.0883289259587205
0.0885913569898905
0.0894106164449334
0.0886143048973884
0.0885683311648666
0.0896314649377342
0.0894614341961651
0.089021555892875
0.0892180368937233
0.0894330060377076
0.0898335667972554
0.0897966350096361
0.0899735194171017
0.0898172906493544
0.0892646203010993
0.0896375911585072
0.0907441054161029
0.0918507530727674
0.0923195803419325
0.0924748407416134
0.0922555000542798
0.0923274967582454
0.0923050160731732
0.0924318504230464
0.0927892971287035
0.0929042486529496
0.092637560181153
0.0923842539424542
0.0925123340747617
0.0928583894726805
0.0929416625236423
0.0931916381836923
0.0934152190886331
0.0935626594977054
0.0938633993261719
0.0943022002216061
0.0942958819386426
0.0946061193569534
0.0946413506523359
0.0949951750801377
0.094997987795588
0.0954507777259134
0.0955245344377897
0.0959540426981203
0.0962409424390924
0.0965477517308765
0.096704246538212
0.096838940182981
0.0971009139793473
0.0973852145771917
0.0978440877379719
0.0972313558442403
0.0979706913932609
0.0980110738415869
0.0985100634500817
0.0984071472177038
0.0985440563804454
0.0981839363199097
0.0985792647528654
0.0993262041804299
0.099325560206803
0.0998736918591984
0.100171074005789
0.100472559044674
0.100439553318669
0.100998531810686
0.101402023211746
0.101239262870539
0.101355641798528
0.101534752329248
0.101807062212849
0.101893462078313
0.102025451864929
0.102201150642697
0.10233163707266
0.102651444556293
0.102526985245741
0.102894257750618
0.103558148368743
0.103548186601214
0.103419167687052
0.103564225135291
0.104031432584823
0.104241932791103
0.104400716412749
0.10490485875238
0.105449688048622
0.105883535245189
0.106258939410097
0.106374816919232
0.106386274124833
0.106600835433066
0.10687851555341
0.107139527892431
0.10708102163424
0.107252386163632
0.107846364837377
0.107904740309578
0.107823680244887
0.108009388889548
0.108378956533248
0.108721652164991
0.108935602167873
0.10926089355517
0.10961904139366
0.109996399603422
0.110021808781662
0.109969599686743
0.110560942375767
0.111097883777087
0.111395555259544
0.111366624678154
0.111472524045865
0.112030249490504
0.112174721648727
0.112230827217622
0.11267315092293
0.113063366727764
0.113059893027032
0.113327143373219
0.113928703488852
0.114003123748192
0.113948576837137
0.114301130314447
0.114447625869464
0.114606406869215
0.114969861979087
0.115131427538901
0.115556359952465
0.116027363999839
0.116030281720071
0.116274853558917
0.116571989611214
0.116841910470394
0.117077617063104
0.116951605608672
0.11709543171058
0.117434008194614
0.11775794946642
0.118221415228374
0.118736132245997
0.119119938160856
0.119268587462124
0.119167466489289
0.119236651842761
0.119573175545385
0.119995360758881
0.120111418006408
0.120253114505222
0.120930731181931
0.121480847114141
0.121645483671918
0.121793776231658
0.12176889767576
0.121880157983178
0.122247817389204
0.122617484922283
0.123136794828887
0.123446625413523
0.123907845224015
0.124343255088578
0.124275475632176
0.12407360656726
0.124603247110166
0.125477643135201
0.125593049496872
0.125631964295879
0.125978034195405
0.126305259835799
0.126501718896294
0.126520095436598
0.126608197710683
0.126761341859187
0.127143170390195
0.127668356160322
0.127986995141638
0.128263704412994
0.128611142219494
0.128927595903758
0.128922479598874
0.128882536895256
0.129266302781758
0.129624850705795
0.129946563072869
0.129987655734591
0.130112741357626
0.130393393325861
0.130647133501686
0.131015303376156
0.131243336866452
0.131310207393904
0.131433163998888
0.131961168848223
0.132273265338408
0.132356151562798
0.132722416820093
0.132844696658532
0.133058573368757
0.133318710091045
0.133690536594527
0.134185592011297
0.134346091367847
0.134463677015994
0.134730349561099
0.135116138589836
0.135324289549769
0.135571610178101
0.135502840636069
0.135628208386563
0.13607611735787
0.13610198244897
0.136199558735459
0.136324113670213
0.136411402639154
0.136808726970141
0.137073962557135
0.137161164869121
0.13763578195246
0.13780866272425
0.137782542882113
0.138019702314938
0.13805172909525
0.13831420088095
0.138702636375267
0.138924611548126
0.139008055493952
0.139230771735637
0.139397779180159
0.139499131539983
0.139711640538676
0.139843781379839
0.140175792083418
0.140442398396252
0.140317666243531
0.140538684755549
0.14089637273101
0.141124023500727
0.141271219362781
0.141297446601441
0.141254284492979
0.141250242199244
0.141260548180652
0.141176973416901
0.14171917311055
0.142078690479596
0.141876733432161
0.141654030490953
0.141429698141576
0.141617711034714
0.142157583569695
0.14232003113574
0.14224424561469
0.142256111771134
0.142277155029946
0.142372134638725
0.142530199821307
0.142677971831618
0.142216106633014
0.141819275187611
0.142167251744174
0.142501727866619
0.142503710755497
0.142437552796202
0.142371430514528
0.142466342441105
0.142654958608381
0.142710775693206
0.142450729507697
0.142079663249508
0.142562792943607
0.142545796252178
0.142289569836547
0.142368591934607
0.142205024451241
0.142322350111336
0.142958803948269
0.143549978134907
0.143528383304441
0.143007763462806
0.142533958987435
0.142688316294477
0.142698295700806
0.142508309195752
0.142389860432708
0.142147102651158
0.141881228674425
0.141900657011712
0.142282392683843
0.142356116052982
0.141924651507755
0.141922421253489
0.142062774206746
0.142050327099335
0.142001589601272
0.141935194559959
0.141840864306442
0.141870466705996
0.141877501238694
0.141311722790091
0.141244852605846
0.141388848720243
0.141325611414836
0.140975222414174
0.140408461661818
0.140152757471749
0.140252380937575
0.140154292660366
0.139919415498292
0.139911159645169
0.139728825244304
0.139591396272745
0.1393647229033
0.139237188631222
0.138923596979746
0.138566010385703
0.138599389450283
0.138529941895641
0.138368093116585
0.138335517339499
0.138328329296238
0.138276555459496
0.1381257867092
0.13772313887125
0.137383706076037
0.137110674793247
0.137190981598459
0.137045424133641
0.136483505691643
0.136195262463676
0.135852216721797
0.135726052961567
0.135694640709353
0.135371812696443
0.134948207420382
0.135031581328089
0.135172872899866
0.134962204946388
0.134818029517562
0.134698598214273
0.134316161804279
0.13390291445382
0.133799082755719
0.133841138805734
0.133867632002185
0.133566454186856
0.133108836934405
0.132764046957635
0.132509629013433
0.132463901598156
0.132044934453712
0.131567889145616
0.131370686974336
0.131009093462499
0.130548382492406
0.130374515823764
0.130171753771608
0.129735774243505
0.129783965033497
0.12964532088152
0.129243466302581
0.128927166670092
0.12871723372775
0.12870623399891
0.128142815316562
0.127469224727804
0.127362740874916
0.127230468234839
0.126847033385984
0.126637937339002
0.126378478774232
0.125846150927651
0.12546848749086
0.125650047069119
0.125297922548033
0.124744781908185
0.124482448745493
0.123866602757459
0.123736317690259
0.123592718098091
0.123291037158951
0.122765120288175
0.12242408805577
0.122446746327037
0.122180865952596
0.122057408815047
0.121809414596768
0.121055918945175
0.120563496045288
0.120615624188216
0.120561379410557
0.120202238261346
0.120029593410114
0.119609969517072
0.11908706984389
0.119080615754241
0.11887122755073
0.118512829296221
0.11829886897905
0.118431889942768
0.118507446610454
0.117439250697654
0.11665719520911
0.117015119453387
0.117024934099642
0.116350213626062
0.116104653100658
0.116035967230454
0.115584516340549
0.115340591836889
0.115253733510441
0.114919484937773
0.114577650629308
0.114125408185805
0.114084872567233
0.113996889465401
0.113617289925648
0.113355563128339
0.112980531617069
0.112813052080744
0.112523921007157
0.112404482614617
0.112251139940192
0.111832170705695
0.11167604579748
0.111574232307522
0.11146788764779
0.111005763844575
0.110514263038927
0.110265918937279
0.110063081474412
0.109891910653048
0.109648192833979
0.109425477463934
0.109071925918727
0.108708111301934
0.108480656689818
0.108448726680564
0.108334640672813
0.108138552909479
0.107888061565953
0.107446712513365
0.107055037536514
0.106899218345409
0.106655949833311
0.106605976855821
0.106723855271678
0.106669482245145
0.1066628560727
0.106424342733342
0.105925358664755
0.105544651560478
0.105779061215663
0.106398273072068
0.105263096095149
0.104404392287753
0.104675441603401
0.104471144708012
0.104434384365045
0.104318975907107
0.103908535986413
0.103652234577072
0.103531740058571
0.103351000212058
0.1033328874821
0.103437209075237
0.103395631785234
0.103007334202576
0.10258081645423
0.102668463465322
0.102755093685781
0.102453284759639
0.102151366378157
0.102456715463494
0.102894251372111
0.101856812566279
0.100922664801919
0.101073255962084
0.101585282775579
0.102700247738415
0.101955857593955
0.100416188262954
0.100642964320262
0.100839053646579
0.100768918786557
0.100447264592756
0.100209594669737
0.100205626824355
0.100483779323777
0.100257931764428
0.100266477029846
0.100352477435089
0.100199965628173
0.0999745758085944
0.0995408188391089
0.0996225954155431
0.0996093189066658
0.0994946604923142
0.0991668173321716
0.0988692267990152
0.0988778053422354
0.0987278253985891
0.0988586687800098
0.0993049412590272
0.0993388705931185
0.098814638902763
0.0984772785572306
0.0987107185896613
0.0988010618402172
0.0993523447051582
0.0998865903682556
0.0984098254713123
0.0978338935746124
0.0983809949579657
0.0984602088861035
0.0985541351006584
0.0985555641962637
0.0985509964542478
0.098771706430901
0.0987218396236023
0.0986634659766744
0.0988899224354754
0.0985690371216702
0.0984312908855493
0.0985894632774506
0.0984500233572775
0.0982900683161394
0.0983125950271656
0.0984165715502603
0.0985981158991602
0.0990298369971414
0.0999918307220877
0.100015637701326
0.0987143323982652
0.09845047733224
0.098588822037709
0.0984446454638119
0.0982449942556881
0.0981785215514762
0.0982819428558241
0.0985872532023504
0.0988588000462081
0.0991329944552828
0.0991595085270675
0.0990744784001904
0.0989929724931942
0.0989286883546763
0.099229458389418
0.0993066562404796
0.0989000545668772
0.0988327874988719
0.0990877543603066
0.0991035191237064
0.0994265726895319
0.100257874296235
0.1003422674259
0.0995093099192166
0.0995211826566128
0.101702884387363
0.101959945978552
0.0989464873215736
0.0995155101378914
0.100010056085588
0.100165180579014
0.100588391328169
0.100720489000097
0.101257810271152
0.101036177272349
0.100858988871868
0.101302468233639
0.101505849927293
0.101348596092979
0.101379855428086
0.10244816789558
0.103512905147066
0.102083671245943
0.101047158989242
0.101584534506026
0.10249335962705
0.103462897657986
0.102377849903855
0.101959744865513
0.103004419633705
0.103376855408597
0.103528374115886
0.103768786500396
0.104107647838863
0.104666383551712
0.104895442428445
0.104640432513431
0.104919540831938
0.10529124913685
0.105546100214006
0.106192757424836
0.106714601228601
0.106650135343872
0.105875629454189
0.106121111309672
0.106722998586151
0.106585993575058
0.10721051490712
0.107874388260947
0.10832373701764
0.109190662653797
0.109857754194457
0.109861617458553
0.110157720519241
0.109978138354938
0.109090203453383
0.109867362063369
0.111098519606294
0.111211928508023
0.110980124379231
0.112612723785533
0.114627640006159
0.113162774830567
0.112827229518705
0.113086371255415
0.113312232943402
0.114510365231315
0.115040921381428
0.115617131963247
0.116681223497991
0.116811772358506
0.11661309350952
0.117127620438266
0.118426262148751
0.119511982320478
0.119307188521215
0.119866230556395
0.120523979804831
0.121185048492819
0.122348510692734
0.122640083028121
0.12301281186602
0.125787999992877
0.127371122957064
0.125572860962735
0.124878703228167
0.126262740028552
0.12937064620267
0.129834446038458
0.129196768488022
0.130851652259482
0.132607929971396
0.133431484443497
0.13488468463346
0.137707820128894
0.138225069800531
0.138520229478533
0.140961868452242
0.143296613113865
0.14616255673375
0.148469470400673
0.149874828706347
0.15274917257264
0.155971254146777
0.159015565942899
0.162988712227992
0.165922677506168
0.167625889408738
0.171200506622389
0.173836987950047
0.175014240680741
0.176669460012204
0.178081745670721
0.18002335057985
0.180983729400195
0.180268260738655
0.180924959965661
0.183374844063693
0.184718214197645
0.182735484004403
0.18249810756851
0.183328373729468
0.184266334750182
0.18704875894028
0.190233336556462
0.188488600916498
0.186436271171304
0.187609205899916
0.190402214007355
0.192077392143798
0.192738258372989
0.194814848018221
0.197215562590971
0.199199354081974
0.201442185394529
0.204276886517073
0.206621672416521
0.20842867043185
0.210909603785799
0.213723034783185
0.21747066096054
0.222406420277204
0.225160565826494
0.22650387984117
0.230308425065151
0.234709905860745
0.237474693185066
0.240565162880531
0.244677574536948
0.248807466886318
0.252759073460673
0.256583633323416
0.260621868861883
0.265605000216122
0.27103192560868
0.275370194021744
0.279712646355042
0.284132897353275
0.2883663884336
0.293856574303034
0.301671192539712
0.310459098420053
0.311513811455826
0.315276366273706
0.321801855736997
0.329904513010832
0.3388357811907
0.341940937388805
0.347428868019137
0.355093677626417
0.361819225316654
0.368854025618642
0.376106463178422
0.382739016471359
0.390313999888617
0.397503015304445
0.40373749245891
0.412636677301432
0.425759333658162
0.432807613216234
0.437156388300182
0.443011426630562
0.451571293609361
0.460262353893435
0.467210734105056
0.475507288565681
0.48353747085589
0.492446161642195
0.504859264207519
0.509351561731224
0.514088436989184
0.523309978912194
0.533074524319579
0.539992721995009
0.551723572897975
0.561527924647115
0.565422774967772
0.572798544894077
0.581354891969336
0.590072040932426
0.597247087740658
0.60877271095212
0.617100624039106
0.620841661254346
0.628610789455161
0.637267624220771
0.645620812487044
0.653625297745666
0.660584282111829
0.668880017007693
0.68144469958409
0.697450648590287
0.71011640252712
0.702743900483611
0.700618047370939
0.704552423098952
0.709432190973066
0.719408180963921
0.728039070932817
0.739249704013479
0.743143968128244
0.739393202894196
0.742152614004596
0.747849299236597
0.752620389454415
0.755779387318828
0.75780802931084
0.758893064811917
0.761161498920307
0.762472038407791
0.770291629464875
0.775986871003356
0.76091697131491
0.753411254599036
0.753744919327905
0.753847775637761
0.751278806237022
0.746737430019466
0.74501884948767
0.743387528978833
0.735243799648795
0.726183856431097
0.721144852406072
0.720274481691797
0.711965918948606
0.700043866228489
0.692128372012461
0.6848568423193
0.67666759868444
0.667980088067558
0.6665470404656
0.662544521304069
0.644368050189114
0.631135313003814
0.623072563736907
0.615910347147331
0.608076264891393
0.599301241404442
0.589760388138254
0.579653289424593
0.571521345329501
0.56428599863887
0.55594524879717
0.5472910189324
0.539126444698437
0.531254971794788
0.523109104640493
0.515310628175003
0.507129580569434
0.499493678151538
0.493229984118194
0.487058356871205
0.479946882481911
0.473039045051423
0.467749989373445
0.46250761951986
0.456825036490866
0.451456496849654
0.445755189648305
0.440061432583839
0.434787127796929
0.429461340461909
0.424637433639997
0.42011872890093
0.415706589124025
0.4119034595747
0.408186339649172
0.404290091965849
0.40051063688919
0.397058717765618
0.393821198639935
0.391071240667659
0.388794753152448
0.388126526404691
0.387501860547671
0.381177814060819
0.376147059955468
0.373934913894712
0.372640329061972
0.370851422795622
0.370439815512351
0.370751566156037
0.366449653553944
0.362849200764681
0.361312834297059
0.360295009601
0.359371412910108
0.356990989416876
0.354526986015714
0.352734469507439
0.352785113455431
0.355680848028281
0.356691867504692
0.355851922266082
0.35026732096073
0.344236100072069
0.343154600208859
0.345373643817048
0.34389966784117
0.339695368530082
0.337969327121497
0.337976268555586
0.337549949069056
0.334818974423684
0.332351939342798
0.331295070432291
0.331353803863631
0.331195223715776
0.328029828291507
0.326029273331276
0.325987429485996
0.324160122393615
0.323157101231778
0.32456956898813
0.321624746063807
0.315154616323294
0.312712052331011
0.31275716689917
0.312868713887361
0.314123832698144
0.312639723444911
0.308383888364778
0.306136030223024
0.303929818287349
0.302447145705233
0.301912604764125
0.300458620505779
0.299005747291731
0.298912347833546
0.296352813216686
0.293760328298421
0.294152388190277
0.295286065952101
0.294852376410106
0.290996327827343
0.287913670458048
0.287934948471276
0.289460231466377
0.287646479263662
0.284587154410268
0.28215039608938
0.280827271619165
0.280318001088812
0.277637542737999
0.275394635163266
0.274218002026459
0.273102129635142
0.273558210287604
0.273703121391323
0.271503653697617
0.267512469775374
0.264607504095469
0.263780809632315
0.263529697047618
0.262710601088258
0.261941393899187
0.261991352430844
0.260611137278988
0.259150958577029
0.260569531908719
0.259647229355281
0.256927688988984
0.256599696600969
0.25607177734809
0.25573799152742
0.256359571492357
0.256918535270443
0.255357935313766
0.253542487453831
0.253231159186131
0.252758883592087
0.251893059865875
0.251893741816673
0.252333907719948
0.252521398801582
0.253213630647379
0.253518529725403
0.253128811649758
0.253359699594553
0.253433570400042
0.254267817673284
0.255628498359608
0.255266447143873
0.256159964637097
0.25842433501227
0.260246936163099
0.261445732411644
0.261946413213532
0.26335730968715
0.265462290187951
0.267164979339598
0.268297644717502
0.27011866372067
0.272196940326027
0.272086030241986
0.271898017088393
0.272713535002325
0.273141146158623
0.273553893355826
0.275319965788301
0.27706740575791
0.278685761052375
0.279958310572586
0.27653559388939
0.274791810837876
0.274796696553759
0.275142728803041
0.275056258518855
0.274160338731761
0.273554724354896
0.273463980261163
0.273978418440023
0.273481462174752
0.272511805679422
0.272073333781676
0.271593702079066
0.271909739783274
0.272125253009127
0.271650915342373
0.271039764276919
0.270962235157024
0.270901513456648
0.271099990516852
0.2728493116977
0.272187637308839
0.269662876319914
0.269118574599178
0.269164016955983
0.269542547838222
0.269633256585351
0.269875510463116
0.270031166228977
0.269512447952438
0.269538002608566
0.269857886480196
0.26963799888175
0.269961157316847
0.270726593608367
0.270389176089674
0.269984835277495
0.270090393776373
0.271912781115321
0.275036426495877
0.273937477343686
0.27242997460365
0.272499447681259
0.271943401540238
0.271418531842221
0.271779861155229
0.271882068536484
0.271734681033543
0.272203818416842
0.272413180343574
0.272073120523004
0.271914815604274
0.271666259564352
0.271566905246807
0.271977102086936
0.271612829217863
0.270571488033691
0.270218978114579
0.270155189412811
0.270237312359735
0.270823725896348
0.270554955969167
0.26962037918471
0.268910203833568
0.268240958430578
0.269035646901535
0.269063160942174
0.266644450616785
0.265765728995788
0.266141072416703
0.266433037321463
0.266542099171208
0.266681761906771
0.26760650637384
0.267997743992227
0.267982960343872
0.268562012099019
0.269052751486791
0.269888021094381
0.270453580390019
0.270720853241643
0.271220299649538
0.27169521915749
0.272361649867144
0.272697508042762
0.272638811331928
0.272478139703368
0.272619714116768
0.273518374854578
0.273688476760603
0.273013297963653
0.272703959988399
0.273312608092179
0.273665226872589
0.273202609952719
0.272856175412694
0.272861822897249
0.272703895782098
0.272346214932412
0.273016137357646
0.273030997496225
0.272448070721994
0.272407943014572
0.272042114956569
0.272425478378507
0.273061106030149
0.272451737396226
0.271604358566684
0.271706507482629
0.271762595512948
0.271790153983084
0.271793448777127
0.271398559298081
0.271318366593781
0.271565394665899
0.271733161697412
0.271940501565662
0.272250978341022
0.272352842239142
0.272122778979054
0.272443205448124
0.273129269403892
0.27314468761136
0.27336009792091
0.274200824811328
0.274437498576661
0.273884163367723
0.274126497951869
0.274324429125851
0.273644996101572
0.273210617528987
0.273276410756266
0.273411152325833
0.272796476054043
0.272316087032538
0.27208236518936
0.271770098635602
0.271540423859071
0.27108182304568
0.270774451038558
0.270605070016198
0.27006544322424
0.269432317747185
0.269305332762096
0.268945244693273
0.268408815547236
0.268280668575504
0.267800814258281
0.267769277180563
0.268174783561987
0.267999543462655
0.267589612839966
0.267381050721988
0.26745253797673
0.26722102607889
0.267153641235353
0.267160073972856
0.266807316143278
0.266648618219906
0.266589528377939
0.266624415363024
0.266587899512966
0.266122117428534
0.265476209232471
0.26517580222372
0.265195981066109
0.264890557978008
0.264526164646096
0.264258385075557
0.264055043031685
0.264102861537453
0.263762398711164
0.263281052003811
0.263180622043764
0.262899456093125
0.262479994180523
0.261917021231766
0.261447980817035
0.261272949059445
0.261361843895179
0.261284082221582
0.26098922191341
0.260850147945105
0.260845539038965
0.260593940543374
0.259972657585137
0.259891321416129
0.259789204312348
0.259523289789872
0.259401615350239
0.259145518002767
0.258812034173394
0.258535322034032
0.258593712001178
0.258653973156364
0.258427644160557
0.258366517643067
0.258315049327645
0.257980501370753
0.25807710939811
0.258326099862923
0.258437709141007
0.258439442194215
0.258775213902898
0.259582756113773
0.260129823644983
0.260206330279959
0.259816411451853
0.259752324567277
0.260107440609967
0.260091703112079
0.26004770745167
0.260186650049146
0.260448906665297
0.260882041573239
0.26099394889968
0.261059664850267
0.26118110271841
0.261382251568828
0.261623287102316
0.261779271585451
0.26178403601402
0.261656490980756
0.261966350116396
0.262450781541511
0.262651777793797
0.262547384257617
0.262360605935096
0.262568873079509
0.262674605669228
0.262530279845908
0.262367934153872
0.261853095695933
0.261354813607096
0.260900566559017
0.260486244380843
0.260095110593442
0.259531962977235
0.259014774490129
0.258633427022525
0.25778599664323
0.256890876427758
0.256303647370218
0.255360923531809
0.254648591625403
0.254123302449686
0.253464470073251
0.252877525317623
0.252202874415142
0.251422022305543
0.250790502856283
0.250404966985176
0.249740444120848
0.248966867038279
0.24842462096396
0.24802946096474
0.247889956348818
0.247933873332814
0.247873918105979
0.247717326994284
0.24756863940089
0.247275017690077
0.247196315004255
0.247276529676483
0.247270521109756
0.247388844674308
0.247239074794553
0.247178150786434
0.247474920208971
0.247565641003241
0.247500427600669
0.247444440325346
0.247241682581415
0.246802173755223
0.246455194238176
0.246220290633156
0.245582414876837
0.244940332562456
0.244720433714672
0.24442831489471
0.243991484236474
0.243568707009792
0.243247225307602
0.242783413197536
0.242129660904351
0.24191317994877
0.241664516218499
0.241267813236399
0.241258723604376
0.24131713472945
0.241406010090981
0.241778321459952
0.242493906604695
0.243050329425063
0.243539552638501
0.244253974569828
0.245273147743152
0.246204092346651
0.247071778592912
0.248715590246445
0.250239651174242
0.252028347022716
0.254485699462231
0.256690116699829
0.259084507647288
0.261903930887215
0.264605475705922
0.267225932470716
0.270298126983239
0.274021981193506
0.277934909659843
0.281835279070783
0.286182223641333
0.290322551931581
0.294485185278423
0.299059953115564
0.303295844792557
0.307352042391809
0.311084581008479
0.314672018409473
0.318147409785861
0.321410313863557
0.32466722764212
0.327492490467088
0.329692083384139
0.331552565320311
0.332933097078653
0.333764628840156
0.333913057747816
0.333412322687174
0.332531347391216
0.331497357050066
0.330191449515784
0.328372647101007
0.326348818034199
0.324126695788615
0.32186783019151
0.319381953683506
0.316943815020321
0.31444424220561
0.31148879839483
0.308737610236968
0.306670814162943
0.305071210574428
0.303432040688053
0.30232013516416
0.30214832754811
0.302196640795172
0.302234741389946
0.303182663749891
0.304653806679503
0.305972579749771
0.307842749026007
0.309973004440728
0.311535270480192
0.313162777590606
0.315124566080467
0.316760897311867
0.318027502472704
0.318993873488959
0.319635612600039
0.320019243869015
0.320156252473174
0.320372958796971
0.320410815669373
0.320437362143152
0.320669257841222
0.320595631778619
0.320865962972217
0.321356049090598
0.321784376244409
0.322560706874243
0.32336179237137
0.324311332994158
0.32576381650088
0.3272948416667
0.328906987874143
0.330889086788859
0.332859247315509
0.334481067106866
0.33575534140642
0.336738434929347
0.337317225018545
0.337725408961973
0.338097327403337
0.338829660614679
0.339661003370766
0.340607616663697
0.341942794992606
0.343320372324135
0.345167358187172
0.347685787054487
0.350650887856048
0.353728499418499
0.357002599570846
0.360911268754109
0.365072710662286
0.369298489316464
0.373838096830797
0.379445857506171
0.385029169621168
0.390313566990649
0.396038593406804
0.401295369536919
0.406010873852302
0.409835843453724
0.41266975462467
0.414282438978943
0.414339320798032
0.412966947372474
0.4106398719578
0.406792056284375
0.401109232039984
0.394818326979736
0.387893672605241
0.380968826858248
0.375344835286044
0.370989568510722
0.367182989653485
0.364324170050257
0.362983517248418
0.362753535015752
0.36319492720131
0.364380762724708
0.366719005206089
0.369637391957509
0.373017305515969
0.376598111849236
0.380313461429858
0.384401646200104
0.388460454574
0.393276007896048
0.399272450085102
0.405103435549735
0.410629588027857
0.415782703367313
0.420162777011449
0.424140514985341
0.426843877099582
0.429306924538822
0.431667165024139
0.433570389927724
0.435820176810695
0.437741764530475
0.43892863327401
0.439653904918058
0.44010768670758
0.440131007013767
0.439628565473616
0.439369136018565
0.439468986958397
0.439612153718438
0.440055283653064
0.441537277506991
0.443459884729071
0.446130839888503
0.449449692538412
0.452932167583226
0.45695842882244
0.461081448694904
0.464848815132907
0.46780566924433
0.471652621658367
0.47640851259543
0.480083440221038
0.483513941834056
0.487785368838111
0.491562748491553
0.493944871125142
0.496204032079216
0.498003703537464
0.49822748762016
0.498535171239219
0.498719154499453
0.497901382834672
0.497196513653985
0.496551252100605
0.495605381650125
0.494839575897199
0.49422458230645
0.49297463431656
0.492164465049874
0.492341194965803
0.491843454019052
0.491536080043502
0.492351373025716
0.493187535269549
0.494038256385631
0.495012525570085
0.496117084708439
0.496911544716358
0.496812527455495
0.496077823758763
0.495388198423168
0.494960189182893
0.493148707320584
0.490142702316862
0.487276653358303
0.483940299118042
0.480653652591638
0.476664544709335
0.472318325988699
0.467976549714175
0.462747513087041
0.457178649526385
0.451626229816391
0.44607097742091
0.440277928945316
0.434174727570047
0.428710661529027
0.423985323973724
0.419427328253602
0.414922934698788
0.410564114672683
0.406401509081951
0.402482301257466
0.398583412683779
0.394937064101155
0.392034471744366
0.389307894279429
0.386530531087708
0.384041683409943
0.383088411118425
0.381727994189929
0.379934365574369
0.37880082366135
0.377198739972492
0.375436003137859
0.373834715924725
0.372699390988071
0.371767509678495
0.37148617519278
0.371160823178208
0.370972367946068
0.371535064114032
0.370964264409906
0.370337538634421
0.370381963979263
0.369893102289002
0.369254412730257
0.368998232922781
0.369287451619548
0.370226020068824
0.371610901058326
0.372619726030021
0.373738072980296
0.374791189358147
0.375389374896887
0.376332050652489
0.377705708044835
0.378907116463473
0.380069547338127
0.381921138843818
0.383625391070342
0.385203705367032
0.387282590661709
0.388949275327652
0.391274050059417
0.393902312941585
0.395905660608346
0.397691520636669
0.399143886982848
0.400233832579118
0.401722758088168
0.404447602426114
0.407358112418896
0.409162730133444
0.41131524506714
0.413704629528543
0.415091737665527
0.41639132721493
0.417757131495974
0.4189953062943
0.420172982304262
0.421749686215334
0.423511222725474
0.42524139556963
0.427336069151183
0.429376352779247
0.430405388178621
0.430559999009521
0.431774875492535
0.433610183886056
0.434025185979545
0.43424255853268
0.435671347389974
0.437676989823171
0.439882673856174
0.442244808215464
0.445357967639479
0.447952477307775
0.449416848202657
0.45127619598625
0.452758960465207
0.454018361965886
0.456521167262126
0.458836369445255
0.461335139795812
0.465054807468711
0.467697832984201
0.470991521817169
0.474004867411818
0.475659542840945
0.478295760432317
0.480706520618457
0.483075659594721
0.484713145459826
0.486816968863951
0.487887883967758
0.489923065829267
0.493701466177063
0.49537318093617
0.496951681503532
0.499457587290956
0.502285206304687
0.505530473129562
0.50830393443657
0.511198619644359
0.513517821768608
0.516395771906538
0.520437980289798
0.523434457016116
0.527385113523824
0.530688852008903
0.532186266224411
0.535548293304548
0.539663292391368
0.542922964010778
0.547196319379326
0.551593304117805
0.554635282318054
0.55924397764385
0.565864254716274
0.570508165492478
0.573415059943476
0.578443722778732
0.584082545412405
0.588479982140143
0.591572477060433
0.594601385931182
0.598207212228821
0.600582718775998
0.604369842488235
0.608617569071497
0.612134595194706
0.615608059572406
0.617991735354669
0.62004557620197
0.621944189249609
0.623537021320002
0.627982854070358
0.633947217915489
0.637521490598109
0.639935899628144
0.644650078370366
0.649709041082435
0.6524168483893
0.655671188491407
0.659937140112162
0.662436310890661
0.663831831306931
0.666861782659662
0.670444388672668
0.674039681785516
0.67838694427043
0.682619309704686
0.686463664429891
0.691631486929134
0.693936060433893
0.695528803074882
0.698057822028485
0.702399830132049
0.707292441128188
0.711512014516606
0.71673616717568
0.720281677374512
0.724334061791814
0.728435559023291
0.730765356878424
0.733010051378634
0.735895591970091
0.741169390507444
0.746450304594976
0.751585105799719
0.755795501762871
0.758820454087213
0.761728571680893
0.76471521979946
0.770469446962025
0.772737228427612
0.774274145281515
0.779835014733012
0.783976622470209
0.783786569444173
0.785331533189739
0.792553470079678
0.796531078720027
0.800702500768309
0.809328686564761
0.814892115794505
0.81701677589581
0.822290060269874
0.829259833347823
0.834541095441111
0.833607325586018
0.831857492343044
0.838359057104493
0.844571408255143
0.848482370874424
0.855399747935741
0.858475757462546
0.862587285260483
0.872021073304362
0.873807925234836
0.876022790850971
0.881561773598427
0.885328888747335
0.890763159293284
0.89485516477177
0.899785903482081
0.908173396873174
0.914436615205735
0.915714108333121
0.917512186771093
0.922208121227935
0.931030474426934
0.930303301580086
0.927249068681709
0.939580207372603
0.947062149802508
0.943060253982199
0.949654790953852
0.964975863623728
0.972205227701813
0.975949638183311
0.98101762654824
0.986682429071258
0.989132794752643
0.987833779898984
0.989502956328489
0.99903345427265
1.00739109311997
1.00947062774297
1.01519585808677
1.03125382763908
1.04397982643983
1.0402073579751
1.03775047572057
1.03502672593506
1.03160475213317
1.04602685219411
1.05465566677332
1.04754855110722
1.0462516232663
1.0542223411781
1.07342397593542
1.06959049224276
1.0665039081522
1.0810469487972
1.09062749118222
1.08884967137026
1.08651278585369
1.08720314138957
1.08817835506711
1.09620028418081
1.09894026444352
1.08860117948619
1.08702328070069
1.09493718401104
1.10640315091405
1.12777430013724
1.14485995131833
1.13227292586183
1.13250158279325
1.14674607432082
1.14661898343657
1.16699253505292
1.16598013846835
1.17126832344168
1.1838692638438
1.16260923210035
1.15380986411001
1.15958505097619
1.17263191613515
1.20224520031023
1.22653518118635
1.22984693895392
1.24610274622231
1.24788249154838
1.2209858463898
1.20474254554865
1.24303899839931
1.26530422957763
1.25729257053033
1.27165061286211
1.26890221260313
1.27295839132422
1.26549504845527
1.25121949974139
1.29088370292574
1.28856091759037
1.25923405274915
1.26988342845629
1.29307962217383
1.29827150311825
1.28661378405694
1.30647897928303
1.32643302508889
1.33617090654096
1.37465626217271
1.36085330123369
1.32183978061796
1.35215218038652
1.35548155374975
1.34061469297611
1.3712636357396
1.37465293115949
1.3666919131768
1.36644188274643
1.3935802543385
1.39504293299327
1.39836668343725
1.41516569594958
1.3810592890815
1.41298401472535
1.49511084137166
1.50451560275352
1.43968983722753
1.41906115229375
1.46005129102013
1.44403623174271
1.4100325236814
1.43889727089566
1.46928903884533
1.49353760096184
1.60635992986315
1.81317791852817
1.70321538996041
1.51445967227049
1.53905513073177
1.65195412290673
1.74669227362525
1.69519896390935
1.71577143941277
1.97484064263236
5
2.90354765689562
1.98468711978779
1.87190334370234
1.63980956439029
1.58467986151852
1.71211937090357
1.98249577256842
1.84006741071769
1.56957122953706
1.70438470925373
1.89321265600145
2.48800874406944
5
2.88996769115855
1.94488095035864
1.70977743607141
1.61614325379269
1.49145050333951
1.52736046268599
1.51964497015336
