3596
4000.36533379555
650.420452594757
1
2
2
0.0222349121927695
0.0227721406945543
0.0237589985149606
0.0222154212393302
0.0216751274506654
0.0230227590877305
0.0223132004761933
0.0219035541206116
0.0229288706597493
0.0232014318102856
0.0223743298561973
0.0224822004865632
0.023383869819714
0.023249204672812
0.0228320009274941
0.0239720641601226
0.0241304623437854
0.0234839418473355
0.0232850476945927
0.0221819792612648
0.0221572791512328
0.0222880833926919
0.0212739456770869
0.0217602692066141
0.02187345391432
0.0221580280246878
0.0230392901035668
0.0225360375390886
0.0226078607872032
0.022968077421752
0.0231207450583895
0.0237122636026195
0.0241975567991948
0.0239302055213208
0.022479740019949
0.0223512016485882
0.0234733105295762
0.0230634143922888
0.0232075871279518
0.0237028941789613
0.0224404046477206
0.0226144353482286
0.0238640796988076
0.0243597206945826
0.0249050229686434
0.0235108529830014
0.0224056059837018
0.0226907333457573
0.0226396054738193
0.022830864762126
0.0221063433852191
0.0223663945418164
0.0228974197939307
0.0229253201397141
0.0241693222506294
0.0236993749183284
0.0229742738872443
0.0225638616604696
0.0229242854657589
0.0241485458215432
0.0229793560184076
0.0220943375621942
0.0220641208956596
0.0220555781344672
0.0236139053801086
0.0235513818781246
0.022718870604659
0.0234409032158738
0.0239145396595141
0.0236543754468097
0.0236186012605252
0.0223948899482681
0.0213876421048193
0.0219881865365064
0.0225826993270874
0.0234134855740695
0.0229882150862473
0.0231130313093282
0.0242222613149568
0.0231558592377388
0.0216777059500795
0.0211621279603736
0.0220398320932654
0.023407565237438
0.023039326614121
0.0218552097312081
0.0235221062518778
0.0251301480504941
0.0227335685069297
0.021472701353119
0.0221197421857515
0.0221036582081444
0.0222965422853473
0.0225467091279123
0.0226040745113791
0.022559463527339
0.022109545614552
0.0221210408207123
0.0231951556673307
0.0229696592594043
0.0228805508057096
0.0240256322065626
0.0220355579614722
0.0230610215050644
0.0214260904972526
0.0203858453909942
0.0230839625451651
0.020388702908206
0.0197077039415505
0.0211992326557274
0.0215112369651711
0.0221047404123144
0.0234079187946433
0.0237512047015242
0.0236751204243234
0.0218651969863129
0.0198122764754128
0.0212080494859657
0.0214141153864283
0.0223655737481108
0.0244627914606886
0.0225583959386474
0.0190461184593803
0.0205188061738374
0.0214694534340598
0.0224640933662904
0.0241644576768673
0.0217933360240302
0.0198733989935226
0.020485463232174
0.0218501346943493
0.0224310620655163
0.0219756797017748
0.0228594296836795
0.0212903749505205
0.0206671492291725
0.0212174019273425
0.0223632091436138
0.0226951103495195
0.0174440320991787
0.017590298972564
0.0207514393984839
0.0232622980161182
0.0236911676194096
0.0204554809955703
0.0199391535581618
0.0212450680557603
0.0206813433692529
0.0191532018167946
0.0204848715810031
0.0218782599373877
0.0214976741595631
0.0200068751943022
0.0204239645603046
0.025944338581813
0.0236468350574088
0.0157492923789288
0.0186478783351627
0.0184752680254601
0.0202538789178868
0.020690397356334
0.020683257723576
0.0222039895382431
0.0228124184752933
0.0232687505310877
0.0238498086183516
0.0232338043129804
0.0212991328174905
0.0217526239956919
0.0223003910867556
0.0213183780587006
0.0219727403342344
0.0234843319721004
0.0199409661366425
0.0200936692504271
0.0230447337103637
0.0209477922674018
0.0202581510812059
0.021779855337873
0.0213347952143372
0.0199461343096146
0.0202441832724553
0.0207825073850864
0.0221296661592855
0.0239712361874997
0.0232048567137398
0.0224204298488167
0.0226397352547213
0.0229498495062412
0.0248461145178301
0.0255448965000838
0.0208000407914297
0.0188487263014525
0.020995326001007
0.0233848117482569
0.0254598271869967
0.0235448535922741
0.0197506544417134
0.0204790966588357
0.0215965985144238
0.0226068006917005
0.0229186363434221
0.0237542430430355
0.024709893413194
0.0246811391859436
0.0253785689728391
0.0225372169952532
0.0207429873927415
0.022228968643696
0.0233903765398855
0.0246861598431993
0.0247965033161099
0.021129980184923
0.0188792255804987
0.0203094616666975
0.02175604304245
0.0235783059429369
0.0234600640209349
0.0218588433182636
0.0231139150792918
0.0246640218889012
0.0250062256017398
0.0251935518562399
0.0251714983790412
0.0246672344443333
0.0245761724876914
0.0256058089477973
0.0258445604600904
0.0258534864595304
0.0260095184457982
0.0256284306805933
0.0257737761232277
0.0256503070357921
0.0253608303206157
0.0261610337818354
0.0261820273637873
0.0241452578053688
0.0242842611641778
0.0255299744528632
0.025947320004786
0.0258886127009301
0.0250012553880802
0.0256057967532966
0.0271979774956428
0.027559888664242
0.0280476196108608
0.0255135572454495
0.024225023794782
0.0261502185790978
0.0274993553556686
0.0269188563691558
0.0257033943883143
0.0270741168203856
0.0281399606729507
0.0274848761498665
0.0282972453059578
0.0291713655056362
0.0277461126618031
0.0276377939979334
0.0281512760108578
0.027112419478651
0.0266694460137065
0.0279815865186295
0.0296391304086949
0.0304433831738166
0.0262724678165819
0.0272257737816953
0.0305423861838922
0.0267119760392603
0.0263108298415776
0.0278859126130694
0.0296702585794195
0.033310041574122
0.0297691133671344
0.0246591457117513
0.0277295059355046
0.029855152072611
0.0295461784323912
0.0303940096862436
0.0313690661093688
0.0327636324062947
0.0338116964012369
0.0331089246048374
0.0308804779211038
0.0298738882179932
0.0334968546310125
0.0337713137056791
0.0324618399270824
0.0342679132371511
0.0349937735229848
0.0360405199270585
0.037796565799119
0.0372674912125751
0.0358552278029654
0.0359577278217826
0.0369794687504963
0.0384491536685651
0.0378724502556534
0.0373798747340896
0.0384519748006553
0.0401079625979088
0.0412396709212275
0.041670226785513
0.0421200926470078
0.042724270817325
0.0434795792816012
0.045966746768656
0.0481475260584315
0.0455156905488594
0.0445627419619759
0.046062920786015
0.0456557602623371
0.0469540111252238
0.0489115764903498
0.0502246142074152
0.0519434325559823
0.0525219488164541
0.0532201515061662
0.054774508367032
0.0550965156369491
0.0549858492073733
0.056735630399346
0.0593003944057167
0.061232999003333
0.0623697724652494
0.0637606489212651
0.0657145100332431
0.0676906639521889
0.0684720969184129
0.0706752029772099
0.0731163237544346
0.0734694584651319
0.0766163997489912
0.0785033140057479
0.077723099028703
0.079536137515779
0.0818881755855353
0.0853288919232016
0.0884955660008054
0.0898234884729161
0.0915454242691671
0.0956260270299219
0.0999832029569128
0.101385549674115
0.103021378923933
0.107038756205002
0.111281176844593
0.11245707841184
0.111029951513596
0.11388900498154
0.118426517813464
0.124136511933324
0.127993815300317
0.128090194757612
0.13099401020691
0.133247375708338
0.136282519475534
0.140596927414803
0.145587079524134
0.149774735257203
0.153409924174578
0.156780228697444
0.159750286815839
0.164030020364761
0.167500256520934
0.170586141742794
0.175731785435968
0.181520909630607
0.182693551371014
0.181917439477839
0.183811396667311
0.190229940922208
0.199305266164666
0.206049369008838
0.208871142476851
0.208095733418204
0.209045323895084
0.21158847590215
0.211495761104545
0.213208376804942
0.21760471844812
0.22449055538809
0.229712489282992
0.232538885432551
0.236580057704853
0.239507455571713
0.242186667737913
0.245560202895714
0.247885719521968
0.250906541831638
0.256213473433514
0.26262771382897
0.265110659871469
0.265975904180628
0.270359679045927
0.277519982916705
0.286076932163097
0.285332386619728
0.276434386805891
0.276130772807034
0.279549354272687
0.283262166119779
0.289411433329798
0.295746404877346
0.299587398777697
0.303654006419123
0.311202361010821
0.314988564448661
0.312906095290666
0.312313900785854
0.312297751724009
0.316462212990326
0.322206745242114
0.326761443624312
0.330333249521707
0.32893450510546
0.328778181043311
0.335200022594208
0.340642641825326
0.339985060848821
0.341342468843311
0.342288825990751
0.343398222350759
0.347712633615827
0.353569091887998
0.358178753479302
0.361050643695425
0.363868890651616
0.366425225971404
0.3700006669966
0.372703136612203
0.37610153977709
0.383041365118879
0.386783771802629
0.385786186067591
0.386241047052135
0.388414367612867
0.389762381153479
0.39220521017766
0.401371120431478
0.40885342600541
0.408741179502133
0.406908971392059
0.401394311891417
0.402331545284586
0.408826016525841
0.412038992615796
0.41354701157709
0.419057791931226
0.426033921625171
0.431947835446605
0.434958736903295
0.435768661994037
0.438086191826907
0.441525425974021
0.444816799496287
0.448145002511745
0.451569750029193
0.455277399838689
0.457354446036162
0.458035092439545
0.4679497298994
0.482171866848573
0.485168588164869
0.48100712201199
0.473509988175628
0.471405046689115
0.475426729775073
0.479887868456636
0.486211569197605
0.493279754425674
0.494768387385281
0.497571480882417
0.501001864517101
0.503485061707937
0.509743824914472
0.513534085229508
0.515773154470673
0.518719051305206
0.522462776462346
0.523966637210472
0.525164053726793
0.52813359365012
0.530911887879996
0.537867404893513
0.542638399374617
0.541086571275441
0.545498784006451
0.550669884912825
0.550640883147892
0.555415830622962
0.562209128892578
0.566346713579672
0.569756995093653
0.572936004110795
0.575945265304427
0.581111255758715
0.587487157843419
0.5890359047535
0.588951761269786
0.592529649197001
0.596954467610807
0.600118725710484
0.602727384255385
0.604865839908381
0.607341630085507
0.611229774937778
0.613004307142451
0.611387734395963
0.611872050578581
0.621183361930529
0.632560498360733
0.635403461717059
0.637137182499922
0.638649149193658
0.637472427264208
0.641132653206944
0.648684624113457
0.652111299499047
0.65293359030762
0.656914308566483
0.66444123395749
0.670116814351042
0.672760109981923
0.676970786871608
0.681176801151821
0.681233183172028
0.679643519818816
0.682115482868896
0.685910743583255
0.689971178203144
0.694855187645857
0.694809103956859
0.699563865087797
0.708799525061652
0.711268513632196
0.707238742560976
0.708141276147402
0.719111558243185
0.727088438125774
0.728794939423444
0.731478542910672
0.738009414255288
0.74159431799597
0.741366137424055
0.745599450226277
0.7520939438976
0.755237517588468
0.754182795357762
0.753726358323969
0.758448768726023
0.767874791386197
0.775769205546527
0.779311539633067
0.779625000930311
0.776233630517315
0.776576822979903
0.785580176893766
0.795466169061304
0.797415969756265
0.797344904197616
0.802007204618209
0.808043346604302
0.812004085722537
0.812556574544651
0.813074343884731
0.814257520755765
0.809194048972699
0.810529057634518
0.824622424153049
0.831814561365505
0.838439807577997
0.850297021955685
0.855788011216049
0.858801332128103
0.862585083934417
0.862667977546263
0.859051844849553
0.864352332266936
0.879736620879733
0.885538918169131
0.878667571429098
0.879845175855405
0.890737805141417
0.894885742198312
0.89324777892935
0.89545664626167
0.898161513679077
0.897367052430425
0.897816269545132
0.898626909063675
0.904672078991072
0.919113330362149
0.923192480196431
0.918942647126771
0.920733624196671
0.926075281204803
0.933609476026475
0.93854713422984
0.935087659392043
0.935777150043784
0.943457796298011
0.941370411759984
0.939761264580203
0.943745665349191
0.948899766607312
0.961647259691988
0.970317932431072
0.973263605880044
0.970886798243348
0.972426441434828
0.983525196827032
0.990083245609074
0.996407087606485
1.00335925556883
1.00402190650716
1.00353912377883
1.00658952121447
1.01711245242206
1.01633943664339
1.00160487361928
1.00428630650026
1.01904576056658
1.02701152131923
1.02420182841241
1.02399823266373
1.02271247168268
1.01909061731803
1.02028602782292
1.03139676607608
1.04477753538067
1.04115141663629
1.03741290000065
1.04524436817049
1.05961802631222
1.07112852638885
1.0722877557094
1.06867652574446
1.0654520512675
1.06271998161759
1.05705074427122
1.05605507715485
1.06029998504599
1.06977099233715
1.09066148881604
1.10137138956427
1.09282225155249
1.08292021933169
1.08371220599097
1.09313187080662
1.09289459313023
1.08758140863273
1.091476202134
1.10007960697054
1.11290682797332
1.12458437215863
1.13073573726668
1.13172425571348
1.13201587116756
1.13187782878597
1.127215609979
1.12308827629608
1.12525018936043
1.12188127991735
1.12620439778012
1.12952164959575
1.11427604237342
1.11170647146008
1.12639391209143
1.1358004237865
1.13163745798075
1.12408126017352
1.12345727143843
1.12365002204258
1.11343462337535
1.11625782267423
1.13587069251282
1.14265783578418
1.13928343352473
1.14883601090832
1.15808986044285
1.15259579894399
1.15105311239819
1.15319745672565
1.15321519149285
1.15318110147373
1.15144001659416
1.14861002424885
1.14113147993473
1.14390963982168
1.15387089941815
1.15182372314427
1.14699687362439
1.14578028073351
1.13570355123919
1.13061546010616
1.14013671912455
1.15053641918621
1.15360839038487
1.15744181836253
1.16155200022892
1.15865411481445
1.15863539311559
1.15459673329803
1.1526628099744
1.15843238549356
1.16124092128909
1.152054506329
1.146396029316
1.15368891868371
1.15806658870394
1.157324430061
1.15620441059777
1.16319281902198
1.17115258699755
1.16556036944436
1.15582803953288
1.15722050358331
1.16176796685357
1.15728920431793
1.15136942713156
1.14577001531101
1.14830166271076
1.15033888516284
1.14916442288872
1.15195152086461
1.14684370684646
1.1468607400242
1.14618648576445
1.14207282213764
1.1454720767785
1.15736544554574
1.16561150226509
1.15835351827462
1.14869981496152
1.1455813298708
1.14540294370023
1.14560980971689
1.14577187512609
1.14050480661056
1.13812474646413
1.14189567157187
1.14784248799764
1.15070668743079
1.14854098447183
1.14720711978091
1.14852543155307
1.15130245698432
1.15220422127515
1.14972844833966
1.14794466949672
1.14158269612906
1.13500412251976
1.13747934674881
1.14354371442836
1.14771751392212
1.14621465179801
1.14688149457235
1.14980129968054
1.15201146359226
1.15572849346049
1.15202687914233
1.14687768079878
1.14760211594921
1.14567298557769
1.14646192889613
1.1528986100027
1.15640035765266
1.1455433378684
1.13803667536646
1.13898236890759
1.13889756124879
1.13933573563369
1.14206786912005
1.15120101488424
1.15043166845997
1.14054258398137
1.13617388080468
1.13724258476851
1.13772951652181
1.1384053266891
1.14491751545657
1.14965170785252
1.14326269731114
1.14101689998277
1.1347208260728
1.13636277776509
1.1488340756445
1.14672062911748
1.13986103691713
1.13284348683244
1.13150249144079
1.13312620873899
1.13507342548357
1.13716745258516
1.13625979283062
1.13697774348656
1.13676309234774
1.1352762023628
1.1399628627398
1.14002219574683
1.13304332851292
1.13005273728208
1.13292522729307
1.1332875787659
1.13108451341611
1.12509508702683
1.12444062590778
1.13069759168555
1.12552795948152
1.12495505088028
1.12916767450633
1.1263936908274
1.12044474779885
1.12317210518259
1.12178111166605
1.11289524906901
1.11289987386794
1.1156257238901
1.1156361929151
1.10780302760721
1.10044087198427
1.10267818102172
1.10428572608591
1.10217037046662
1.09654494550377
1.09543768729182
1.10427128018604
1.10565832233481
1.10430793057951
1.10510551583505
1.10122716990282
1.09642347818402
1.09550676174367
1.09172631643721
1.08444296727154
1.08234265096109
1.08151236250101
1.07811252856048
1.07432406395606
1.07294451842664
1.07263600790243
1.07311060939501
1.07202140022674
1.06813030231747
1.06378666001798
1.06230908678973
1.06047406049074
1.05905536849746
1.05559230171498
1.04666379058329
1.04031095715354
1.03971732185692
1.04053574016744
1.03676229162848
1.02914363351646
1.02476856974549
1.02428414727642
1.02450441724755
1.02447917934799
1.01780110965709
1.01167204524815
1.00829332587892
1.00941629257663
1.00797229492186
0.998181600278371
0.993352153476517
0.993490101175215
0.987560047596277
0.981574064903079
0.981594657297664
0.982592267269486
0.978252003426343
0.968751578259456
0.964563011684978
0.959167580755534
0.948333613341323
0.945957068386099
0.949237673722073
0.943366119504066
0.935212023982262
0.935397628825195
0.931151135417759
0.924832438513441
0.923602181208895
0.918863281321248
0.91590808075557
0.912699011124535
0.906394717783006
0.901835170232916
0.897805432792786
0.893224780162389
0.887944533206738
0.880136395187338
0.876127737820438
0.874860206352165
0.869045717190774
0.864939045218939
0.860539031140862
0.854890839631888
0.85331588006225
0.847367052872846
0.839927713625423
0.835746356865401
0.830627546692212
0.826544709550058
0.82173439297816
0.816696976441327
0.812067482983617
0.811490311745852
0.812020802817419
0.806136733025789
0.797190322217277
0.791075213511316
0.787036402217283
0.784787762057008
0.780940763134268
0.775179571055053
0.772259359574243
0.76866736999954
0.763793997729806
0.759650833202508
0.755131114395658
0.750636746078564
0.746919718413329
0.743204225612145
0.739994123822698
0.735172305524487
0.730319176472408
0.72535632705107
0.719449479111205
0.712886551625476
0.70608351201627
0.702307957310503
0.699896818288788
0.698122086434723
0.694407664218854
0.689233879516391
0.683939900296106
0.677531419171039
0.673845758089097
0.670565975007797
0.66481073858403
0.658126245406643
0.656422896992272
0.655982232291277
0.649470500216661
0.64455675122148
0.642143009199261
0.639482459205677
0.636919272515675
0.631589605722348
0.626532683028391
0.623509707977108
0.618869333340268
0.614343235474386
0.612296553316057
0.608550670161808
0.604943986521593
0.602440074778716
0.598074414635372
0.59433027947626
0.590703638568394
0.585797553086971
0.581588435390151
0.578196100890806
0.574720710554964
0.570279943653162
0.566507094792077
0.563425957586731
0.560220185478492
0.557548098398751
0.553381136396935
0.547764475857485
0.543842541163404
0.541856787552473
0.539246954173779
0.534995477426716
0.530451723719965
0.528255271983538
0.524567743676309
0.519689724317995
0.516688421433621
0.514482654552109
0.511270380289744
0.506860129044114
0.50367133035564
0.500946836991816
0.498359932507003
0.496182388071436
0.493847282035788
0.490742263252973
0.48718516711126
0.483480133995917
0.478739190923127
0.475689953414431
0.47341365550699
0.469763615974083
0.466734527510342
0.46369914581593
0.46060248068156
0.45701060794312
0.454590054032748
0.451638873681259
0.447442621472416
0.445427844707387
0.443443966238442
0.440053851413507
0.436361665834408
0.433512424179309
0.430941883823152
0.427562551306786
0.424873119114029
0.422074031512735
0.418642065781339
0.41617980136308
0.413952811559219
0.411697091327705
0.408988342502521
0.406054491772454
0.403496955339636
0.400882172931983
0.39795728844169
0.395095723929264
0.392888214669884
0.390939371061755
0.386808698277569
0.383235207334397
0.38152558529979
0.379442947123957
0.377288442984912
0.374613427814641
0.371982012991627
0.368885927712014
0.36624050384488
0.364859914527909
0.362638896412836
0.360396778213531
0.358541085348567
0.356251775064199
0.353401098873341
0.34953776833932
0.347258709849217
0.345999891718359
0.34235913573933
0.338977511961412
0.337539874190759
0.336190411451537
0.333137741030567
0.330397083696388
0.329125202609809
0.327231722937314
0.324990611677264
0.322677609750132
0.320557861731869
0.318422286911328
0.316460977290436
0.315068029361342
0.313020182502073
0.310295713431099
0.30907195793435
0.306953539812803
0.304692477386866
0.30304441308222
0.301282050954247
0.299790550843143
0.297797969597619
0.295823591023326
0.29332188778448
0.291354340414233
0.289324512853435
0.287377372802195
0.285203977917977
0.283352813337443
0.282253486441698
0.280193628563205
0.278225555749745
0.276327496511703
0.273622627043295
0.271940045381674
0.270326627829044
0.268864348634683
0.268045487259621
0.266573836157157
0.265450111674875
0.263873337215634
0.261860558563184
0.259883318672411
0.258595903950316
0.257822349831051
0.256316527285311
0.254504432199116
0.253619647721083
0.253484601752804
0.251931307622181
0.250055824529353
0.248985745600479
0.247105061938999
0.246013879356776
0.24574738936769
0.244242863925697
0.242575999315503
0.242174953127231
0.241406779012326
0.240561901820397
0.239804566216199
0.238955975090237
0.238209886796148
0.23619031460612
0.23430655748295
0.233885694849086
0.232890281992309
0.231719733162579
0.231329501104114
0.231266858451688
0.230457472390132
0.228885028354939
0.228036515091385
0.226641240570747
0.225026519619056
0.2242719096517
0.224087733489568
0.223239168658195
0.221673212491991
0.21987272282025
0.218751220029918
0.218656618606192
0.218246294833571
0.217187359521039
0.216825534043137
0.216018751881401
0.214877688408513
0.214738740831504
0.214476332490456
0.214130940731983
0.214084207297299
0.213857655925749
0.214012214507445
0.214513545386201
0.213811375641064
0.21376227043129
0.214170297417403
0.214302065757867
0.214777190697684
0.215406291024279
0.216096866096239
0.215659892940477
0.215974556916893
0.215929892479266
0.215252323918556
0.215688846686609
0.215448810488897
0.214684926724025
0.214717817992445
0.214112813032508
0.212568729238616
0.21089393099333
0.209320143351936
0.207956060253516
0.206568329878333
0.204202492174462
0.201608234117852
0.199491543614983
0.197097059468392
0.194837686459794
0.192803530971566
0.191237123724213
0.18960872461181
0.187775196184571
0.18645683595561
0.185269386831587
0.183792967778632
0.182257590553025
0.180582988223625
0.179061652189941
0.177600574825924
0.175791208240761
0.174188352977554
0.172963709822011
0.172316979453113
0.171941087925639
0.171009137110772
0.169688079036549
0.168397280259814
0.167300392128843
0.166233551385051
0.165091857094956
0.164000957156419
0.163244742086274
0.162298943941638
0.16103395108963
0.160043698072503
0.159207047037066
0.157949065772465
0.157180523157125
0.156743343801905
0.155227988997497
0.154371459191284
0.15394609081781
0.153207059503229
0.152447130992993
0.151484540028519
0.150716106049767
0.149571003227625
0.14856075932687
0.148626099587518
0.148542637785548
0.147720249173781
0.146958456311176
0.146373308842527
0.145729342883073
0.144754568876066
0.143984639187545
0.143559886618133
0.142371391844376
0.141467635940546
0.141411805852304
0.141429652167867
0.141182206207843
0.140646170364123
0.140269314064292
0.140645267182565
0.141469255529828
0.142046549081854
0.142570772877838
0.143012203956416
0.142470529092167
0.141859734233766
0.142205213532582
0.142220973788068
0.141950346412589
0.140965463050492
0.139586485252043
0.138250551151858
0.136603171465522
0.135477480121076
0.133463663863663
0.130903075457415
0.129017536770708
0.127249354852481
0.125628380313828
0.124560254768046
0.123899599318521
0.122195280375946
0.120728473254982
0.119675975437251
0.118793575378289
0.117761137113665
0.116489686712648
0.115741273107577
0.115040184326593
0.114336458150335
0.113263903631604
0.112575329366631
0.111866191482092
0.111411947310627
0.111121831721451
0.110586715949519
0.110050435896619
0.108918419910519
0.108218203600363
0.107643096832854
0.106830500652223
0.10631317400168
0.105901250659071
0.105482727202728
0.104830550897259
0.104583721900099
0.104457295667893
0.103870634496252
0.103229065584052
0.102563943200704
0.101882023866672
0.101308943439819
0.101114205341355
0.101145468101831
0.100775420113178
0.0997180052383276
0.0991476561766669
0.0989149973160302
0.0980316200773598
0.0977022432922162
0.0972953944531861
0.0964547328057194
0.0962356078740681
0.096030866245771
0.0956338752055267
0.0950336250440685
0.0949814107289
0.0950423106294973
0.0946605957256544
0.0940477175005535
0.0937591314166126
0.0933335107939404
0.0924718032529459
0.0922663193549128
0.0923631694285402
0.0920242316400927
0.0913739079855162
0.0909006266973323
0.0903418393670364
0.0898217441319905
0.0896737906697564
0.0894571459622938
0.0889389208731985
0.0887764930573628
0.0885403066488937
0.0877634210630453
0.0877690258063963
0.08786663967171
0.0871890700928275
0.0868645327662531
0.0869951995812969
0.0869074638640768
0.0860639661442353
0.0854759909862667
0.0852221188067692
0.084621710216373
0.0842580081258023
0.0839337734135026
0.0838689192159862
0.0842781591836045
0.0842545506517951
0.0835662241384068
0.0831205109817807
0.082994450302256
0.0827016650656377
0.0820185600997976
0.0814615764442134
0.0814411073073992
0.0814846897719133
0.081264362570458
0.0812293747171971
0.0812663614983593
0.0809229838455975
0.0806861690995374
0.0802796340522091
0.0799003912319759
0.0794122312977535
0.0789354301679229
0.0792108312037441
0.0792846895063836
0.0789099015514647
0.0782994117946489
0.0777140572293713
0.077517079683809
0.0774273840730549
0.0771171061594055
0.07690774830187
0.0768398935301744
0.0765932260361066
0.0764936790997096
0.0762409666837564
0.0758097963421435
0.0754779174715683
0.0755236310120936
0.075945619580661
0.0758840268257554
0.0754045535922327
0.0751352266712955
0.0753157908056107
0.0752677283753358
0.0748334286526344
0.0747859932271936
0.0748387929624023
0.0744819664871748
0.0742820697501065
0.0741772883878644
0.0732861532304293
0.0727403862210742
0.0727280474247074
0.0727971922493928
0.073012929714352
0.073009298051161
0.0728637734616168
0.072532022558043
0.0720852860464594
0.071969080870689
0.0716637129246561
0.0713178169544308
0.0715669644451349
0.0717236557844456
0.0715431520102793
0.0714384882013522
0.0711305209427043
0.0707082348834922
0.070732081993769
0.0708786545067918
0.070664383306636
0.07010102402685
0.0697520825553204
0.0698813853889595
0.0698571674667983
0.0693744650215509
0.0692566835674282
0.0691613882368614
0.0690357586119388
0.0691690805445012
0.0691628704196882
0.0687535093953013
0.0684049765658092
0.0685450479101599
0.0684842691109818
0.0681476054221061
0.0679521685471343
0.068080299399149
0.0681320014443173
0.0678893187052991
0.0677052013829753
0.0677866874586734
0.0677720055596591
0.0672949698570041
0.0666983182011514
0.0665646113756452
0.0665834295401304
0.0664996782180887
0.0664311433469463
0.0661537043282744
0.0658080843468936
0.0658723482076415
0.0660076721647759
0.0658211762894367
0.0660042342205296
0.066344936502097
0.0658793580096832
0.0655129856446964
0.0655781031534771
0.06531770766846
0.0651417638722294
0.0648939340316742
0.0649021013059859
0.0652396536240801
0.0651239778833635
0.0649462104489717
0.0646188499516656
0.0645045932071197
0.0646635815009964
0.064440651536227
0.0640910222858685
0.0637813765817722
0.063675967700958
0.0638192289064031
0.0636279287672942
0.0634526301952554
0.0638451870283762
0.0638696069095683
0.0633566979231091
0.0631075038091454
0.0629324825596645
0.062745536369671
0.0628819495239366
0.063002096151494
0.0630710691494635
0.0629516073846753
0.0628402839990044
0.0627331781296259
0.0622252298422829
0.0618058152697633
0.0616784320417722
0.061762534241438
0.0623073085303563
0.0624101042636422
0.0619831667149009
0.0618122664097739
0.0618530985011952
0.0617503328887542
0.061326612787969
0.0610525086786185
0.0609907564010097
0.0609784367021834
0.0608869800717025
0.0610257266549139
0.0613364604164336
0.0610943947632496
0.0608781535140036
0.0608700178364615
0.0608921369548988
0.0610091879163876
0.0609881113779172
0.0607060722639025
0.0603087774608878
0.0602518191666302
0.0604095648504461
0.0603709449323097
0.0604604955833182
0.0605309373109949
0.0602822724296758
0.0603221960892157
0.0602337357985896
0.0600198082393876
0.0603287951759137
0.0603983213291812
0.0603488592175889
0.0604661873735588
0.0605771960744108
0.0604207234686004
0.060071600684379
0.0600496212706859
0.0600200852031749
0.0600371340478194
0.0597727970072051
0.0595656829675224
0.0597238461870268
0.059669244175899
0.0594850594525915
0.0597509251152999
0.0601451278036349
0.0599615172121658
0.0598143732413597
0.0599069205830034
0.0596730398671202
0.0596017236685919
0.0598561387581732
0.0598734003152766
0.0593641288468483
0.0588709485596761
0.0592314689797912
0.0594220654255223
0.0593604525470659
0.0596279025602507
0.0596793329968612
0.0594797775219302
0.0589311288515334
0.0587647092921957
0.0590160662738611
0.0590312561858016
0.0593221830734611
0.0596105416907201
0.059491906489761
0.0593444386343939
0.0594528909721981
0.0600313711086149
0.0601296425152232
0.05971788918701
0.0598351294997811
0.0599406437761045
0.0595924325147022
0.0594704556222539
0.0594544235208945
0.0592940828391844
0.0595265677148968
0.0595274734685693
0.0593839167522004
0.0595043612726481
0.0593389009602304
0.0595609066469297
0.0600406398580233
0.0597387552020732
0.0596534874124853
0.0598501269104574
0.0597848957863507
0.059612067278841
0.0593958259649818
0.0596525146075371
0.0599853121647876
0.0601071504700135
0.060039840909993
0.0598934011242958
0.0599688190366289
0.0601315966446805
0.0601517618806465
0.0600168825938951
0.0601061555745024
0.0603226253348603
0.0602085146906924
0.0600137977684902
0.0599901378423389
0.0600680934635905
0.0602130892111384
0.0601606826094393
0.0599731229413712
0.0599779924217309
0.0601849398682047
0.0601440926066641
0.0598881191783433
0.0599037550814238
0.0603516155822992
0.0607423375769433
0.0603846956330842
0.0602236858143873
0.0604471584089553
0.0603893777785089
0.0603158369067317
0.0602311632101432
0.0602860816968897
0.0603565587458427
0.0601479938853058
0.0600656696530798
0.0602283155723742
0.0605653290150504
0.0607938572223368
0.0606139772765449
0.0607408891927857
0.0610235127903058
0.0609762454933927
0.0608714746313835
0.0608710608904509
0.061156623726408
0.0612667831536265
0.0611094276621027
0.0612431427174738
0.0613227853892268
0.0611697404456294
0.0614087457969803
0.0615949218805919
0.0611884560827685
0.0611725438192772
0.0613720631927309
0.0613542126162284
0.061626555207862
0.0617508375654719
0.0616420089099905
0.0616147788863843
0.0614930751174794
0.0615332789760388
0.0616784057643513
0.0614952410605711
0.0615002787034511
0.0619260614103107
0.0622934951661585
0.062328982530586
0.0619873884036997
0.0618379471464283
0.0621616671699797
0.0624564172961615
0.0626882083049563
0.0626312451486176
0.0622740485344404
0.0620124942064388
0.0619819415286349
0.0621976302470239
0.0627053946608111
0.0630657252303242
0.0628446525851405
0.0626582105351777
0.0627409067471151
0.0625890106466463
0.0624960108144931
0.0627308739609547
0.0628386994208986
0.0629809407596951
0.0629970936275585
0.0630006646698537
0.0632940180917307
0.0633052454009968
0.0630132650112303
0.0628969962783132
0.0628797255732467
0.0630143665883799
0.0634853820204464
0.0635694639534268
0.0635035984250484
0.0638530937056471
0.0639263239616346
0.0638753244199492
0.0639832995642791
0.0641162919684785
0.064329435661854
0.0645055234292817
0.0644759044147762
0.064552010174966
0.0646687901957543
0.0642450184996051
0.0641179561520126
0.0644502864383458
0.064401047671267
0.0641295860040716
0.0639752338599688
0.0640652255304576
0.0648471342097346
0.0654062657052839
0.0649591063280147
0.0650233195259084
0.0651289853261778
0.064688448182389
0.0649003964461759
0.0651901313101544
0.0651192310395371
0.0651434842784588
0.0652397963901747
0.0655270686047026
0.0657542141172876
0.0656230250613307
0.065962802970636
0.0663258445900858
0.0660790279486385
0.0660423962939512
0.0661145394759521
0.0661034906324433
0.0659628545376459
0.0660203913825193
0.0665076626250921
0.0666767627275931
0.0667527183731029
0.0666694519756448
0.066513831741118
0.066778962628439
0.0666093136179655
0.0664376225541701
0.0668302476420501
0.0673045711709294
0.0674733334839285
0.0673328486161718
0.0672231563330908
0.0672177325123349
0.0674287330969801
0.067562312646305
0.0675031949214088
0.0675831334377098
0.0675192754702786
0.0674251191715897
0.0678801328252888
0.0681253850561438
0.068043205036785
0.0679992345070514
0.0679207008813949
0.0679878639133428
0.0678711647167689
0.0678743092311983
0.0682896581463201
0.0685066370907159
0.0687010567987636
0.0690065188401684
0.0690654799753973
0.0689456781936797
0.0689894945712145
0.0694556286099
0.0699801507580937
0.0698836915534276
0.0696144838227904
0.0699930629170207
0.070246176104884
0.0700320365253554
0.0699864229151036
0.0701697718779779
0.0705510703322194
0.0707923579648954
0.0707332250832911
0.0707670081439572
0.0710445079964985
0.0711165740902749
0.0711433276524072
0.0712392230186613
0.0712644411964996
0.0713448742907369
0.0713774771709839
0.0716824822803257
0.0718913469784033
0.0719771291888532
0.0717344463691463
0.0711101378500272
0.0711921366551025
0.0714793031984161
0.0715016832533949
0.0716645096105351
0.0716192288600369
0.071718696543104
0.0723013381653507
0.0719955203138858
0.0713481965422724
0.0715732030372412
0.0718955861219151
0.0723504834536126
0.0724413918997415
0.0725506271145549
0.0728858417009594
0.0726415011884964
0.0727192441630003
0.0728101104505695
0.0725097179641586
0.0728236231865567
0.0736071935415783
0.0741751906560837
0.074458555652255
0.0745646692190537
0.0745046603769652
0.074730894544023
0.0747586804787898
0.0744818551065101
0.0745471935409559
0.0747858191813893
0.0749500230956968
0.0749371506916097
0.074842755452123
0.074855862957999
0.0750303330858723
0.0758403819836403
0.07607770034214
0.0759361087282761
0.0758901700651868
0.0758832047104468
0.0761296873393569
0.0767455706015816
0.077164982967342
0.0772935398497093
0.0767140062906741
0.0768420935925232
0.0772745216255173
0.0776045492958528
0.0775923003706068
0.0776936650331101
0.0774851050947588
0.0774275913168666
0.077609591971318
0.0777547926137093
0.0784027245301307
0.0786312783572586
0.0791473951669646
0.0792283298148148
0.0795483590219119
0.0795575089176391
0.0795121950771062
0.0793429138762276
0.0799529414739838
0.080276519977131
0.0804845580563288
0.0805824256349874
0.0801788561800209
0.0804615476494504
0.0806484396814017
0.0807497943558637
0.080807350920991
0.0809613178339609
0.0813706982138729
0.0817242550831023
0.0816601638884708
0.0816741103820916
0.0819968355417673
0.0823447901665844
0.0828786132968995
0.0832032934987116
0.0830403850226089
0.082857449301919
0.0828170909101563
0.082854295418403
0.0829940517283306
0.0833498250070698
0.0837333585717196
0.0839351448372326
0.0840839323879069
0.0842875382642851
0.0845304102520819
0.0845206368267785
0.084682441229715
0.0851695427317535
0.0853384782343795
0.0853407211743904
0.0854928921799216
0.085510540515251
0.0856598304944999
0.086143891686985
0.0863719112508259
0.0863648323561706
0.0866009047817687
0.0868512791048871
0.0871552618098394
0.0875493904102492
0.0878248277510381
0.0878922997209853
0.0880922769901396
0.0883342913531722
0.0882416283487538
0.0885237852884939
0.0891023471205823
0.0891947601852106
0.0889700058832888
0.0891538921221511
0.0894990323225102
0.0898205891288455
0.0899610962392783
0.0897977812784752
0.0898484019702704
0.0899946953922044
0.0900819504761497
0.090399283048557
0.0908175468545788
0.0909900817844791
0.0910331118387976
0.0913208128404559
0.0915290741592236
0.0917073152870955
0.091799318626937
0.0919926914837873
0.0922764264131921
0.0920929128646434
0.0925320835002634
0.0929853991539294
0.092979288681687
0.0933108613710938
0.0936279334147865
0.093491640703205
0.0934673806443599
0.0939064129533104
0.0941885257428317
0.0942542221698513
0.0944822507573255
0.0949795055545024
0.0954141541074429
0.0954931502026461
0.0956543749884956
0.0958164613152116
0.0956047243706256
0.0955751769807601
0.0959297396686905
0.0961776850007751
0.0965241296804652
0.0969064556313208
0.0969465159789853
0.0969817755157249
0.097129220755818
0.0975662429207689
0.0979849256589405
0.098388260331517
0.0986018126244592
0.0986488599005996
0.0989197567511724
0.0989194618647278
0.0990979392279597
0.0997776659923768
0.0999912078915117
0.0999386916207225
0.100164685077962
0.100478230096956
0.100689333401411
0.100825831293866
0.101024550309735
0.100992330591739
0.100921138833931
0.101414782934182
0.101856078746674
0.101944440727768
0.101896417503806
0.101946952717159
0.102362869580616
0.102635795764429
0.102636916703446
0.10287445459866
0.103463304964454
0.10360411167038
0.103182109492656
0.103265574905363
0.1040912114439
0.104486933510887
0.104527081747134
0.104544719951512
0.104782450270579
0.105049591734659
0.104904733188197
0.105142976142998
0.105238862316902
0.105087937824028
0.105568865012239
0.106014249950801
0.105993184724925
0.106209752773017
0.106779453020387
0.106906814554293
0.106962366532753
0.107138381805211
0.106987498916632
0.107071650740349
0.10743729100401
0.107749099232483
0.107702559244714
0.107715670465014
0.108040656514255
0.10825225631973
0.108459994483359
0.108548741801341
0.108660316001883
0.108986070529135
0.109105585465728
0.109111743259851
0.109223070008194
0.10934255632405
0.109328453941257
0.109376306910179
0.110010409982973
0.110420758662933
0.110552265652552
0.110481982189353
0.110536748740588
0.111036549539747
0.110902639441268
0.111055433761415
0.111333555882265
0.111297504963498
0.111383997336078
0.111368262342309
0.111366117243578
0.111471818443418
0.111708283637056
0.111730319687119
0.111686224067702
0.111752871894617
0.111879033257593
0.112034007016158
0.112013199776201
0.11202009145956
0.112178604233885
0.112369353310871
0.112410072815356
0.112359677911795
0.112508160877214
0.112574253391716
0.112473284154511
0.112496845747921
0.112713773510143
0.112818824076152
0.11270917852374
0.112685749635981
0.112807721105578
0.113143319812217
0.113219418180529
0.112918608222049
0.112582460247869
0.112513046866036
0.11267019657917
0.112730086976577
0.113000739355335
0.113220273261448
0.113269722455979
0.113111448000698
0.113021565286941
0.11316429637789
0.113086455245874
0.113166752579084
0.113069500370119
0.1126696800812
0.112704878478745
0.112969358185366
0.112981568216109
0.112961983292331
0.112992288001251
0.112962229832279
0.112850704234703
0.112722222038935
0.113221538756787
0.113662607035031
0.113134527788254
0.112904783761206
0.113270841663207
0.113295225390753
0.112896701794924
0.112623775037706
0.112756590387976
0.112874083168906
0.11268070667517
0.112445578926615
0.112354978770661
0.112442570489722
0.112490992079398
0.112248020792621
0.112120592922616
0.112261261436798
0.112067386909199
0.111850105097337
0.111831296398255
0.111480652826285
0.111189404236165
0.111419866129935
0.111577122875813
0.111171810879934
0.111055306827924
0.111122615121043
0.110958351456538
0.110646613047441
0.110179123965765
0.11012445720363
0.11016052570019
0.109819374373933
0.109755731870081
0.110026829793308
0.109900132068671
0.109801301915215
0.109762923803547
0.109833515049843
0.109406848087141
0.108840769508093
0.109058081538144
0.108973032668969
0.108612555264808
0.108337506830118
0.108332795818347
0.108601703898134
0.10851623018889
0.108103110119591
0.107812873294554
0.107531939120234
0.107376686321408
0.107356998877044
0.107182430168145
0.106673001269209
0.106305451772346
0.106423405588272
0.10663168692964
0.106476121112972
0.106019702234832
0.105749361298713
0.105627721508267
0.105503915421903
0.1051711618962
0.105114635571534
0.105065673985913
0.104626243986917
0.10437730898573
0.104618552192291
0.104376122666784
0.103822471361056
0.103738231096084
0.103517769308819
0.103233648819504
0.102945511913826
0.102689367861121
0.102521604449923
0.102330693127577
0.102287123629669
0.102056239521663
0.101509840122769
0.101008494078698
0.100701714617081
0.100891837520122
0.100795981060046
0.100497099496518
0.100518113202426
0.100307915418835
0.0999083570133733
0.0998731886560883
0.099617454373051
0.0991021792418436
0.0989776876740417
0.0986574512235094
0.098282795607664
0.0982208829341683
0.0980691805328773
0.0980516388607229
0.0980733304720549
0.0978397229024371
0.0972945642564993
0.0970449538910824
0.0971041762663907
0.0967830296493566
0.096294444563038
0.0959537952860067
0.0959689987970622
0.0958952859324321
0.0953132325925948
0.0947450392522463
0.0945838205664535
0.0946955022900923
0.094632139278592
0.0944721766052595
0.09422038128076
0.0941798210235337
0.0941783917415216
0.0933211272026105
0.0928520623635775
0.0929134023982727
0.0928846421009926
0.0928289100863656
0.0925657562835531
0.0922811797642734
0.0920799493214389
0.0919412824572527
0.0916302944525165
0.091165798143742
0.0912440151877331
0.0911015217843259
0.0903845723709053
0.0900414335425384
0.0899413129912658
0.0897202153938348
0.0899078612177688
0.0900742921913396
0.0896059034528348
0.0893287666293682
0.0893682335031857
0.0890989136211272
0.0888141624418512
0.0888087363992945
0.0887008746575907
0.0884486961959256
0.0880065221281173
0.0874223844483002
0.0872738849205841
0.087386996995796
0.0875404289640601
0.0873689058735231
0.0868658144618038
0.086650993220779
0.0864752068383863
0.0861907167224646
0.0859870253349306
0.0860266641184508
0.0859073559398161
0.0855922779541822
0.0852532680366608
0.0851456493953283
0.0852288246096339
0.0853350351620322
0.0852523663376537
0.0846239410285197
0.0841928312709343
0.0843108264965555
0.084283721636273
0.0839804278343226
0.0843724505981957
0.0847748223429724
0.083417068165888
0.0828004692001437
0.083215139770329
0.0832913110964859
0.0830727178974729
0.0827383758696383
0.082766180853711
0.0827721895484049
0.0826364425582384
0.082450865892981
0.0823586486373825
0.0823121699255442
0.0822190839858158
0.0821716212309571
0.0821476959961716
0.0817999562756479
0.0815087144339379
0.0816354369355943
0.0816218659634351
0.0818090793290592
0.0820340672069177
0.0811675146117211
0.0805126949912122
0.0807850632512243
0.0809703270731522
0.081465818043927
0.0808105378289164
0.0796981921444019
0.0800689799128675
0.0804295248935627
0.0803933551842928
0.0803544763803368
0.0804928328134295
0.0805043455532912
0.0802825978621388
0.0798957674678549
0.0799487284491256
0.0798802329282238
0.0793379668455457
0.0791789271919651
0.0792307397627603
0.0794044612095278
0.0793393120420335
0.0789551792918093
0.0791625726588938
0.0792580622108014
0.0790031273293826
0.0789896437288282
0.0791682041633552
0.0792974110193775
0.0792965631249535
0.0788186978872468
0.0783750714235563
0.0783804631895799
0.0783051682792973
0.0787620926994011
0.0793277960393218
0.0785229235794267
0.0782389702946291
0.078483656202257
0.078399950468206
0.0781254547656238
0.0780280988698638
0.0782657046654887
0.0782604521134962
0.0783215810561264
0.078455701350319
0.0782500111027328
0.0780986549683578
0.0782068873396141
0.0781773393255438
0.0783249555367047
0.078497018651251
0.0785790096714626
0.0785303180623547
0.0785320952476046
0.0785471120780458
0.0788317515062
0.0791173058517876
0.0787532736183021
0.0782770447841778
0.07784371304552
0.0779375819476712
0.0782279947918526
0.0782870487122181
0.0781867705523253
0.0783988471437562
0.0785213405450027
0.0785551771404765
0.0786437785679899
0.0784796261455366
0.0784739150007159
0.0786198790177702
0.078563203674572
0.0785311162308792
0.0786359462167654
0.0789113067148141
0.0788842717044531
0.078735540810568
0.0789788698951268
0.0792593716374642
0.079180728087878
0.0786887442326495
0.0788423979987229
0.0804520471390362
0.0807028669558492
0.0781965249693799
0.0785602081968192
0.0792017896685106
0.0793063379833372
0.0797459674731547
0.0798930785834609
0.0800071533392477
0.0798096194070733
0.0796662219751187
0.0796461679615724
0.0798531216817549
0.0800833079755239
0.0799914767177287
0.0807259293853832
0.0818939116737848
0.0809778176449935
0.080171969633305
0.0804563704406076
0.0812708257563708
0.0820946638976622
0.0808654616320793
0.0808477480244695
0.0816900357108586
0.0816748249770489
0.0818956687879006
0.082198940233425
0.0823699817588853
0.0825723637765863
0.0825311226017654
0.0826073161533179
0.0829619092734838
0.0830648279859262
0.0835037001386959
0.0838442273613827
0.08411333334154
0.0842773520613035
0.083558788738134
0.0839998249681994
0.0846510898848594
0.0846252666565848
0.0850179345070273
0.0849723501457123
0.0850113418915017
0.0856803253693035
0.0860832216259635
0.0858837977924789
0.0863612902909862
0.0866360779333464
0.0864969995537206
0.0871647056345689
0.0877134136630664
0.0877529352734724
0.0873887517094692
0.0884537731971427
0.090158751175774
0.0892357771120836
0.0888828173749455
0.0892344094299641
0.0898213713366051
0.090622573694845
0.0906131318295267
0.0910289980363529
0.0919560582347939
0.0920351464387339
0.0920054153702213
0.092423628714437
0.0930439136264104
0.0939006346996754
0.0938068870971843
0.0937794718753326
0.0943452349113941
0.0951447356595225
0.096142203706756
0.0965226456732678
0.0968172363287721
0.0988447246074869
0.0997842966675779
0.0981468077944678
0.0980326881348867
0.0991555268897843
0.101241538627598
0.101604229473563
0.101415331407623
0.103066342621117
0.104129733791286
0.104526492405129
0.105987576023791
0.10852874385539
0.109158188998485
0.109294062051104
0.111287483918478
0.113291928026669
0.11553228282473
0.117743528405157
0.119535332349646
0.122099671036169
0.124735405927712
0.127401539236431
0.130823806945337
0.133141232267487
0.13442171696217
0.13727027529915
0.1397090235137
0.141240003508244
0.142652784158342
0.143783872773971
0.145581878794674
0.146655661258164
0.146150753239311
0.14572776098314
0.146735688589362
0.147790130012394
0.146030025393919
0.145628663032336
0.146301836692341
0.146355187045518
0.147944525679619
0.149976903689244
0.148357449817616
0.146720405576174
0.14793009686898
0.150219546328466
0.151144669607112
0.151594596895639
0.153346085572135
0.155087292493925
0.156343567257095
0.1579142437986
0.160091182266049
0.161876646813636
0.162866909592887
0.164664486151595
0.167111911476765
0.169888338830794
0.173525009442953
0.176760412323496
0.178126824461497
0.180374282137022
0.183486452144123
0.185454241887605
0.187879517072948
0.190788780272489
0.19359569125603
0.197233760018214
0.200723672238091
0.203691265023336
0.20710711337083
0.211505676301182
0.215278582623883
0.21851498431405
0.221964758371268
0.224690742832789
0.228784992666407
0.23478221295097
0.241350213400114
0.243102155644253
0.246656639797191
0.251524588567543
0.257427654912057
0.264755664095044
0.267202098659287
0.271613877147944
0.276801804212487
0.28182042615576
0.288035267547237
0.294227556506168
0.299432737763313
0.305048898769087
0.310429108700487
0.3149986561196
0.321869167599786
0.332035385152989
0.338353219724134
0.341981964431842
0.34553635772847
0.352379243953095
0.360210434857859
0.365709064149144
0.37186483213073
0.377721577246062
0.385364448953865
0.396077028788629
0.399150189784384
0.403310024536288
0.410666515953273
0.417915189100143
0.422784451222606
0.431587201795737
0.439936155394606
0.442960927331613
0.449062338910443
0.45550581460101
0.462005283465125
0.468488334187331
0.478092004346499
0.484872001456546
0.48896723841786
0.495176237888114
0.501234560350986
0.507299594130834
0.513157214615138
0.519278925133783
0.524106658096628
0.530536917828637
0.543223444743437
0.559149480022302
0.554057445805979
0.550815811640788
0.555805282712925
0.561412558317032
0.568709849431695
0.574978426012352
0.581391690889767
0.584343500212923
0.58314767423902
0.585436206067949
0.589958910865673
0.59403038616337
0.595526337002834
0.596177029212162
0.597916446433803
0.601750762405674
0.60229273035168
0.607807595253998
0.614732916561737
0.600896420591671
0.594584396740266
0.595617240290693
0.595439919300922
0.593483390965732
0.590113298464651
0.58832691268623
0.586361399851185
0.579245306655748
0.573206454008194
0.57166783231419
0.571877602219385
0.565737253911837
0.555069819163984
0.547864283286929
0.541930859961864
0.534978088521596
0.530114937011662
0.531308460488243
0.525099861311873
0.509318551896793
0.500154223994913
0.493826694234305
0.485838145480713
0.478995929376065
0.473351975845948
0.466591638039981
0.458732371973021
0.452278334444857
0.445863033657547
0.437731283037811
0.431278640556617
0.425735299365841
0.41948198379134
0.413123976441285
0.407046965621576
0.400438478304347
0.394569099322168
0.390192568134061
0.384887680147203
0.379434928021239
0.374697131922901
0.370037334213846
0.365486076107086
0.360384043681956
0.355832700424111
0.351797534729481
0.346993867497877
0.342258445605829
0.338663113349195
0.335340386363012
0.331821521398699
0.328349962972859
0.324799139699533
0.321520889958339
0.318526930974697
0.315912564095687
0.313463882531126
0.311007872091617
0.308713383317991
0.306584937968142
0.30644643429409
0.307043283507683
0.301344156814087
0.296766956076232
0.295429526540631
0.294218030549497
0.292409614636928
0.291620572017594
0.29128977267798
0.288361804162654
0.285343353899102
0.284048099268171
0.28362230517863
0.283055570184263
0.281285212764018
0.27911342952839
0.277731221564328
0.27773828862264
0.279854500924902
0.281614630890774
0.280438554465519
0.276067708199633
0.271465741455317
0.270082489205055
0.271191287928993
0.270549866889941
0.268610660369952
0.267368666221514
0.266754122113271
0.266136030955057
0.264172407216246
0.262628564388094
0.261624245536127
0.261276769040881
0.261165911645724
0.259069919442918
0.257856303907134
0.258103999094422
0.256272583615593
0.255017918673549
0.256590790750221
0.254142151938716
0.249026385340411
0.246958930875987
0.246207814731715
0.246020925362315
0.24710432521302
0.245997226741118
0.242704318991513
0.240653886480457
0.239180084038093
0.238506372615002
0.23807271734252
0.23686731127901
0.235760071635628
0.235891865316737
0.234290666594466
0.232100278761938
0.231820211429299
0.231643776398646
0.230735522671924
0.229057271437517
0.227152420381399
0.226549648935593
0.22691212487843
0.225327465567876
0.223416239322901
0.221969252922868
0.22157272107908
0.221733522443108
0.21904160664939
0.217007303715593
0.21633805782917
0.214743641231233
0.215014073966193
0.216267041531432
0.21392330933196
0.210824690746765
0.209039995163157
0.20809793935178
0.207980600139715
0.207410451492992
0.20638125426266
0.206224771292581
0.205306067780068
0.20415553380407
0.205059036486361
0.204391100325646
0.202403382964839
0.202136976330189
0.201374346127551
0.200713659602415
0.201405119369922
0.202182527143957
0.200910723277006
0.199400823748594
0.199337329801054
0.199154458044467
0.198516545894223
0.198269557799272
0.198344593328065
0.198829982858801
0.199073044021895
0.198857590134072
0.198771717493208
0.199035977626197
0.199394501415351
0.20004061849558
0.200861992645969
0.200651061773046
0.200970798367996
0.20236707766251
0.204233601471063
0.205699906291079
0.206760129470494
0.20852554634811
0.209955872241677
0.211255864138376
0.212534044330511
0.213784851822835
0.215615385645269
0.215551763270831
0.215110851881051
0.215779983323889
0.216460526702825
0.217281898229942
0.218131854820701
0.218985374558424
0.220665943275658
0.221770602638182
0.219748977687747
0.218349058839341
0.217377522311391
0.217045493744567
0.217218212709732
0.217106286659711
0.216489070022491
0.21622986203474
0.216651994055134
0.215764949035629
0.21513747447124
0.214996919365391
0.214742921388421
0.215103400460082
0.215348919477444
0.215168472397595
0.214852563056781
0.214844252735822
0.214564079672685
0.214601155690883
0.215656966289286
0.215091885319253
0.213720903879367
0.213606001173852
0.213486147545562
0.213095354134944
0.212996505088789
0.213373249763723
0.213590747266013
0.213032854659589
0.212414837344221
0.212816078250675
0.213373562672403
0.213663240258397
0.213890253090658
0.213789607919772
0.213883228852649
0.213924762885109
0.214820157014686
0.216321035941959
0.215759039474228
0.215610892554906
0.215516863248352
0.215159797570334
0.215253116505959
0.215219795737921
0.215095116651558
0.21477913293731
0.214646012234282
0.214935685876809
0.215143153120621
0.215087455550681
0.214611869043173
0.214535800664693
0.215148981504378
0.214758276126197
0.213991897215184
0.213783570982437
0.213771063610192
0.213831539476763
0.213962920584669
0.213612556299223
0.212779472989027
0.212572058631116
0.212555217230181
0.212786142953028
0.212738833946848
0.21136341713664
0.210505809550223
0.210637986474866
0.210788257457658
0.210626633386622
0.210933888198004
0.212263507269565
0.212558580768698
0.211742747815427
0.211797148161931
0.212324269178838
0.213049914226922
0.2135816339869
0.214019731600875
0.21498650174497
0.215719446217779
0.215695933715896
0.215504821282233
0.215870732353738
0.216300309319756
0.216042262622917
0.215998990495097
0.215682186652588
0.215104826607468
0.21526274004664
0.215792952930666
0.216494170408124
0.216568944370184
0.215623905866812
0.21521251659707
0.215394804551292
0.215771711757363
0.216295430612115
0.215778236958843
0.215431287161578
0.215800200096607
0.215565076633924
0.21527415086211
0.215311797649249
0.215609124646345
0.215913935908773
0.215870755101063
0.215573660544804
0.215058508419834
0.215139460793064
0.215424191101636
0.214902157811324
0.214947396029741
0.215320191912751
0.215297399639689
0.215397224936601
0.215485316576532
0.215761240670968
0.215943475050868
0.215820651403071
0.215900494095783
0.216500400892606
0.216833285141511
0.216703321331679
0.216757194410673
0.216657603824984
0.21664546673797
0.216523466847479
0.216480356986076
0.21640779642138
0.216158438697059
0.215949748135811
0.215572031509551
0.21537508589973
0.215113489386611
0.214687944659967
0.214191004158779
0.213921113201384
0.213555846680421
0.213088857848085
0.21291248046745
0.212867437730739
0.212740591716877
0.212303914301596
0.212128298031295
0.212183199564966
0.212110026170383
0.211828633576359
0.211640599153083
0.211693604215102
0.211706064805403
0.21131858798282
0.210974989291552
0.210943534619177
0.210872177311584
0.210980071866739
0.21122021631142
0.211230975022403
0.210999280806118
0.21073705505015
0.210273780962714
0.209947320382551
0.209873021271192
0.209493989110771
0.209393158249298
0.20938533588751
0.208887379354054
0.208612362318884
0.208190289246857
0.20769390366827
0.207742507787221
0.207831157019413
0.207455892755311
0.206963909885341
0.206959011873834
0.206739764128949
0.206360933214913
0.206502547790696
0.206508575451269
0.206052330049523
0.205917091147659
0.206086799249573
0.205918948821182
0.205574481669333
0.205055272891564
0.204944560968356
0.205205999195199
0.204986537475121
0.20458352730395
0.204297308025334
0.204197733132377
0.204372183428323
0.204338856143648
0.204045845281947
0.203754666045063
0.203619769308369
0.203702444099022
0.203497703489669
0.203599612063314
0.204003627273549
0.204221488374806
0.204455888477087
0.204769307077182
0.205221486739763
0.205185043595574
0.205102625505721
0.205298625244574
0.205226229128592
0.205204069691017
0.20530616568492
0.205557220492315
0.205574018209701
0.205616157505605
0.205816703433411
0.205933442712114
0.206084773311735
0.205978823990841
0.206187919929298
0.206341163202739
0.206450527985471
0.206521498720919
0.206502348160625
0.206835472767928
0.207475893840231
0.207670079826801
0.207589845124344
0.20759914560669
0.207347525346531
0.20726927352661
0.206951013167017
0.206554593347887
0.206341827732395
0.206250487109571
0.206137319104701
0.205650778188901
0.20520668833338
0.204700202706204
0.204187037275429
0.203732887868727
0.202908258078365
0.202138274818471
0.201586102165074
0.201244289201759
0.200812280863264
0.199983116248878
0.199403016234441
0.19888410991581
0.198276995634036
0.197883579172248
0.197469610757033
0.196806439554053
0.196139217924992
0.195661434274864
0.195346693259783
0.195284742611679
0.195051656694201
0.194652331594533
0.194549605524995
0.194637571862292
0.194762389076093
0.194765174068505
0.194787364203089
0.194686034729584
0.194557267159604
0.194744427316526
0.194726280186911
0.194496335650226
0.194660618146111
0.194863990468921
0.194875238079588
0.194753289407316
0.194276233972868
0.193718272868339
0.193362180239408
0.19292506332384
0.192502246353754
0.192295149240818
0.192093662440415
0.191884236075576
0.191607728816125
0.191289069746153
0.19064399333268
0.190082433923088
0.189871373395729
0.18947342375773
0.189375677721687
0.189614430462212
0.189762528107458
0.189941226419906
0.190020857235867
0.190245673580613
0.190783763059056
0.191373137894289
0.192116271181527
0.192810536085191
0.193465152403832
0.194508872896101
0.195786738851851
0.196997106396519
0.198618560649044
0.200463153655321
0.202182679274969
0.204224908706323
0.206522705820312
0.208652450031155
0.210763964560176
0.213395870406831
0.216569269863756
0.219487393771108
0.222527479872771
0.226406201259165
0.23008984722218
0.233504047281321
0.237052492968342
0.240428480183825
0.2436429720052
0.246806980244122
0.24991688969897
0.252772490432059
0.255332585889173
0.25775659879669
0.259915574383585
0.261764990260141
0.263494987698005
0.264889412719753
0.265426118167289
0.265564020108563
0.265329187973437
0.264564679780838
0.263656989343644
0.262699215969048
0.261306929522827
0.259427839016865
0.257612989865468
0.255961575901931
0.254008556371488
0.251676819221358
0.249272425932288
0.246779535810757
0.244605046863803
0.242725369471781
0.241047066624998
0.239793599862853
0.239102907321014
0.238960694328674
0.238943758741182
0.239056637786564
0.239784565816763
0.240621076197313
0.241834371129865
0.243413183280011
0.244746727876752
0.246282770232826
0.247764235001433
0.249045900283986
0.250374480271843
0.251592139288996
0.252400915867247
0.253059531214028
0.253338117246642
0.253329230540253
0.253649204511893
0.253895895979887
0.253861113574646
0.25389946719362
0.254224935645451
0.254329580823888
0.254605758152564
0.255006975345887
0.255323558232416
0.256017296553097
0.256849776298054
0.257942236920704
0.259432630703526
0.261162848491537
0.262396115511003
0.263374183694157
0.264780178658597
0.266049724577801
0.266659780858523
0.26705480200556
0.267559169653819
0.268016656590377
0.2685096584501
0.268976171349848
0.269720667165548
0.27078853863831
0.272212125096852
0.274031830711504
0.276024723320618
0.278098459013446
0.280507791320601
0.28309870479345
0.285830900861264
0.289203754497552
0.292980799049532
0.29706976240441
0.301320520208277
0.305619520844618
0.310516569158269
0.315522666179453
0.319883641945493
0.323402124589721
0.326284094008132
0.328859749518408
0.330331570914581
0.330430701918058
0.329441776345729
0.327157744427316
0.323719028659548
0.319506658885748
0.314497796496044
0.309141657126874
0.303879556176233
0.298977240570008
0.294983972388726
0.291710453264693
0.289467514498979
0.288425607786374
0.288401567209873
0.289174256945967
0.290290648101767
0.291677037335839
0.293720816743243
0.296289508365187
0.298888294399099
0.301859763687598
0.305342806426453
0.309137837051863
0.313044245808848
0.317140744650616
0.321738033518899
0.325962361282938
0.330097703603104
0.334083826996298
0.337476048103252
0.340071513653508
0.342079364394776
0.343759235809195
0.345226752872529
0.34650560973054
0.347499482796491
0.348825776707638
0.349479370692301
0.349939768485305
0.350403345307809
0.350205999487889
0.350001931787471
0.349829427750574
0.349946897011034
0.350472902208545
0.351549917529916
0.353195671253934
0.355109502522884
0.357928937365341
0.361196197808636
0.364126069892452
0.367062004502528
0.370267459379879
0.373476589552595
0.376423987650366
0.37977210870859
0.383353395686759
0.386349082401347
0.389365353414485
0.392044714113211
0.394273502582748
0.396144977671781
0.397278090074083
0.397789482742249
0.398354791343012
0.398317168280562
0.397636221513047
0.397021016628185
0.396264282433678
0.395624381051139
0.39528049695364
0.394838238079967
0.393982090796767
0.39340672709276
0.392696688158121
0.392275188757521
0.39197023756774
0.392051271844478
0.392870625471722
0.393660721243333
0.39425051596452
0.39482704196197
0.395428185163693
0.395244726899287
0.394636692245638
0.393968964781282
0.392601162400253
0.390825441135026
0.388737821722325
0.386264007865755
0.383949087703319
0.381394753696348
0.378265863370989
0.375289446322913
0.371616576154297
0.367469711200587
0.36340701929224
0.358679068505346
0.353428612350388
0.348535717811117
0.344449707424245
0.34058905630001
0.33645932259794
0.332621338923315
0.329335100044147
0.326253341699392
0.322513072181579
0.319024919514854
0.316560099143049
0.313437045080347
0.310665243264138
0.308628596922332
0.306490098229134
0.30497930838075
0.303719041203231
0.302346225609903
0.30101411395785
0.299499766290323
0.298383866822511
0.297436720785626
0.295832480418636
0.294538563160721
0.293868091670948
0.293638911742061
0.293602330917223
0.293325760442926
0.292994895065441
0.292410364203449
0.292082720357264
0.291793196901084
0.291220450366393
0.290954079199589
0.291217374822358
0.291498112315511
0.291577653771608
0.292108590378918
0.292752635638597
0.294042972508608
0.295134226830189
0.295537728159637
0.29607895885755
0.297169524672369
0.298455097645701
0.299055785858093
0.299545975488389
0.301378994205132
0.303498416357521
0.304864839069701
0.306600708950104
0.308084342662113
0.309361841359164
0.310737871264588
0.312090593670448
0.313286808475409
0.314677386528142
0.31643800234047
0.318050089231838
0.320167554781436
0.321760811274341
0.322572389896515
0.324023050941178
0.325871463112271
0.327285190962433
0.327976178535752
0.328969985748902
0.330028724214962
0.331204642633986
0.332306498592761
0.333407327815301
0.335128724099463
0.336431313715852
0.337889415986454
0.33866494924291
0.338481950500016
0.339010984829967
0.339929938466534
0.340785467146624
0.341995716792887
0.343107093922922
0.344792212311243
0.346657335266347
0.348485162660456
0.350367457809531
0.351877790560495
0.353343861365606
0.35437052972093
0.355818068171266
0.358145926372107
0.359590427387089
0.361128940719644
0.363384633274581
0.365822349922869
0.368161901739188
0.37022757513896
0.372667840357793
0.374331037324842
0.375624394952448
0.376984983965315
0.378446359569204
0.380564973216813
0.382262854708696
0.384530042146535
0.386555071214668
0.387935018213304
0.390315028916458
0.392837338259531
0.393994151433015
0.395184837603168
0.396954253649228
0.399199672304987
0.402215131374967
0.404377655755337
0.406337766102834
0.407956154064311
0.410126964227622
0.413644991971752
0.417238098914793
0.420769188862249
0.422226588054582
0.423809398049874
0.42694033484425
0.42972179819205
0.433198967893791
0.438230067339454
0.44345308807952
0.446545771966802
0.449844280205144
0.453520700217333
0.456908920149782
0.459143945728873
0.461243114873337
0.464237928024109
0.467545672641935
0.471074242404995
0.474227420724095
0.476523812672427
0.478204932281992
0.48127593495732
0.483506295668314
0.485626825350678
0.488665932077975
0.491032722208999
0.492617671886311
0.494622416212281
0.49838724969066
0.503286600198649
0.506357216797452
0.506662590619583
0.508853339889915
0.512928365520779
0.515445933626679
0.515903907799539
0.518071519208549
0.522369662790987
0.52583628863943
0.528634344966015
0.531927239500947
0.535057810543042
0.536307663426812
0.539703842958215
0.545264074479205
0.546821941185146
0.547002387123482
0.550878646964048
0.555395661355376
0.557155205907562
0.557553911794915
0.56076539334459
0.564771977116418
0.5684153592049
0.572662852936641
0.573637633446587
0.575461422007863
0.580537061884319
0.584724641971788
0.58860418413609
0.591659107708556
0.59350524800564
0.596368679268525
0.599089899153689
0.598654051070023
0.602112680613461
0.608817194611239
0.612617882544224
0.611194232462402
0.609656626454715
0.612927579832718
0.619302866145481
0.625317888268543
0.628145360690702
0.631084458225217
0.634321640016144
0.640397720709422
0.644588876737285
0.643974843098152
0.647764610309645
0.652150146806915
0.655885221699722
0.66324654883493
0.668019070083598
0.668761332648966
0.6699961723506
0.671206764278164
0.67795599287541
0.686339279071226
0.689297444755945
0.691145253601861
0.694312258975738
0.694424679704651
0.695734173929382
0.702148133026844
0.705625418695771
0.708707030934195
0.713263512584304
0.713851200675168
0.715162198267524
0.718644696833826
0.723112372882559
0.73066465305129
0.735583999323001
0.733211289345528
0.734383871820175
0.742855357195711
0.748582799272986
0.753095078430494
0.759256488410059
0.765812332934047
0.770597302093406
0.771464640431172
0.775378685935238
0.780080657745104
0.780173295900944
0.780588014861339
0.790268815246357
0.799502067408715
0.800249223789562
0.803336721539965
0.812022433786645
0.81006428386343
0.805850246557106
0.810120309901212
0.81568698853852
0.826531079769966
0.828521626987793
0.825739153477171
0.82985759592969
0.829013942259888
0.830734980612258
0.836441995775016
0.836363157973677
0.836209728961727
0.835445770054447
0.837479442617377
0.84302809793539
0.847050216361632
0.852909305661878
0.860857184150036
0.870363136657554
0.873223698615061
0.87563623556001
0.877908146496151
0.875643892293871
0.876933754865216
0.881188680462989
0.88580121839096
0.894880336317939
0.891790575189612
0.886085085179689
0.893000977124422
0.902121668886417
0.901444199660925
0.896445382778681
0.904126466153972
0.902256572170083
0.906673106969976
0.918123045173723
0.91711164712191
0.923366853923867
0.933863936169564
0.939350793419179
0.938399114889304
0.949986510301983
0.961469634803688
0.956081766852993
0.943161708500721
0.942591025719424
0.956923201696495
0.969952313093971
0.989968058753829
1.0066655646519
1.00677717843001
1.00674205352827
0.987281575273041
0.9911150254784
1.01413991594365
1.0152075975991
1.02579518262717
1.03242484180358
1.01765965847818
1.02463789539505
1.04268615357491
1.02482341337657
1.01528599764911
1.02081072721279
1.02805831873188
1.04456091286909
1.04888203375944
1.0561725293997
1.04952439387742
1.0342286957564
1.03646855025896
1.02849405872182
1.04088001718719
1.06348852379892
1.06460050660497
1.05773165703477
1.06349749284378
1.11601253852876
1.12361705446836
1.11571418432099
1.1090073574387
1.07510628518789
1.08354735521023
1.07687221371426
1.1125231670408
1.19326282977266
1.17875388799395
1.14252481896858
1.15229162039277
1.14589102353121
1.1247471028054
1.18915733364398
1.1805316616685
1.12673256190151
1.20277963561076
1.29834657455305
1.24438157534741
1.16363973866161
1.16651514737566
1.17316257969526
1.17596155178919
1.1912374240478
1.15527350411453
1.15572452444451
1.30034011213196
1.45902231718162
1.33227367795945
1.23854949228388
1.19594391140368
1.13446070319136
1.30049129420907
1.56087378173632
1.31956866111034
1.23935572823521
1.33498981308696
1.52327595145675
1.55740658349488
1.39289971394589
