3596
4000.36533379555
650.420452594757
1
2
2
0.0368622940665296
0.0456238451425581
0.0319371488841106
0.0455247012268802
0.0393591451855543
0.0441602279205579
0.0350775575382349
0.0401901553079965
0.03763621398133
0.0438204915268602
0.0335227178888802
0.0436236697818902
0.0368600460261548
0.0414247415328402
0.0348930673383007
0.0436846650898445
0.0383765785529677
0.047793037778046
0.0349239279245189
0.0419346238456447
0.0335263855922714
0.0369024052027983
0.0350546276696655
0.0388187814457119
0.0362175562325137
0.0485569598310724
0.0396613249288531
0.03781437207486
0.0358908685946158
0.0426700948582745
0.0272067411468663
0.0438864724205724
0.0373681593625684
0.0394523761733692
0.0265432479376626
0.0523359606602054
0.038981592026002
0.0483338678713378
0.0363222407230024
0.0382861908766355
0.0398106768153754
0.050975568066825
0.04078238446836
0.0448126337469501
0.0380414528874624
0.0479392410572347
0.0348286576149354
0.0451329077399155
0.0391396677501073
0.0443854807600766
0.0454367052197895
0.0339490458953433
0.0388675386935692
0.0450987404201933
0.0344514697139658
0.0523567413521602
0.0309569149024271
0.0436942458746362
0.0346576225458528
0.0409748785932349
0.050019169977672
0.0519666439247344
0.0363730193682433
0.043700327668282
0.0287191469263424
0.0553717713417145
0.0309563720929888
0.044731585602802
0.0222078929174651
0.0473015534987036
0.0268938902106238
0.0561176706917245
0.041848900182477
0.0459284662611769
0.0355490105367533
0.054476075269498
0.0338476055504653
0.034165570273033
0.0274091214390187
0.0420881575131467
0.0331833353846396
0.0428218469446722
0.0401428965288906
0.0347921342865056
0.0344287810634561
0.0676121609246444
0.0179946687574322
0.044991169252447
0.0466451711773461
0.0537601454623977
0.0241855822960016
0.0433436494436585
0.0279366203371525
0.0413898948940113
0.0259131675889555
0.0460370910049345
0.0300686893980338
0.0458754770973023
0.0198340144385321
0.0523149595228337
0.0319423857721654
0.0438422798409314
0.0616934391041085
0.0331332170297528
0.0709422476824004
0.0493186908423527
0.0295701039679379
0.0680599164990289
0.0443204963279956
0.0532929197637724
0.0278945378103735
0.0371113231841917
0.0233848260448049
0.0459213570890024
0.0136844838333038
0.0562129307105526
0.0464366697055112
0.0532687774793277
0.036541668087049
0.0480144524137252
0.00448368956582253
0.0665068522245826
0.0566242425068059
0.039678777016748
0.0435905983927165
0.0385243274080799
0.0200403493854584
0.0647174693870922
0.0456039013285765
0.045890965599183
0.0307962228726297
0.0396680796365378
0.0290411390839018
0.0349496572185844
0.0598718525871566
0.0440873206507187
0.0344540413366704
0.0211000782429969
0.037363467624703
0.0806497529721567
0.0416829149467977
0.0460602832822756
0.0153153129106587
0.0387537829754947
0.0584515414287404
0.0512507065160721
0.0293348085176949
0.0559653919798273
0.0353167000681846
0.0434633520539301
0.0303965114968039
0.0409693821289634
0.0418843691468936
0.0537749012777172
-0.0205146204189786
0.0950266204546353
0.0571428795749316
0.0584125536403514
0.087725123402267
0.045340760011643
0.0453435202277323
0.0313342757802284
0.0406232986092515
0.0268004876306786
0.0410511122439717
0.0204338473793616
0.0338811365083557
0.0519679146731105
0.0246373013843008
0.0335983534362214
0.0511461489889701
0.0429226783645055
0.0148421447809568
0.0963503264215518
0.0419871036236276
0.0382111446372735
0.0560789543352445
0.0590372786528426
0.0192073433052408
0.0421798074676441
0.058327518978974
0.0433409257108496
0.036704688254898
0.036952956590051
0.037685018792337
0.0497417451583943
0.0360645737972793
0.0415291066086185
0.0344890663821137
0.0246829046403863
0.0331270912576122
0.0760701648400086
0.0607595564098968
0.0471619741948442
0.0420848657538052
0.00229694215631296
0.0572863008921012
0.0485607964962336
0.0402807689355755
0.0375627063906482
0.0312691980462087
0.0376230541850611
0.0314989371986849
0.0392863930938324
0.0228866954592899
0.0161040154060456
0.0649649184893049
0.0498493523396445
0.0419183385899788
0.0312593929289257
0.0301276291997483
0.0110848365396947
0.075257666224476
0.0581516145552963
0.0416458069297643
0.0401932471218357
0.0248444376014253
0.0483748774434415
0.0430187417144759
0.042808043267988
0.0312574393493811
0.0351385714078031
0.0348403460150045
0.0386565384938825
0.0336652468232959
0.0345064445433975
0.0297718564093646
0.0328249462918432
0.0358497239770252
0.0394590612880978
0.0363363674530834
0.0440868854770742
0.0288487950488407
0.0405590428983553
0.0191544437189396
0.0465283553225602
0.0505089726883557
0.0484098655783196
0.0356052710331672
0.0363190281700094
0.0318586517225059
0.039090626023514
0.0358140804392431
0.0393368476434281
0.0320898220640221
0.0284432655854439
0.0641466750946275
0.0422449802618563
0.0430376727853325
0.0226870745796538
0.0536832559219662
0.0443959945529341
0.0420597110241469
0.0350065142995047
0.0421061015613925
0.0254430633690503
0.0295532886611304
0.0552442163718175
0.0405705841384583
0.0261678999718622
0.0478545365393943
0.0442454264935743
0.0431223533938026
0.0254523656659905
0.0114264718533916
0.0927052510128552
0.0385543080916652
0.0301341356392548
0.0878343499948342
0.0435182316669707
0.0502782558029914
0.0248828752998375
-0.0109832368150738
0.126951056449513
0.0813916506494683
0.0492393533078454
0.0262179148244094
0.053525300618266
0.032636804525913
0.0521210697691997
0.0277596151606261
0.0492281526982064
0.0409682578453002
0.0712041858945842
0.0825796473965426
0.0142510950513568
0.061593104817661
0.0636268398175573
0.0475901235560614
0.034527500557756
0.0435313178621851
0.0309423157062603
0.0512377087276629
0.0449725679691799
0.0544284469508741
0.0396576467021572
0.0343273431578889
0.0621123165180102
0.0487220949639908
0.0363715995033991
0.0407700993890336
0.0464653407912901
0.0350231519982711
0.0438326788146632
0.02696673784853
0.0543957814390624
0.0311860029515794
0.0389788112262805
0.0852738251314002
0.0454210642229203
0.0389958604376796
0.0642979680624553
0.0398462502596414
0.0406295864652411
0.0359942164820172
0.0453724301394244
0.0342874810832074
0.0363057332192143
0.0252945251253616
0.0692757355604714
0.0438864470814434
0.0437478659689542
0.0350631015422128
0.0422702258830452
0.0365017172539126
0.0485181710725119
0.0376524382999087
0.0419345426170169
0.03795603200266
0.0311887648052392
0.0475002331200262
0.06256552674858
0.0112618605182997
0.0805166272040202
0.0597931337042774
0.0603358622176667
0.0411271085626798
0.0444130601345508
0.0434703739062321
0.0449052114961417
0.0443968154973087
0.0405928171822003
0.0374121682754964
0.0576569840500579
0.0474182051973121
0.0378155151299097
0.0263438059690769
0.079984682729838
0.0859274971967948
0.0712906531331199
0.0582524899211326
0.0216831763704408
0.074054521516387
0.0624585963963507
0.0712847355024798
0.078225776717826
0.0482756411676922
0.0615575021506334
0.0435283679364065
0.0562803911012374
0.047414954078912
0.0678435820756509
0.0501737406731947
0.067138804931392
0.0503752762639733
0.0641115002689717
0.0439013282923817
0.0615247407057044
0.0852299315799059
0.076623548645722
0.059112680139074
0.0735703128365427
0.0389967173821466
0.0939969335960263
0.0564338529807142
0.1215533299031
0.074774272385226
0.10434384498956
0.10406729571837
0.0803947975464168
0.0758357543916664
0.0773789295233039
0.0739941414018484
0.0733676660238172
0.0752166550868498
0.0855170972699731
0.0743599972714519
0.0846892579873922
0.0735422930902155
0.0846014052986573
0.0808711586497061
0.0826204719375085
0.100964604581535
0.0977513023725642
0.0919190970528536
0.0756671480901107
0.0975410969802481
0.129784175214713
0.138810680838706
0.100976447348944
0.10050980047869
0.106522311638245
0.101820711990491
0.108566849784635
0.10212577141365
0.109162272279116
0.0992837394155224
0.145314432119513
0.114284049007525
0.137025794630306
0.124377334846768
0.108097397360268
0.134070805900507
0.123049209986763
0.127300817023808
0.154183613110179
0.132357056620361
0.120360630723038
0.147616037926206
0.148979878409908
0.136077585276943
0.157544914412828
0.138832257647962
0.148497316371855
0.128447874421832
0.159308556438579
0.137510844707113
0.169624828914963
0.150765128590092
0.152183842172452
0.155808495028646
0.167355643812522
0.152173235101556
0.184279393553693
0.163412891237271
0.180914800284166
0.179232373052513
0.164804220463213
0.176135030383755
0.166394711309542
0.189702991382427
0.197779750203407
0.193244531062617
0.217267257619582
0.183175846795929
0.18740659022222
0.183408805054405
0.212523134404955
0.192503086909279
0.221899084126357
0.196655797219704
0.217924737744819
0.198510501043761
0.217645011260594
0.214480794457924
0.226273604133982
0.221693514949744
0.236370689322364
0.216811211163929
0.25420479194753
0.232076297931017
0.225866486290086
0.245567277556954
0.268529084291069
0.245198160900532
0.287306106948675
0.249101794299839
0.266438845220761
0.248812804160196
0.271471683761328
0.257859285234919
0.286094923366724
0.268767046360837
0.291872918031197
0.258311900203467
0.286994567326685
0.274165887158194
0.284687281776517
0.273392689738352
0.303960912250866
0.296152429335721
0.335117573517301
0.294099462856605
0.319009707850491
0.288997260262458
0.327154302588962
0.309120766541373
0.350158754487135
0.31597648849505
0.330861841765844
0.319052232062443
0.360434691164816
0.335049081174173
0.349011992521237
0.321698703730047
0.353732338862328
0.3509289531064
0.372685011445348
0.346311098562069
0.383693952907604
0.340702492873896
0.378689481538794
0.368826542773087
0.389941413116769
0.369081680462527
0.419402719705244
0.381548090213088
0.432512731140873
0.388431498886403
0.40336545746454
0.381073649057963
0.457983435099605
0.394113928129286
0.42367188130733
0.3979043665504
0.453824853004243
0.419129597052117
0.444444007850819
0.423776875372123
0.445889614118809
0.421243305581687
0.467976316765742
0.426033535505226
0.468758604638276
0.439551797492132
0.497298600261465
0.449704707745867
0.493216938990484
0.457876323957727
0.476610818061488
0.465882776075037
0.488708689031277
0.462302411633406
0.527926331256177
0.457343937482087
0.51190941552077
0.4979487909325
0.529718442158828
0.501545541837615
0.546242246833756
0.512247095337615
0.55256579937447
0.525973630968055
0.594514992970091
0.509033637582438
0.563662843294307
0.530962381150771
0.579923402817288
0.529278910122898
0.557970802153121
0.549774290379075
0.583825142366448
0.535474506939765
0.586273484857103
0.55975824264621
0.611921129420326
0.555248338672415
0.587780513854633
0.533680518983648
0.614860313282765
0.579922643988499
0.63454097911016
0.580375351783293
0.640622866473949
0.607580513330886
0.656956456671456
0.579260367259492
0.631505890116287
0.599292013525548
0.657126085636962
0.604039522685045
0.670096657470648
0.613518064199449
0.676380216469494
0.620996079348101
0.6914233999587
0.637801786056113
0.705097449302038
0.669543106878784
0.718523159497501
0.642088362212331
0.750288709741976
0.65731940023735
0.722809667012583
0.700957358803158
0.749541406514488
0.681230036666616
0.763712551263321
0.728791767040818
0.785851173677415
0.706827793379558
0.753466451567597
0.713022428376395
0.758608950975547
0.683670219077296
0.769535196330092
0.708148789025337
0.757013533733731
0.721953253738918
0.749393213105118
0.749974829771043
0.771616518621811
0.698383558545841
0.809229130574901
0.76557428150517
0.776551194043403
0.743589362305415
0.850950417010826
0.758304252306005
0.815372417900848
0.76602375070211
0.796868871440323
0.762796713877527
0.845179608810154
0.777397221084795
0.859084149897459
0.773430722938745
0.868211774972479
0.8187358142901
0.896118612922598
0.807640719896662
0.880726699884096
0.832654966119463
0.88775380122313
0.798274675740171
0.840830718993573
0.750135136549416
0.865418429403118
0.802447394503009
0.864945491571174
0.812525338478191
0.878068618716238
0.801398430746377
0.855580378297123
0.856307009174058
0.901560704994037
0.828600359753317
0.948375132149347
0.788151130291971
0.882224930641507
0.829992234850988
0.925212290025288
0.83484732812809
0.884053976065201
0.871499531748976
0.924371254154416
0.859476156491735
0.98107538914395
0.84845225846986
0.94451774966251
0.886563761047587
0.953397463534941
0.85233132890728
0.980430668353422
0.901412453286658
0.943570522626841
0.922787085811914
0.966489623746944
0.887734927322644
0.978204028142176
0.877055067741199
0.972003065684359
0.926005462176884
0.982963792374244
0.8934939111488
0.961792535507856
0.925446052500464
1.00411415153703
0.922214212451184
0.989462939483925
0.896113920865392
0.980508721910437
0.924207710272055
0.987008733344018
0.865956224607865
0.988388151890084
0.902551627378888
1.04892611838206
0.917437495351398
1.03227112201936
0.906466460330076
1.02967676589158
0.958641599083098
1.03213328049096
0.894267034269578
1.01389947467862
0.938021613950655
1.03253313504583
0.962873336744026
1.01478142874697
0.934220093780789
0.993380632173239
0.971032883584903
1.01265337851794
0.953347494209276
1.01432049529735
0.908545677142967
0.99194864744326
0.979129105020959
1.07157716571428
0.895254336994783
1.00099454315841
0.922764142488216
1.06452300074877
0.94742633096955
1.03410058570699
0.962506673528093
1.00844266978065
0.919499248190688
0.973906777514543
0.966179705835053
1.0554201350469
0.974754990838369
1.08292612637112
0.939917509250857
1.04295170522493
0.958201861703685
0.975003389483386
0.940963654566644
0.977095346378613
0.926473340163839
1.0667115036188
0.981966344569609
1.03462257066753
0.940944075115004
1.01891512472472
0.972040707623615
1.00778313567015
0.910175556919405
1.0040915283394
0.978771287505367
0.992165262713597
0.957676474264847
1.01760282224134
0.967634310743758
0.994427499159592
0.97768235914625
1.04726584352617
0.988053789471518
1.06556929631437
0.922796841806344
0.993392653385812
0.95920822673497
0.978450207825458
0.949765013452568
1.02404398340229
0.948160975025072
1.03474702205988
0.948786323886434
1.03826606655201
0.949975521134111
1.02409184213136
0.950276954265373
1.02778875515204
0.922440293556447
1.01934205572962
0.976824911401557
0.999415027217701
0.930001142862871
1.01259143245753
0.960976589839854
0.999727835052099
0.910524420953798
1.00907537224684
0.920777041653018
0.986343501563439
0.933979622536749
0.977297480160862
0.929392624667929
1.00255714541678
0.910313203479168
0.994693027930253
0.964532283229526
0.96623575922782
0.933741505541129
0.987730199268762
0.926502684097658
0.965961102159484
0.966032699222554
0.966814250242352
0.939308838526773
0.954904704887593
0.919952337317662
0.952571721628316
0.942941734692395
0.959332105560662
0.907127308747199
0.950024708864784
0.928001932479091
0.957278868520794
0.925452694945766
0.98296861825117
0.908833883239646
0.963777724171407
0.869366348937651
0.968317965749768
0.901053307464568
0.94013992858717
0.891643976927873
0.929743085148142
0.895809871721049
0.954856110831666
0.859918519846854
0.896069025093423
0.899466002318003
0.949554444668087
0.866828490943134
0.942886713667991
0.88028255270117
0.961906424565934
0.852636464218186
0.88611694502904
0.833934084716664
0.890389862375131
0.865303635603002
0.914065088477459
0.830344313744889
0.882759885008184
0.839922739854811
0.862688091611887
0.835497881368994
0.897783842812401
0.842423376512785
0.887577477895686
0.825617846465163
0.868188308627976
0.824190621528256
0.860365703814507
0.804333627486429
0.840601051812147
0.813126471253095
0.840330656608449
0.812773944480555
0.87829630847911
0.804112660280158
0.856405467749751
0.820752662127847
0.831036631834784
0.784454296798701
0.825374079467651
0.784090246155283
0.801305578096393
0.768388023412456
0.830507350238583
0.785414494369065
0.817886993416662
0.762354139834782
0.805768504701002
0.754353482371779
0.802575604166591
0.7607962328425
0.798161604542377
0.735614173443611
0.786026149135671
0.74493730619257
0.759791210646811
0.734376284874134
0.775290834049086
0.727555452672842
0.759819274594482
0.721151871811814
0.751718362989814
0.713752487907742
0.743644955245951
0.705383271044517
0.752683962610257
0.690682801572236
0.730686517864525
0.686316341387324
0.734450272613178
0.69796043414528
0.726943494284466
0.693020197446906
0.698972174182031
0.66394347153373
0.711189599810524
0.658289396221759
0.698479648575845
0.659571161438597
0.686613189472816
0.66318572694003
0.689588685418365
0.642853969673736
0.687966569043162
0.640869690167684
0.673679092266312
0.627584420769347
0.657601537415259
0.618563993022377
0.657369768787411
0.62991219918563
0.643836586254923
0.623168586513688
0.634746662699723
0.608861050989975
0.631611712838076
0.60676896791719
0.623180148832554
0.599110777403153
0.617760026812353
0.596788097593664
0.603883321085412
0.59239655351155
0.603111374330774
0.571849915314692
0.598783207616015
0.57593980338074
0.597186607701518
0.567844562378091
0.58478128457025
0.57692130415596
0.583250336316979
0.542703166528683
0.582710475930233
0.554376436359411
0.565550609192706
0.534642562924082
0.570256369804106
0.532257608236879
0.549279123923546
0.537956962351504
0.550157709412568
0.528300843832693
0.537807133802036
0.517877712468897
0.523317018067443
0.521775944511877
0.532399695272512
0.485259252835244
0.519945019597867
0.501868682714549
0.516312685083342
0.497662441458527
0.500707362977314
0.488229977661125
0.507091701689667
0.479727842383778
0.499903807722336
0.471778815160689
0.492917336754049
0.466926884929216
0.490121599275258
0.456532714595203
0.477285256123286
0.455134750665382
0.463784195865147
0.455348661931622
0.468479272240842
0.451400897716265
0.465098105631057
0.4494443040919
0.466607783369231
0.437653049846429
0.445674764850452
0.427012529668134
0.433743227485381
0.434123405327179
0.443697649102232
0.426722872942375
0.443206996818417
0.422677333599011
0.425325410044493
0.420168074009682
0.425803733521283
0.413187180626773
0.423766357160029
0.404533510051452
0.413889295022345
0.399327443024826
0.415802934329836
0.398557337945604
0.407217655966596
0.389246587411278
0.405712760276701
0.385025089904619
0.394039318639735
0.379447583636079
0.385581727015731
0.374642779912846
0.383991587674163
0.372514344018744
0.37699322051063
0.369505511420554
0.381121300526681
0.36325739717435
0.377299381840734
0.361656277157805
0.369455062164801
0.359018614941816
0.367920984071816
0.354117790349035
0.358738090622757
0.347090944988007
0.35485105539119
0.343833974413591
0.352343660764415
0.341974046142027
0.34749089150956
0.339861055224885
0.346060429199581
0.333068953316509
0.338116369866656
0.328415062559364
0.340125474541021
0.316687429260356
0.32944115201249
0.32227332917785
0.328986420195025
0.317174177931743
0.325359957378754
0.319057262075961
0.321453574284246
0.313475225675856
0.310960013655648
0.303871643895103
0.312185740106464
0.300063850662962
0.311771813518739
0.298532458254727
0.308504912756994
0.294364522613571
0.303119204732573
0.292574658953548
0.29938296967024
0.284721536818796
0.294716465954224
0.285939824823966
0.29399171558367
0.278311483555187
0.287799805258685
0.279602801746615
0.289386885951892
0.277871628832155
0.28233837527076
0.27392449458064
0.270461038362424
0.268504574639988
0.277302737931671
0.258005004899515
0.270009686297005
0.25981430305136
0.269190499255591
0.249430150564402
0.260955858934659
0.255799429193619
0.264651392023806
0.253777161880557
0.258592140865794
0.25086040984764
0.251832682298618
0.239527327741657
0.248626063599095
0.240854591252012
0.248679167133109
0.234444302126895
0.247838140521256
0.23713351077272
0.24571376171974
0.230106039887002
0.240044432749393
0.230634269023496
0.23710799983945
0.230773592137123
0.237016853131943
0.229372290465196
0.236267719441411
0.226758666313634
0.23847662284794
0.228594513482122
0.22890772320271
0.222288235214827
0.231903986909861
0.219284063594358
0.226914816944881
0.221029410621976
0.224989687698011
0.218698020979503
0.226780766372933
0.215948216888454
0.229134327557887
0.222706926456634
0.231733915045726
0.219315204586175
0.229790980246074
0.219625168129309
0.227866826105105
0.226716077143902
0.230097683988691
0.222509090779318
0.233831319642758
0.224869145580164
0.230810407019845
0.230371169215718
0.238896223724079
0.224631445266553
0.235287167251732
0.231283971434362
0.235684342301387
0.235930339689313
0.236889476736812
0.23674246211716
0.246354040854151
0.241790514486405
0.249212003318493
0.239209663244259
0.251391270631061
0.253682370252727
0.252990767824313
0.242855941572123
0.258456166128312
0.247359771080912
0.257293918220858
0.253208764886295
0.261586150669321
0.255169100786285
0.266842004432936
0.258543638366044
0.268474358728524
0.263887813737883
0.272541869104498
0.260696455054317
0.274692170156276
0.271443329744672
0.280169058437186
0.27059448756619
0.281267811777648
0.274923490102593
0.285477144602925
0.279937499300497
0.287356113007923
0.29243963730615
0.298021003362051
0.285326613267769
0.301149032654664
0.301516409007898
0.307762174933988
0.299026366313749
0.310762312470024
0.296848858624338
0.316232546121802
0.307915732719899
0.310804028883402
0.311756739533453
0.323135346679408
0.314656576576744
0.323678087913411
0.311471600217845
0.3251933548671
0.321085733719829
0.321515426741799
0.318008868371812
0.324200401676288
0.316424539628823
0.330357862182692
0.316327678272042
0.322393389887054
0.316827330602353
0.321026213944596
0.312166008011152
0.319956999123078
0.312049965494476
0.325278798574352
0.311393794276214
0.326925635124332
0.316388026480475
0.319586044803991
0.306928400359453
0.317329594241194
0.311346771974294
0.317945307242323
0.307988698458272
0.319965800307206
0.306665210590322
0.31736217852369
0.306468872740729
0.314614607417068
0.307105753762522
0.316439060290195
0.306658315877859
0.313246899117778
0.309399778769373
0.32086948322061
0.310589169083376
0.321475275048044
0.310037605781298
0.322706683629393
0.312553101610038
0.315137422546931
0.3137380257399
0.317880884762251
0.307901297324709
0.320177982917337
0.314920891688739
0.313429848895196
0.316416872630777
0.317712854762076
0.305949594103288
0.319436915433055
0.312494037954068
0.308853197093262
0.308245262514169
0.315550318023176
0.301952612579868
0.315841867668152
0.303101697234024
0.313226049597593
0.301257128574795
0.310956532561785
0.302530049274411
0.306980719136221
0.295305590305101
0.301753536287374
0.293829111624692
0.300860895749989
0.285324616626685
0.291233225894379
0.285350567878352
0.282797490475053
0.272213849835878
0.27987552112132
0.270954830853734
0.27407047804513
0.263941881060362
0.271923193580063
0.262215105547548
0.269231602307177
0.261219695042246
0.256296765883267
0.248154880136035
0.257876015530879
0.245246689974474
0.250511098732983
0.242070644182449
0.246128874084411
0.237106975035157
0.239662035743987
0.23243529279794
0.23429866222231
0.221890695607879
0.234928527668654
0.224410897470137
0.225112533327016
0.212073832076524
0.221643778453917
0.217177908848452
0.217980155553659
0.211588531499617
0.217026111427358
0.211670521387503
0.209170946342775
0.203713158142568
0.203836296429604
0.199690284993354
0.207437914019872
0.197113516585583
0.200169620381935
0.198754112441299
0.199986850646044
0.198591413303594
0.201981446575264
0.188024109086822
0.195186842240639
0.188615242803527
0.191717548892735
0.184047542871882
0.18611727656556
0.182534646472198
0.188563660527241
0.181401517688255
0.186126480158665
0.17751608897768
0.184486071911001
0.177144238110044
0.185218513665739
0.180127800856279
0.181334391449335
0.176091568813075
0.177274808273576
0.166685034125857
0.175454798703753
0.171203276259027
0.175953096376457
0.165772587660147
0.16885231214688
0.164842490850476
0.171843707397192
0.164474316421075
0.168667760846394
0.163161454497396
0.166484150619965
0.161759903217477
0.164619797519723
0.160169966301968
0.165682642071465
0.154967443677234
0.158753244913927
0.159043811905261
0.158529683045286
0.154310531630782
0.156001153513275
0.151332292274568
0.16130026713854
0.154915511700844
0.157042175013671
0.14987458063584
0.156287352599404
0.149975870354948
0.151721912945853
0.148207026705077
0.149074690286972
0.149188529982437
0.153109115453778
0.145911579153339
0.14919807462723
0.145711380786661
0.153987585438959
0.148723348030441
0.149728397812856
0.141824508513522
0.148549001514688
0.141080773389279
0.144017367490303
0.14081362063475
0.147495460797279
0.140326434513817
0.143356279840474
0.140631073822905
0.146160933025593
0.139588212255327
0.146397130429767
0.136371822197839
0.142004094003057
0.137856680209153
0.139418005407133
0.134552541112392
0.139162332929015
0.136766276068759
0.143758855939282
0.134489164681134
0.136283917652857
0.132839610119449
0.137494346220961
0.132666577575396
0.135701634092324
0.129035507211947
0.133065092890035
0.132966281648988
0.136990312908716
0.130045016815217
0.132380594498731
0.131132881608741
0.139000938035028
0.129674267326832
0.134946694425092
0.129169138282149
0.131796725228624
0.131120074795419
0.132429213677618
0.126185030868401
0.132259591820122
0.126165392349748
0.130200920383511
0.126990886751084
0.132666669128424
0.129860044773607
0.131560040976199
0.127804991383779
0.130752569939316
0.12524931935395
0.132141497156621
0.125881831439131
0.128535708655343
0.122132466700517
0.126689082162132
0.125873244663173
0.126676832949396
0.124408863958385
0.12940750393242
0.123596009704439
0.122313286926592
0.119648035100108
0.128310900820044
0.124208809515633
0.123022042264747
0.118626248974985
0.122993588577079
0.119547962683739
0.124005536437139
0.117276983281527
0.123214630306541
0.118934928214244
0.120944866103991
0.120052697669443
0.117642112945286
0.117912269828464
0.119938694461055
0.115717808722014
0.118872369279291
0.11544141092689
0.117528010734199
0.115124744694108
0.117755864835872
0.113553195292504
0.116879550746274
0.11295221408398
0.116035905192887
0.113402586428055
0.115876266030708
0.107448062885479
0.112582412855118
0.10980303162578
0.110871688777452
0.10993775459483
0.112717388313732
0.109116491493017
0.107219230372677
0.105147930010794
0.11204123975082
0.107721539438589
0.110822698769732
0.10512737122606
0.107322347498437
0.1019182148536
0.109103880932917
0.101581196923669
0.105929341820114
0.104315987262236
0.10505118693885
0.10162769449513
0.108869369828188
0.100317756470638
0.102297732030272
0.10092471844462
0.101206390460846
0.0978310850939591
0.102027610456741
0.097205364215277
0.101212378211618
0.0991821440244728
0.103966026777396
0.0956022337078746
0.0996460411317098
0.0943786009998499
0.0967543098400584
0.0962903370229363
0.0960868529776956
0.0900652077630889
0.0977973626061786
0.0963547569146939
0.0956372231432819
0.0920080810327467
0.0970078656019506
0.0891187830001274
0.0907522246402474
0.0876324537923654
0.0888312134310333
0.0886023625586678
0.0907064091233066
0.0862238794055554
0.0899899087185242
0.0862786221047936
0.0898773214170627
0.0839934122999958
0.0864382367530463
0.0847226600275189
0.0851788932312799
0.0843418841698595
0.0861181918650019
0.083155433187585
0.0863937727867528
0.0808708065738833
0.0843779834555604
0.0803530876622155
0.0833834804207844
0.0739725849136501
0.0798711742364363
0.077565848565624
0.0801216586358131
0.077222488750278
0.0765777327510815
0.0775896917587468
0.0809681921290613
0.0764696943971066
0.0811425635051858
0.0800159959503407
0.079700301727088
0.0760196766127397
0.0796527733122447
0.0729909816499985
0.077220428983361
0.0743347992145817
0.075879139298716
0.0744679555972359
0.0786560550167108
0.0718000756984312
0.0757155251891661
0.072550679987797
0.074939794594603
0.07180491345598
0.075265668681679
0.0699928941816558
0.0726230456566802
0.0689319641053956
0.0743756992041111
0.0714901867846436
0.0726216447537168
0.0711869735207744
0.0720604579441472
0.0684908531659294
0.0697675101503457
0.0673060019804323
0.0707978738683234
0.0700771109472
0.0696091600977393
0.0688524198557357
0.0696739732874469
0.0660708651409804
0.069898999574416
0.0670725713438963
0.0682042400452448
0.0661477746447532
0.0685084021339211
0.0611112835923908
0.0676543257696282
0.0686430198362901
0.0678118911084804
0.063948560881477
0.0682518665340563
0.0609160407077633
0.0645842406530765
0.0634131074694825
0.0658452610249057
0.0618711343221905
0.0637265330478273
0.0597883647241742
0.0654584918150051
0.0634438530313008
0.0652376381932472
0.0607815848897006
0.0656630515992147
0.0620460964070019
0.0635268801207221
0.0627175086034529
0.0658911140916716
0.0592462287146589
0.0616788815827866
0.062661605443098
0.06646772830744
0.0619665992983912
0.0645354063614196
0.0619801020467733
0.0616593612998671
0.0581040124673222
0.0607547387064449
0.0558123339997081
0.0605236961422594
0.0614447542643115
0.0640737399562598
0.059777001109551
0.0605060548615057
0.0576138804171696
0.0621276805397027
0.0573073345562033
0.061778757724549
0.0572545807272739
0.0590581979191092
0.0596958155284993
0.0622064514017957
0.056853107534699
0.0617510052777448
0.0590894350462659
0.0605826472354716
0.0559632065356432
0.0587549167263746
0.0562295866039904
0.0587537361180599
0.0554643936870744
0.0581869381163847
0.0548629122270282
0.0582095710683023
0.0588416340848974
0.059033246719152
0.054751551826654
0.0561015506609189
0.0539757135813987
0.059024107680224
0.0549221385992344
0.0559977093792207
0.0536385912626445
0.0550708229619534
0.0553249445345349
0.0547670263900099
0.0525382932321822
0.0549027221537743
0.0538754934670987
0.054350589388837
0.0515873582575427
0.0553880476197267
0.0520308260248587
0.0540703881889557
0.0517538901201366
0.0532817277304234
0.0510350313867015
0.0554954826331962
0.0519705409913873
0.0539135906573024
0.0515720148343543
0.0542901180904377
0.0515396603373584
0.0542389100763449
0.0518308713334182
0.0539985546926552
0.0504041776292914
0.0510668099748513
0.04919485671078
0.0520176278405088
0.0491357187269424
0.0532682214400382
0.049724490750109
0.0512037592293553
0.0471099851198625
0.0497861035290625
0.0503316159879775
0.0548994242462093
0.0501881410354865
0.0504289370849373
0.0478889248803681
0.0498140469902289
0.0469256206778048
0.0526673551218164
0.0478395158615239
0.0466390432933742
0.0476647334415491
0.0508901160752656
0.0461707803893005
0.0484433652538889
0.0459236251943192
0.049716586044885
0.0477055022500232
0.0471875605972324
0.0444680049579555
0.0483724384165112
0.043650663207034
0.0450737049713916
0.0416984630629307
0.0441840101918452
0.0453257629490243
0.0484299226204117
0.0438327244306497
0.0460699910916504
0.0411538628642859
0.0448651392876252
0.043093706233524
0.0447043127280987
0.045569225730888
0.0438323425283384
0.0406297801203343
0.0428121294461296
0.0413589523327658
0.0414164902031796
0.0409836853840033
0.0426483073344039
0.0403586037943108
0.0433108421431865
0.0393065556050176
0.0413915709779696
0.0393985049448916
0.0407883914886888
0.0385475084121806
0.0422816422023977
0.0389917087335946
0.0414174136977109
0.0409302511876458
0.0426070469334532
0.0405399366586627
0.0418764373864502
0.0372670468050792
0.0411882843413732
0.0402195034980741
0.0402838528699084
0.036506468491937
0.0407033340962608
0.0389499009785597
0.038349703470919
0.0355296911527223
0.0392513646066474
0.0371856648198161
0.038507646038456
0.0368728278844421
0.0394660254067812
0.0345190253169544
0.0388344746595482
0.0374388283164059
0.0396629805393309
0.0363017695410931
0.0370722153331297
0.0358390859209309
0.03786112647864
0.0374206331196167
0.0363607776070991
0.0350765273902248
0.0377175855561108
0.0367183773326205
0.0363310853298961
0.0322710202963017
0.0362277965483638
0.0330611440722105
0.0340036696254641
0.0334210850876864
0.0360762028819147
0.0346495980607323
0.0364808095369453
0.0332820147133029
0.0337982585942127
0.0335872446791453
0.0344903973095383
0.035275421070594
0.0362595540833987
0.0322386003822124
0.0327275543966195
0.0317230513692229
0.0339993999646353
0.0310563089686725
0.0339815167457068
0.0305832493071318
0.0315139910456218
0.031347076056651
0.0341442558760109
0.0310652010133397
0.032528169226776
0.0336851703864819
0.0351333620666579
0.0318669636750599
0.0331918859498629
0.0310147618460828
0.0346324867461734
0.0349122792696523
0.0369295080678537
0.0348902392139749
0.0347451418093505
0.0301663299703704
0.0333959752940925
0.0320762698549275
0.0387126142202162
0.0361496806870549
0.0360540456014926
0.0351144356332098
0.0348291904536756
0.0292834648513574
0.0285556278177545
0.0278958954577123
0.033906665654732
0.038103819810486
0.0403063886730882
0.0274117362888655
0.0298287734769832
0.0359321505515305
0.0327000844576813
0.0281398071351403
0.0319762006266808
0.0292034170772945
0.033501565569383
0.0300419502258244
0.0309726997661086
0.031995743883538
0.0313965743737189
0.0351359566641054
0.0354073229228012
0.032891611684804
0.0374531803291571
0.0347850454398268
0.0320937840350346
0.0282169817823433
0.03447659928932
0.0286247002369058
0.0303248536346854
0.0323599827934759
0.0343759105460709
0.0348408033739111
0.0338453035607258
0.0347026865949742
0.0364075531047407
0.0322698025957945
0.0343609060802273
0.031667404072627
0.0271030127961809
0.0282770313012314
0.0200672844758858
0.028677465745322
0.0314872404838994
0.0407647124045654
0.0346686921200378
0.0305545187917354
0.0203949001986464
0.0322848893638779
0.0332561059680496
0.0415088662724983
0.0253407196105863
0.0287277411153825
0.02758884275016
0.0445477793135671
0.0284471100193814
0.0338530708448015
0.0271591605904723
0.0437973151609819
0.0297936446452399
0.0327756926716246
0.0321207186151437
0.0330289419016661
0.0294294192094534
0.0338865823426527
0.0363770455933573
0.0284026493505844
0.0376005249328247
0.0265160899017544
0.0338280570117276
0.0300160738542623
0.0352083706398432
0.0274286861153416
0.0317446143049527
0.0258665090411001
0.0315213488012704
0.0295620482926591
0.0312197454193634
0.0296503003875442
0.0288569365803057
0.027448965419198
0.0290932563819799
0.0280986329256021
0.0302959849123955
0.0259928261925228
0.0317608951596225
0.0270861906382587
0.0294568944866727
0.0276524185096424
0.0290518521058769
0.0285698999038354
0.0304832269760795
0.0263429361067971
0.0289055848898757
0.0272620883332861
0.0286247420079455
0.0271740941110208
0.0276949412664349
0.0283428917663864
0.028271940823311
0.0254211736131756
0.0309111554337549
0.0257360837953964
0.02739517971079
0.0283947295101029
0.0307450259763129
0.0297701544397045
0.0306858149730905
0.0274373251331173
0.0288356945788308
0.0264263184264088
0.0287686262861835
0.0261583449410105
0.0279259482433429
0.0285994922375738
0.0278280717527323
0.026796004562811
0.0300002477613354
0.0271480802586523
0.0297111884969675
0.0267973294375737
0.0277606421827466
0.0281048042920211
0.0294104509400118
0.0260973960939135
0.0297461428908854
0.0266952606534997
0.0292978618877717
0.0301859448616572
0.032165682578533
0.0283156801894964
0.0295483512006029
0.0273341784801284
0.0305474975420597
0.0272884238787266
0.0294062348861157
0.02638602603592
0.0298120536890921
0.0281614871091901
0.0300337666334905
0.0261900298111011
0.030572775658549
0.0277035701162481
0.0283068081082314
0.028184663417062
0.0302945699301351
0.0275741658076556
0.0298894986785211
0.0283647701613597
0.0286432780541764
0.0298050434221687
0.0288228143052467
0.0262996047699761
0.0301052710369182
0.0276814700876549
0.0301479564542716
0.0281870760092174
0.0299648920706231
0.0293181609182518
0.0312273732304588
0.0263681516845639
0.0305477028097452
0.0286375569573991
0.0298858614361959
0.0297302629502708
0.0313631445895973
0.0280650681307813
0.0312050196084142
0.0286417131420448
0.0289894775320913
0.0269493571065191
0.0318120306016604
0.0297951443467711
0.030934887094789
0.0313587796328689
0.0312943547946073
0.0274672463623757
0.0283914208745553
0.0291740482333837
0.0308537626108736
0.0308512310126188
0.0322064937408776
0.0277874307549379
0.0320126461555952
0.0294549930003929
0.0322044043010571
0.0316365208670925
0.0312645519126576
0.0273059176137912
0.0290714135705553
0.0296735565011727
0.0319772058370177
0.0301790685075564
0.0323873645831583
0.0304632783300354
0.0325302806867566
0.0295802418849693
0.0309694786452676
0.0287317720771979
0.0325601160588887
0.0283443547931272
0.0299300136626543
0.0295431381618121
0.0338728966654166
0.0300398881699282
0.0307694220887142
0.0285134568602203
0.0298385802203749
0.029971501400337
0.0316526335022329
0.0325001917347349
0.0322926877145219
0.0302582052270394
0.032423481746854
0.0292428641973746
0.0315653306399908
0.0278178331660128
0.030645177900297
0.0310838623470896
0.0294606467449334
0.0299949898747566
0.0319980676201076
0.0327912959578509
0.0325345515009243
0.0306658422061924
0.0327850229458068
0.0315816717132597
0.0343929825399971
0.032064749342939
0.03320821687716
0.0301884064213801
0.032756082410412
0.0318569926255931
0.0320132444018741
0.0293707965971366
0.0326307893935317
0.0312425401967831
0.0340505347988843
0.0291558703101815
0.0325301729772422
0.033604019663839
0.0349311026509197
0.0321482635889765
0.0334638629774832
0.0298357516182726
0.0311972804294704
0.0314913373068242
0.0323580394813687
0.0316511300790582
0.0332821378695384
0.0302783248992694
0.031483165882493
0.0302166741343124
0.0336738414158248
0.0303349033012577
0.0304999310226983
0.0301775836895335
0.0321176343298193
0.0293396698636425
0.0328662906796329
0.0297394909622567
0.03106315675786
0.0300739605030834
0.0307532357838477
0.0300155917094925
0.030786288203435
0.0278837789775305
0.032592184398529
0.0300746468831998
0.0306607332992643
0.0289624509227517
0.0308106731050089
0.029788991260055
0.031844141757233
0.0288604898105152
0.0289644362239302
0.0275855593298555
0.032368255404852
0.0303986758404222
0.0309715919206903
0.0297027421164765
0.0295620139068735
0.0291437108864915
0.0319722008607257
0.0290748416068023
0.0304494270300961
0.0279935776466253
0.0307971784118199
0.0298428271359823
0.0295346915224049
0.0284628809700649
0.0293457674859889
0.0282102431513421
0.0287547449508953
0.0284860555490821
0.0292605533662555
0.0297097291469026
0.0302210458292062
0.0282600456166155
0.030865936696459
0.0276632322475097
0.0280654511542493
0.0269429456337671
0.0301315135398127
0.0269446103550113
0.0299836658769969
0.0292406040460307
0.0296414241270423
0.0283925761037575
0.030945858861134
0.0280984322220824
0.0292347653000157
0.0293724647603535
0.0284094292567472
0.0289050958042265
0.0326375466303584
0.0279874245798443
0.0293304461819126
0.0295880716692684
0.0300291545132474
0.0275629544551345
0.0284665515750283
0.0254505445126955
0.0275650635630961
0.0290401802809117
0.0301113012503336
0.0266167127348804
0.0307678040632115
0.0283294770382644
0.0281562107329031
0.0264408346725887
0.0283194790276767
0.0273886674739072
0.0299586275632596
0.0282999730304635
0.0288967151163752
0.0270223272180246
0.0272887016931861
0.0279221124483097
0.0280378230923828
0.0257928826439737
0.0287991910018391
0.0275433673531989
0.0301571105484186
0.0265244673047745
0.0279800337612973
0.025658886197113
0.0290986264575843
0.0260538285728157
0.0278909675087643
0.0277801691718673
0.027534834850376
0.0265716548194304
0.0265110390352774
0.0256901588856529
0.0282883074613776
0.0290345606791427
0.0292268416983069
0.0280112815823278
0.0300861246897521
0.0275397645955975
0.0276448985962111
0.0272908576673166
0.0262395108322211
0.026574888685933
0.0284561839290493
0.0260265366043948
0.0281103658512442
0.0265298713353952
0.0277056957199117
0.0269291771954598
0.0281772115502324
0.0262360502960864
0.0257096214366262
0.0249192168535669
0.0276971043591945
0.0248600335720858
0.0273478595547859
0.0236742798954031
0.0264325530545388
0.0244861301878363
0.0264447461998157
0.0278457372523334
0.0276063535861922
0.0248513750269352
0.0277792831420341
0.023739602168528
0.0275047731361174
0.0254211230753556
0.0254368301722351
0.0239760673585959
0.0251030123669068
0.0243323207640511
0.0256568933622995
0.0241628268883865
0.0241610267527594
0.0222937029914077
0.0252100522705469
0.0235362470557669
0.027010940964709
0.0233085053835138
0.0246437325014917
0.0240148296029195
0.0258013995673453
0.0221541341955684
0.0235123772682511
0.0226545521481667
0.0228617123184021
0.0249543988692547
0.0314354862447974
0.0259182793807287
0.0235660700807807
0.0263908954022776
0.0270949260371538
0.0225117099293922
0.0228421171440348
0.0238607288250141
0.0250820229099909
0.0235140252737705
0.0258360801098656
0.0235543371256229
0.0234585217050197
0.0235921556108934
0.0254550658596773
0.0218199910654537
0.0232045081837373
0.0222983794109246
0.0231490671694103
0.0224093377616435
0.0250204064871949
0.0249781715827041
0.0244249885965485
0.0233820264418318
0.0225604754858534
0.0224604295884035
0.026396865982297
0.027259126734204
0.0242897506680277
0.0222270877623179
0.0229245891320117
0.0234041807727316
0.0245724860736529
0.0226905692156023
0.0230746089315952
0.020346502584633
0.0213804621107275
0.022259313013283
0.0219287002528845
0.0217399692154547
0.0246172424327843
0.023442493659476
0.0222677290997468
0.0202455665838908
0.0219296094734696
0.0191302906552614
0.021622896103143
0.0213320598638915
0.0220320748805338
0.0222152130398065
0.0240452499791051
0.01770668745474
0.0250239343301261
0.0267050286636489
0.0278013083865664
0.0196262666500556
0.022382594834463
0.0205881054311755
0.0228205471890897
0.0196807898222905
0.0220649223671695
0.0211117601035462
0.0245880168110095
0.0217358943615522
0.0212197045950601
0.0188333282480444
0.0222347022201167
0.0204798791247071
0.0216466030500183
0.0212906465302669
0.0256413647006489
0.0182732594910277
0.0199677498579283
0.0205485200061616
0.0278107617940467
0.0245589966665821
0.0259353119314808
0.0188081166963582
0.0215086425392503
0.0298623084371581
0.03121411775844
0.0186772990878533
0.0235939059743039
0.0216836023286494
0.0234658261357172
0.0209525279381817
0.0203799663265291
0.0222945964399943
0.0241989744157091
0.0236773321691021
0.0211871918225791
0.02323198596091
0.0213526857305608
0.0200527890485707
0.0232120866520146
0.0216027889725218
0.0207928043650357
0.0203281105200621
0.0219583132864869
0.0209238431987724
0.0208997446370557
0.0201315947757628
0.019614994331599
0.0228985233521242
0.0241981743143172
0.0215601880917013
0.0235964980827832
0.0234280850894235
0.0198407516246094
0.027075986845328
0.0269446662428047
0.0255436204329151
0.0203844572306629
0.022125894355187
0.0217112183295894
0.0225519212589537
0.0222790354490899
0.0215692762122919
0.0200162492021725
0.0238805641589465
0.0228131733068429
0.0208968983629277
0.0239630478484502
0.0207137860562615
0.0231240009755236
0.0218438785874936
0.0213375395578612
0.0195552822712376
0.0233190238143511
0.0185830949145992
0.0219811678834611
0.0323551115656415
0.0340387652910125
0.0280767741689582
0.0271639052735917
0.0242271713039341
0.0223597873641168
0.0207563795293269
0.0226636948014845
0.0233933148911904
0.0221762255701375
0.0223138060459247
0.0198585702963929
0.0224912373760273
0.0205877417241587
0.024074893571353
0.0202906288028071
0.0226953344374738
0.0195461250741233
0.0244993910011347
0.0184458327946117
0.0242432313861437
0.0198628075555732
0.0227468302672387
0.0200798297494435
0.030904430087092
0.0196390478129969
0.0206352991958824
0.029918471402065
0.0402720853143817
0.0301533375660863
0.0215533180019904
0.0250684079084756
0.0194292709161865
0.0225282738098859
0.0211786070570089
0.0267214671680013
0.0241912147907981
0.02297553433417
0.021514767474172
0.0266739601931256
0.0216951084212979
0.0213219894310581
0.0284541170850295
0.0389875316873178
0.0308331308245913
0.0254954837213004
0.0213464274271799
0.0303821431098514
0.0376011257150339
0.0319774148652639
0.0201073258572493
0.0279509631614261
0.022657840815259
0.0254736006481431
0.0232700163749102
0.0263266561776362
0.02823966985849
0.0261709933709133
0.0245687364621386
0.0252168074366692
0.0240568026280622
0.0247629278390484
0.0278455564100076
0.0276350103563811
0.0285199106423035
0.0279334787979552
0.0239821353418456
0.027360418656016
0.0250371687868248
0.0282149493036765
0.0260979937745203
0.0240166681497741
0.0292009575263971
0.0304344554893174
0.0289562436725305
0.0320155995775275
0.0328168357744285
0.0283641800551528
0.0234437755903478
0.0335131214691854
0.0282609254463182
0.0240488630357764
0.0280790615398619
0.0355525990667177
0.0457007018534015
0.0316289977278457
0.0393152829776318
0.0206405957463534
0.0319339830845334
0.0217135395670496
0.0317452308753582
0.0273798502482043
0.0379445800683307
0.0244592743488714
0.0305040583111011
0.0271984932200473
0.0345046246590841
0.0319353832958912
0.0293412557482076
0.027820078085992
0.0275648539780071
0.0369401545153722
0.030140585403774
0.0291437346344478
0.041593497539512
0.046634324485961
0.0407683012826955
0.033023154977117
0.0335909373158149
0.0371497938298193
0.0433935283510669
0.0302522603329603
0.031094939423503
0.0298882187072075
0.0267879557079918
0.0311621089012739
0.0497321838370386
0.0428438112842315
0.0327398038529597
0.0320521663532825
0.0360535827901894
0.0426515952002304
0.0463091364644251
0.0300136698749943
0.0383368809417982
0.0289661976223945
0.0344327739301604
0.0425335999526738
0.056928098655746
0.0413141677525601
0.0462376028056731
0.0528468092695674
0.0427619064485634
0.0476573654954496
0.0353278848789602
0.0469587826658249
0.0490422263446702
0.043010814041979
0.0327888138471052
0.0477464120886291
0.0484447727073753
0.0521878937502195
0.0380328921543097
0.0450940108168173
0.0360934184028246
0.0591450533115868
0.0815247213338486
0.0675969208199075
0.0466480820254536
0.0524272182305192
0.054715720764539
0.0581268629821194
0.045400875452444
0.0511349374306663
0.048327609496436
0.0491553514056619
0.0529285173654624
0.055580959545442
0.0559507966806964
0.0567042620761396
0.0516489194415152
0.0576695126971604
0.060450170938366
0.0940887625733224
0.0653070632276617
0.0786949209598085
0.0566153452687759
0.0789751858018907
0.0598454517419735
0.0664097486259873
0.0619960461317379
0.0676117282860621
0.0688376846796169
0.0648556788290818
0.0678978309475643
0.077332581090514
0.0727382001590815
0.0896536821537163
0.0820818457888109
0.0890255976329863
0.0608724720993444
0.106427721718924
0.115254025879711
0.129842589868909
0.0810275733295731
0.0932626314518699
0.103346194226666
0.134506959532757
0.119776127093393
0.105101648704454
0.11048280971936
0.109366291427357
0.116187695177461
0.128379109892151
0.129380494691558
0.143276257198333
0.132043808463031
0.136524200669547
0.136967997049309
0.191831755697422
0.189643219368597
0.168505777089069
0.164641734939081
0.17410757691485
0.178955616433249
0.17589525168868
0.18131011712818
0.180359172537367
0.20391115181292
0.214327173667127
0.222692379015592
0.193642653807484
0.227880331662989
0.210125223713329
0.238596868229968
0.230980797758724
0.260171056690105
0.236342244881081
0.242771412086625
0.248103383458695
0.243087378166319
0.26270883118737
0.274010230477604
0.281651916546143
0.268169616108176
0.272071587342312
0.280737353749446
0.279596380506706
0.286991798134962
0.279834214249031
0.297842291984263
0.291661987219115
0.342656450938488
0.384108595230139
0.325302055673628
0.29864741049875
0.295967817947266
0.304973211225815
0.30710133869455
0.319801628724065
0.324177382367262
0.325419685215464
0.303172067015909
0.298905535638191
0.307236193598783
0.29215639839385
0.313089592968173
0.293960770156155
0.306562207081239
0.305048482641974
0.309433283301645
0.311810977681767
0.348572968484777
0.314806524584439
0.289269125247177
0.298217367945734
0.288554380499425
0.297367741512604
0.284218048284056
0.306340778018604
0.288244102488716
0.296422309020043
0.273024437233624
0.284984459675687
0.289589149823321
0.298215090371993
0.27328605837407
0.261793578504817
0.265632290712096
0.256387869365352
0.250194331093228
0.274520379617394
0.276141053102675
0.265949576361903
0.237240690840599
0.251027253556417
0.236123045133836
0.247715826224944
0.236753508801298
0.247683678203733
0.240846556415074
0.246422229247164
0.232820764362055
0.237809963794574
0.230243212716633
0.238508406296177
0.233357248241911
0.239102830512599
0.231263002791548
0.232348255636414
0.227084918630982
0.231886366119227
0.230439960829419
0.233679178636127
0.225334018041983
0.229475841489654
0.228691350144485
0.231882711916134
0.225009559067069
0.229755667749669
0.229232242006734
0.230166992012763
0.224715316312794
0.224827282052073
0.227247804207228
0.229231353819252
0.226207103512254
0.224852647340162
0.226452964783056
0.2243513763663
0.225653429198891
0.219734331323932
0.227109863740976
0.213919504741647
0.227511378982062
0.242211350544515
0.241870619637888
0.220238086433096
0.208903693074199
0.223668142886287
0.201785332211263
0.218904344088581
0.222227594969459
0.236811234707103
0.210349996823844
0.211864860903572
0.20361523527088
0.216154953577918
0.203849485282332
0.215344330949271
0.190789915879211
0.20689283896734
0.209336915869709
0.253209756916315
0.246188352375185
0.256331469402861
0.219972100591291
0.187824892876407
0.212876335220201
0.212687709454226
0.21268617894967
0.182943902970083
0.20044901948665
0.196530458623097
0.203082424949478
0.195157736916863
0.191539096716303
0.188849767652777
0.189446869085058
0.208877608382092
0.197395752766994
0.20059514429034
0.210606705722967
0.201198701056364
0.195345080580597
0.235690443019205
0.195739940612616
0.181505096124291
0.176025335482381
0.171655687300592
0.191379202488962
0.185056864418367
0.182389403893719
0.169682329706725
0.167409283866058
0.158216656527297
0.162098696602451
0.179866216632739
0.155872489637307
0.175614704818484
0.156833410490329
0.175997380306517
0.141437572550199
0.174310727099076
0.172701451806345
0.194701447977418
0.156936426945996
0.143504043825829
0.16628870012759
0.170096891969909
0.164364702688095
0.147253365378265
0.139499510611013
0.14740266131051
0.145566798842357
0.142748171228731
0.139678315837121
0.1432050098238
0.151657852648233
0.149459193355683
0.186371923765242
0.166238972257537
0.141533288340412
0.128250235963524
0.12135671442836
0.136949365526787
0.117179010700015
0.127778941819667
0.126576546563011
0.13068208708929
0.135428039051358
0.13711867245043
0.144827610621897
0.124870783752779
0.128558402186771
0.127790156412407
0.13290163410426
0.149852988211877
0.157655323974785
0.141999236404297
0.140004925952467
0.140897016563469
0.148728526909177
0.133551536758072
0.147573913053118
0.14114995503813
0.152682258798907
0.149844280508167
0.158314060630304
0.151582126928776
0.158412272507734
0.156156227522642
0.18888459830221
0.174693494468812
0.187681494379388
0.16568956819876
0.220355503182345
0.196165326138476
0.202987947480196
0.193325173175508
0.193543437597556
0.201636732075593
0.20017706250057
0.200651718800808
0.222806296301416
0.213690898311547
0.22594120271253
0.20504255986478
0.223755001711792
0.208423673533112
0.232712433911401
0.222790508754023
0.250101348075358
0.259001669974308
0.258929058975701
0.250377185984738
0.231953589776745
0.240829543531144
0.235277954666694
0.240862892687869
0.238350316307122
0.236147497296265
0.244683502656479
0.252939438711134
0.25260014590831
0.237224006121316
0.243725089996615
0.243578289295752
0.249559507931874
0.253878688010082
0.252255986588762
0.25353642759914
0.25882451252409
0.249660056344624
0.273945155268644
0.285925767594594
0.289304460223113
0.257310796402276
0.272935590718246
0.276004948994759
0.273393344230509
0.276375321766919
0.278522455228278
0.286821428933827
0.28237533672517
0.281320285432903
0.287272960718357
0.277536632364634
0.303215200791958
0.291072582129845
0.301791201920868
0.281795183150293
0.293634145036291
0.304060511118662
0.322237534022113
0.316108044034506
0.296355628415491
0.308699600928006
0.292403483043478
0.306318969326098
0.298244776796089
0.307351486697489
0.305003049300056
0.308891655337808
0.300265986079233
0.304605295548429
0.30864134646881
0.296923271741112
0.307544344251283
0.313957352349124
0.306822655381724
0.29792840417397
0.302010304238798
0.29681291495705
0.299989707329855
0.313293973341157
0.311622670551712
0.302851294367022
0.293583406930098
0.307882589122967
0.322613802447682
0.312177100822038
0.301345399434969
0.298255174167364
0.303865974914317
0.300940700538056
0.300286781594914
0.306811077871528
0.308483605809251
0.317151187327388
0.298074271624543
0.31248818379035
0.303257637350436
0.311766561186728
0.305861074254168
0.309662174456038
0.310258335697829
0.31773018630401
0.311745157093575
0.314430331158919
0.311146841927092
0.316873671860431
0.316268915556293
0.316462429501653
0.308549212092566
0.305988221346134
0.299373844380079
0.304741056015752
0.300927338146771
0.297501327510599
0.288864235334614
0.29223987265916
0.274990024717035
0.293599686081263
0.28652086658972
0.290510159760721
0.273277471002554
0.279448113410824
0.265568971298275
0.267099032897743
0.263759407940892
0.260412889268594
0.263466549019005
0.259646972433882
0.257168477515183
0.254604894481225
0.253215960318962
0.256281288123809
0.253986623675841
0.252246336148217
0.251691860950706
0.255194868606314
0.249733254273294
0.250377429584483
0.247707167498166
0.252187658253581
0.243333712955772
0.251295735402637
0.25086036399146
0.258139080800916
0.256229384307437
0.251589430233757
0.253987135061929
0.249421761855143
0.247183298562515
0.24688722592061
0.247455583378401
0.245307023067486
0.246005130263683
0.246066719872514
0.2509888238779
0.244109365433971
0.246353342927127
0.245405119602489
0.246948199417358
0.244243805831054
0.247412008763561
0.245447814573654
0.247674262428793
0.247156462112207
0.25031290322845
0.250053831142452
0.248049091435073
0.251317557245515
0.250262076263274
0.249628579032767
0.250211830499258
0.250986566280549
0.252041310309745
0.251480439725912
0.248192789386013
0.250541783916644
0.24821821167571
0.249215840188831
0.245745786746622
0.246573262145217
0.247056214934086
0.24582559295492
0.243643555234103
0.240814638527268
0.238602120219891
0.237610747785948
0.233903024973035
0.232474817535413
0.230892813018693
0.230631744650952
0.223251385464009
0.224144365616731
0.220316365912383
0.21966049674715
0.220153612001024
0.219724753208365
0.214719240122649
0.215086863876794
0.213728163287398
0.214000783760434
0.212420951035763
0.212857226123256
0.210715707137105
0.213865072019728
0.21130459651856
0.21286231773086
0.211750428885295
0.212969071540068
0.212776812810053
0.211736913302411
0.210404889509447
0.213718782291399
0.213056811193335
0.218123688971894
0.216462879545193
0.217556583537493
0.218056637192355
0.221490203218657
0.22038820789393
0.224438235442159
0.221172884690687
0.222747833985011
0.225348075727928
0.227640213833318
0.228279810150893
0.227226131979981
0.226479551551249
0.229292989338064
0.227978939916052
0.228165787963269
0.22909512804494
0.232598117980752
0.230135814880728
0.229298960174544
0.229740028085531
0.229963182696028
0.22802660615013
0.228319791235209
0.229217696677866
0.228674825186776
0.225747735471054
0.22395287908633
0.223358401777356
0.223876925640437
0.22146172870382
0.224576238736365
0.221534282704598
0.217983670208215
0.216067539233439
0.21991142288638
0.216718055847239
0.214415101103549
0.214816088264042
0.2162848206198
0.213453451724847
0.215170812370677
0.213455059999166
0.210496151960003
0.211179483391615
0.21101427536491
0.207779489077351
0.208431013609004
0.208385199249535
0.208398093692598
0.207126779712127
0.203797729233194
0.206099818507492
0.206029489906708
0.205561620449439
0.204376902023208
0.203105245804302
0.202731568075454
0.202702634601496
0.202507702890366
0.19983140435178
0.198275594585091
0.195309047912461
0.197016345998736
0.193596826306525
0.192914599106957
0.189685203555466
0.187973730162745
0.187479641113027
0.186116933636401
0.183861425957812
0.183310355928335
0.181543590080482
0.183779313471811
0.181963743060109
0.180359488104347
0.180157235976853
0.180720496706519
0.180057591506742
0.178860735090191
0.180583947688979
0.17839984070993
0.17858093273851
0.178811614452148
0.176892330134523
0.173015308038153
0.172264753886688
0.172741368441607
0.169281002874947
0.166878474747346
0.164472613852402
0.167010907868404
0.164055361087627
0.163828052543405
0.164428287124895
0.166313457366022
0.16844575916708
0.17361776450908
0.177395997958848
0.182569158875126
0.189890798675259
0.196262694551702
0.200293692179478
0.210009480762574
0.220673238019951
0.228863912176007
0.239078591881777
0.250510527957022
0.257671814545714
0.268927773421178
0.277358974653341
0.289864004542032
0.300023458736967
0.308369410514843
0.316575036513648
0.324229726822494
0.33445711666907
0.339760280712086
0.348662160945984
0.353865354755984
0.359384280207196
0.365268344565924
0.368649977812611
0.377995693848535
0.37922467192019
0.381197663219362
0.383367539103491
0.388694086391116
0.390431219600922
0.391760764647731
0.391921539546958
0.396739353059205
0.39807001432385
0.397487379644659
0.393664672213178
0.394663905331675
0.398590864945134
0.400250615264312
0.398160609550937
0.40116994234012
0.399132877448609
0.403165769429627
0.404529437975136
0.407648961554963
0.410426345406729
0.414549354850453
0.416801892958733
0.422502485514095
0.426862288223459
0.435633038679301
0.439445275163798
0.443848982954847
0.447111781083317
0.454730992559879
0.460688562805774
0.467037888558957
0.470035897787141
0.480863490259996
0.487947621969207
0.494434407389971
0.501939959262347
0.510726375467577
0.520212756158074
0.52584115637199
0.531811013331447
0.540393454659606
0.54444156805763
0.5514659601376
0.55355998377187
0.551134362825078
0.551152115096033
0.55195604174074
0.548174503740393
0.545269747901727
0.540532209425975
0.538267515931945
0.540035781165136
0.535625068842903
0.530133562897594
0.537573205821153
0.538825261248401
0.54207911440364
0.549973074367444
0.560239338093797
0.564608396188687
0.576480058487958
0.585614438398315
0.596031421826095
0.612660518177145
0.622360248664875
0.63046623248686
0.644659749360394
0.655208070179915
0.671592295187048
0.680770545285793
0.692614044382407
0.700390100501451
0.707418923914583
0.723691239072773
0.742722932666521
0.744761366821039
0.760575050882814
0.774460213800186
0.786883635064081
0.800904537691086
0.810808121546964
0.819822779113836
0.83922277485782
0.855088375624374
0.866268494066587
0.8712911545078
0.885773562755011
0.897411983419167
0.906281531235954
0.917687462663522
0.918855808789256
0.911679183828964
0.932776405254516
0.944314775554976
0.944686096973544
0.939298751731264
0.949295010056163
0.946621379821907
0.94204228709695
0.923187666183882
0.925014381586633
0.922914854724583
0.911309956940049
0.894796391895108
0.891183036807625
0.894611447393777
0.890391235493899
0.887204393230418
0.896309598153151
0.894652433709063
0.901284705515068
0.899268470204068
0.911738600320197
0.926193873072248
0.925762676676237
0.92997046126161
0.937088870029253
0.947939113359595
0.958808394792057
0.962897097105656
0.960562754159852
0.961549872971176
0.96009624376747
0.961898219633024
0.982391325642098
0.979431399888129
0.984217088578822
0.980189720802024
1.00226242277374
0.967128010488103
0.975525217076634
0.986077021719093
0.989687271904232
0.967299817387799
0.978683043642375
0.951509139991344
0.950209099868425
0.955983864946547
0.935666320966952
0.920135913826658
0.943485318739458
0.948633182219609
0.915376121594867
0.919342590457806
0.909679065220227
0.891221449455839
0.885775736977597
0.876362033866424
0.849331037925825
0.824636041037577
0.81600380083423
0.783264818242661
0.771776450639425
0.73463811534961
0.718803117383485
0.689957458147735
0.654667162875014
0.63546736841607
0.597001500975503
0.560066210096268
0.532538717411622
0.504163489015172
0.47803382221812
0.45242422495863
0.430595589493603
0.422804002083863
0.408689006896943
0.399287692467891
0.400640625932332
0.386894463270507
0.391093888813801
0.380471437661278
0.379351220964251
0.367219008615307
0.368050459352644
0.360546956791977
0.359163893525555
0.349718631684071
0.345648495937663
0.335697414149828
0.329020976694721
0.32184277668558
0.313934001538095
0.305356533973014
0.289231484976958
0.284005856936731
0.275918926442761
0.25670338455006
0.248381743014738
0.238593027342933
0.230413615244965
0.215083781581541
0.201296206544576
0.186817173571314
0.17844784666714
0.164617630530952
0.15169830498473
0.138727747793344
0.136090893477067
0.124018132104109
0.119512390866488
0.117341495093679
0.108971980942989
0.103748135130466
0.0995539550746766
0.0970610120386824
0.0962110429404744
0.0910505083039671
0.0905235165237735
0.0836684265962666
0.0910130268683889
0.0900481053350256
0.0895910932928421
0.0916573660785177
0.0915469994379817
0.0933284182235248
0.0912681495046853
0.0936391499027079
0.0951322783327993
0.0976004593952201
0.101987289014682
0.0961554590253477
0.0989369251006717
0.102947963132219
0.103896066437403
0.10143466983906
0.10562123544338
0.098899246525032
0.099515089508868
0.0982257372418101
0.0967837988416645
0.0941276161998662
0.0948387950599864
0.0919377917622318
0.0900219563045636
0.0858842572478122
0.084908594728642
0.0774409309556959
0.080873156757076
0.0810340272087685
0.0821477623344257
0.0788996446001169
0.0832967697820414
0.0844985024686074
0.0827659027173494
0.0834884059842256
0.0882769051485801
0.0862573331230848
0.0914187147937292
0.0943390251566482
0.0946510374367875
0.100750301029768
0.101453434747809
0.100542505301383
0.102414774932867
0.104455103423686
0.111417091070237
0.110438755352794
0.111500013246355
0.116032994023021
0.113800836177684
0.117831757259749
0.11949879956164
0.115501285786806
0.121556691963988
0.122864186487382
0.123439414482173
0.12434141474632
0.130082010814276
0.133915697451638
0.133993307182612
0.137039860648674
0.142669881655019
0.148978074997065
0.150771047578626
0.159721948065498
0.166889227764925
0.171378391218703
0.178529060303138
0.18340301109394
0.193472469540886
0.194255597007414
0.199268287651704
0.200965718140159
0.199629507363182
0.199819558833137
0.199581941352801
0.194954387676389
0.188969576973959
0.188938974293088
0.185572242029964
0.178936665828701
0.179532566220231
0.172343179040731
0.17373063531963
0.171946330661504
0.17345361269266
0.17773272409694
0.171661621180131
0.176886838369076
0.173887256337973
0.171593025119535
0.173940678775014
0.166782650831355
0.166762954923206
0.172946974186663
0.164462748468608
0.160974873885998
0.156701007222067
0.149294109741524
0.152307767435844
0.149374854823736
0.150288651346376
0.144894711351279
0.143926288456541
0.141239499482699
0.135566541235389
0.137699236643544
0.138088494193385
0.132349382483448
0.135830723205871
0.127493170531393
0.129192793802868
0.134813375527606
0.134393636590712
0.1301118788877
0.126826373189438
0.120921383753504
0.126120439664558
0.1260576599858
0.125153227830732
0.117005689554867
0.123952687100032
0.122504365959983
0.116800758043751
0.112687978399222
0.120729683957269
0.117043955797001
0.120280588210893
0.124056590122848
0.118896951558719
0.112293633969396
0.116753860325452
0.114819579489582
0.118062719946049
0.112904482268006
0.123977892907419
0.119241257687156
0.119777730612004
0.114494537323379
0.11876217559687
0.11137696563744
0.12387150370364
0.123122490786471
0.119841527844104
0.122804628895486
0.114832251411199
0.118380469550634
0.126189890323601
0.128104377815315
0.133326628028402
0.136742661909357
0.131344374513127
0.126101248541952
0.135113754697171
0.129138142936938
0.137572315038071
0.13860056696257
0.140458626645772
0.132838335863241
0.141141410721956
0.137416870462851
0.150089605370332
0.143254990784093
0.148761891947207
0.155088073003981
0.155644141145506
0.15532888625264
0.176585296462851
0.156903556673026
0.157295807319091
0.159687289259285
0.165020709770117
0.165107153628395
0.171277470205331
0.189233202529601
0.182756945529905
0.193998776236083
0.206217935575143
0.200240612108799
0.209071382550509
0.225805279240398
0.234718026236828
0.233248417285372
0.247259960162135
0.249706067444493
0.258212812057249
0.256013836417782
0.269930104858635
0.260042614359967
0.295205849140802
0.258978152612851
0.269787954884162
0.27211579313908
0.281930077460939
0.249680939982146
0.247540102417336
0.252191379111972
0.257963769612536
0.2629083622281
0.25030521125031
0.243065724129186
0.237583653796854
0.225330486583564
0.249757448106293
0.23925348814901
0.247658102815041
0.22687552425587
0.228785622800181
0.230731431269079
0.224645278275657
0.22590963775655
0.232121443524867
0.218826750142696
0.217565378316395
0.21167655441211
0.210289051165955
0.196183087431114
0.195343269398267
0.194679987917854
0.203063373954298
0.197888833378401
0.186161970129597
0.214265733645233
0.214971131284071
0.219475452709332
0.211157642573268
0.206551405426205
0.233273153608668
0.191122462566819
0.200240687394777
0.220394544382844
0.214160965740254
0.205142654149437
0.205668066547135
0.202954705249802
0.211354111041267
0.204464779581477
0.208790549156082
0.217076204846159
0.203862553287221
0.217133194950064
0.206996901214773
0.222526416346001
0.222861931958987
0.22727233674853
0.241659868749443
0.224051946025927
0.251157802772444
0.224616870194317
0.226261988268638
0.223999964551103
0.208221364744967
0.221484926472564
0.271193383993892
0.22399763196839
0.254360606067226
0.259066434400678
0.258041812337462
0.263359438319565
0.256944271117318
0.268325282147214
0.267345581914543
0.262518975007145
0.290037883535053
0.25992557869586
0.267995533925584
0.247512613504558
0.303991425251834
0.288724599104834
0.327095189062662
0.32397069135885
0.323989151527062
0.283474409056392
0.305381339767577
0.304551131482334
0.335570017449116
0.28392970577914
0.346422507233507
0.316002915943639
0.36760563860087
0.28111970176229
0.34590685717402
0.277232182847371
0.301769404702602
0.342223318335061
0.327060261183191
0.321116030151576
0.314208192668369
0.325936873388075
0.294470470166461
0.31205616659885
0.336246489502425
0.243694250608839
0.27343165139822
0.255593150677948
0.307451902621977
0.268647153023235
0.244922998082926
0.277901875886751
0.360562149413834
0.270790153289719
0.339970337469239
0.298206685728217
0.3647378273922
0.32272383972005
0.290890515889753
0.293807122176713
0.341370533526324
0.317365759197107
0.277408120845104
0.352792162202192
0.394754345512638
0.28093463143384
0.556397030902417
0.0367510170842692
0.250343834400738
0.246631943941246
0.338045610605475
0.390738792210401
0.529145123805175
0.266417748558641
0.344131915205722
0.417874249110756
0.569074596004766
0.300454605659645
0.272492531108134
0.357592486281896
0.623687669408363
0.389331045588583
0.42490068552458
0.25227247912447
0.358760595715429
0.248930900166465
0.463416550368663
