3596
4000.36533379555
650.420452594757
1
2
2
0.0201338684889838
0.0189207752975087
0.0124872960534868
0.0296962939433369
0.0259958847277654
0.0280202734491347
0.0310013646225253
0.0260039016002253
0.0274353417833694
0.0277190742826422
0.0272060724037863
0.0177656379656388
0.033143334528802
0.026869022237099
0.0355086238681089
0.0165912463280018
0.0277637192007952
0.0279683123049069
0.0209595903385516
0.0335463055979008
0.0289531645471615
0.0275161557073917
0.024117053132442
0.0293372919994074
0.0284406239573423
0.0205466750894033
0.0333835495453161
0.0266883294234737
0.0199600936830498
0.0291135898674285
0.0234763343516154
0.0215701886195761
0.0254150660599026
0.0147963665984412
0.0201059870074302
0.0315737768820548
0.0277742024614921
0.0293897599424013
0.0235994513708056
0.0329241453673689
0.0175437675213601
0.0268357652834059
0.0277499612616781
0.02790692010614
0.0209310610278853
0.0221395869806102
0.0258693854454934
0.0262269768795727
0.0211079631402278
0.0240246075825691
0.0274055955814667
0.0246232053184901
0.0308418454138684
0.0184989175604952
0.0288720462575864
0.0292113372826964
0.0213384182478473
0.0264471172824106
0.0305326246677058
0.0248444409716857
0.0328796214063596
0.0207170466666026
0.0199563988496363
0.0250866451319357
0.0190651477994174
0.0241287917078104
0.0276017819591071
0.0216537852339351
0.0303749203300619
0.0249271500685585
0.0212103194070837
0.0248685507087712
0.0248059986444718
0.0222337938293728
0.0231075631406664
0.0238778594514551
0.0175332135131962
0.0235662340825802
0.0300189478484456
0.0301287479029399
0.0188999842933543
0.0261080336467564
0.0267616713570941
0.0246146705167863
0.020769421737914
0.0266571668440732
0.018227063695581
0.0326783882711067
0.0161386371004921
0.0167489385312135
0.0243120465825642
0.0209246358246475
0.0272343361703555
0.0206149691673651
0.0231106689469416
0.0236111858184337
0.0191682407625676
0.0211401416464489
0.0282005595116289
0.0232488804835875
0.0284110052214768
0.0273149625593617
0.013710230074891
0.0240078058498548
0.0206854728942279
0.0140717951283845
0.0300236118890386
0.0168134858784742
0.027911658780778
0.013761295290097
0.0231823688600444
0.0148970017614354
0.0237865171214293
0.0164812407480056
0.0147737158101509
0.0311478706549268
0.0192970106629155
0.0218326453613882
0.0136827597331605
0.0137180134642977
0.0200479394552505
0.0275934632389721
0.0136304492823608
0.0235525856625736
0.0278111064956825
0.0195721053490613
0.0202671558931525
0.0333458729017423
0.0225830744607127
0.0171800306838391
0.0138638156486619
0.0173830120147222
0.0192841688152421
0.0199001685927342
0.0128261033851153
0.0150343733487117
0.00979880871440577
0.0177408878224662
0.0243609311884661
0.00863305038383115
0.0192945206421198
0.0175490731162873
0.0248184385354766
0.0306141088433548
0.0170820371379646
0.011932812204921
0.0159942288208721
0.0254444101647375
0.015988198100795
0.0198368093187338
0.0140190875074979
0.015833607085791
0.0191638093732967
0.0161936857861638
0.0206652818937465
0.0199847793049638
0.0138229722766316
0.0276743520119726
0.0141727401713364
0.0244856217172742
0.0179879311956693
0.0169622273493484
0.0140712460884155
0.013491876213146
0.0218702703375249
0.021090793128257
0.0216854246524312
0.0219823486231716
0.0198960246284856
0.016298349601447
0.0186216485394101
0.00709558823656074
0.0205332288412897
0.0161628479435598
0.0135604007390681
0.0208436624430002
0.0187973003696988
0.0216132162092735
0.0151382423904593
0.0190352682841532
0.00965325365536743
0.0188029860241377
0.0144727779497743
0.0214179472931294
0.0144154389922099
0.0185861550521196
0.0191668834399956
0.0160650524501837
0.0231608696662124
0.0258792597665005
0.0164083728545366
0.0130343978868225
0.0186278075721836
0.0182780602418282
0.0104025565583187
0.0236551761746754
0.03186403586353
0.0202741120274459
0.0133016035497925
0.0139633127708692
0.0204710536395222
0.0133031185316363
0.0158857102647356
0.0241010855583461
0.0172546325292648
0.0256450794388894
0.0164483807205762
0.0178453169616072
0.0123574632625828
0.0143429287408375
0.0233214503388694
0.0164126921378688
0.0163975494870814
0.0198179141445486
0.0190140665483879
0.0215866368497736
0.0207843742967359
0.0137821304374123
0.0194161820879452
0.0232505684228558
0.0201719338030089
0.016321204430155
0.0149523050644897
0.0195640064677932
0.0260951691511047
0.0101595937576588
0.0267239403989499
0.0177454157714475
0.0196840410544393
0.0168284940236062
0.0281735471576115
0.022367855680844
0.018364809887786
0.0178050899660101
0.0154073164730722
0.0192230180337041
0.0269046796256128
0.0223410649595593
0.0183998712105694
0.0167240064518764
0.017783701840501
0.0210899240167965
0.0212627703507245
0.0231887720828292
0.0199784260797075
0.0278803730279162
0.0182530926309178
0.0197999379410312
0.0181897047297842
0.0242544211772983
0.0178360387901217
0.0212731087248291
0.0227143846975283
0.0179581440264666
0.010354775490549
0.0199585180941221
0.019203025242112
0.0174025999790755
0.0188698227295356
0.0151600988603134
0.0204500313663428
0.0202056817354073
0.0319519915769917
0.0224139949616307
0.0275285308893882
0.0206246030419606
0.0149491845219568
0.0172385708088841
0.0107046815056997
0.0224212450243838
0.0221749171619592
0.0166626402317216
0.0373525518393107
0.0203245418488122
0.027706131305823
0.018180347297411
0.0212737890055096
0.0225739817102224
0.0191381064205622
0.0186745487279789
0.0267700803007325
0.0232941246728438
0.0197431556209725
0.0346879294553676
0.0155408217670941
0.0281591071886472
0.0228380921790189
0.0197385562422886
0.0221182460307004
0.0187710562901127
0.0265871429133551
0.0309000325638784
0.0241799463651401
0.0230947703988054
0.0306359250126895
0.0216624463867796
0.0335253380903974
0.0252136894610202
0.032314368886122
0.0225463989341733
0.0286429670306277
0.0242073157006286
0.0294357814436844
0.0238884848412582
0.0231921725279129
0.0278306410950219
0.0222192653493264
0.0319766122468951
0.0308078971863478
0.022169240227378
0.0334068380673377
0.0219925023434535
0.0272660038773892
0.02553583630007
0.0308059498638209
0.0298371136599793
0.0306392014130079
0.0331910161944744
0.0336603408801099
0.0393904568357032
0.0325907484043897
0.0262821124933534
0.0334059080332327
0.0282905435368213
0.0363168186087579
0.030140081704348
0.0365101252151016
0.0357282491449643
0.0366022541292918
0.032901936764653
0.0422210398950636
0.0308789211175534
0.035096981682064
0.0431565540814668
0.0246162820599046
0.0388424863006247
0.0413066413868936
0.0400622659482134
0.0410655768345013
0.042228391851428
0.0376591564926975
0.0396561840913737
0.047411789287565
0.0491140416559989
0.0446019533638053
0.0447949772138971
0.0516568490922626
0.0593163766020533
0.0464192497326263
0.0512522301733938
0.0484938398814639
0.0546154362076877
0.0564853238465099
0.0502767652336045
0.0627478187999871
0.0536505640439509
0.0551591492600748
0.0586496157672092
0.0576926498145823
0.0599201847934958
0.0624791598698349
0.0674247355355587
0.0658803662453593
0.0714217809234946
0.0653855021570925
0.0747552900437249
0.073424036132398
0.0850976083557783
0.0823624896243761
0.0699245356334793
0.0807753556462561
0.0763379878154862
0.0825282869430215
0.0892391378201216
0.0786780210301084
0.103026042893229
0.087181931602649
0.0971307808597626
0.0845573165401418
0.0979987489247912
0.10373312168389
0.104785123550888
0.102166088645935
0.100935206394851
0.104612263032087
0.107887471380657
0.10765209739341
0.108074275318568
0.111880012982442
0.108081309281456
0.127376429882617
0.120193858084528
0.118840242711984
0.122194808668799
0.128541707227907
0.125267052496734
0.151564424859188
0.142519255942553
0.1365502399519
0.131362003265101
0.143692294598198
0.141598255343479
0.152855872521255
0.140773585203662
0.160913932332333
0.146665791021917
0.158126875698154
0.15219810661681
0.160349798860246
0.157364957332923
0.155463800005673
0.169182842143247
0.175231489299172
0.166036954958296
0.182789569902709
0.171776016089277
0.178383635331969
0.177230245745792
0.211259766928607
0.170045209941559
0.186802419338481
0.189058623839953
0.199955184980225
0.194627199950915
0.20299348060834
0.196307585347553
0.205781423847109
0.212014849868393
0.213061570294242
0.213912943634302
0.210747084376957
0.221189891035735
0.224591828119251
0.229415175136212
0.234812699171823
0.234649406993759
0.234927733862724
0.23585333242281
0.23739021476757
0.239260656203721
0.272404877860733
0.234531243794963
0.266205394217447
0.239554276329272
0.252411148227148
0.257459832790944
0.281299669391329
0.273287641316454
0.26159212333759
0.268316583604471
0.278607501458533
0.282894571923574
0.28801357477803
0.285194434304898
0.305040774146011
0.289658584301008
0.295955812341273
0.294292550006469
0.317294497806245
0.295441854606085
0.325027734576485
0.305165716932755
0.318953519793533
0.319631165957948
0.343724172957989
0.303546834315112
0.345484922533579
0.333213182989742
0.342741105215995
0.32440102277385
0.357085730159317
0.341062623896434
0.383051030939015
0.357527679541395
0.373727668641729
0.367653332513072
0.373757420800192
0.371476083009413
0.365597691118115
0.355985900598574
0.395365118392169
0.391232443289654
0.398580866034412
0.391956837030292
0.40596821354653
0.404999616772589
0.398168740075946
0.398167667410533
0.43241257777971
0.388321046892572
0.419356380051008
0.415683888994214
0.421657179120118
0.430566408677682
0.445329377167882
0.437497497750578
0.467988903200431
0.435775318861525
0.470347116438615
0.443516295859336
0.469972251697715
0.44954691120134
0.480327100451469
0.459986717837904
0.487612943908998
0.477260889217967
0.495726962136457
0.480210492440602
0.52138766616504
0.489191037848462
0.509086625492384
0.494590199847041
0.501403562560847
0.502663360330243
0.540778155494157
0.521683426462523
0.523165046044008
0.498911236140253
0.540239047399272
0.525448258745528
0.542876016996216
0.53832547040096
0.571497786668574
0.539846383757792
0.543897531729189
0.51638956605425
0.585822902128399
0.57038171248969
0.562027977519161
0.571360639406511
0.599645290538758
0.56941934801711
0.606194013536962
0.586371152934899
0.644014164805999
0.585556436695347
0.59699834994749
0.596625996659267
0.632767927324166
0.600136583453439
0.665830663984637
0.600189852753653
0.628075707710813
0.603067645191883
0.695611783911928
0.651658798990192
0.637617526110243
0.635546482251062
0.668593105973015
0.634225953204262
0.674787360671189
0.658636241840377
0.679855851219691
0.673471083340366
0.664547165082679
0.659471121058026
0.702803747626927
0.689405768483988
0.720098051847275
0.688208180283283
0.737674048050964
0.692211532829961
0.709445906731596
0.696963209746749
0.735872174334187
0.692453668002602
0.716408732568158
0.689533443502446
0.745775907420339
0.697082187917724
0.76986625159059
0.703100379447675
0.756424836948835
0.738890012548529
0.806514730165626
0.732640042423404
0.764999987550116
0.746970342673776
0.803196785645174
0.737804249048725
0.785352731654696
0.76459381932543
0.831555615700158
0.799659546275443
0.831388042351645
0.808511990841178
0.85825452707256
0.824216261806192
0.814414783218395
0.822933938275092
0.823231447144049
0.785474234857328
0.838686886633387
0.824011933953308
0.851023646786377
0.826570069058836
0.847361712495143
0.824633628385561
0.891295414783686
0.822815707518787
0.860689790087107
0.855888547153015
0.865190616026847
0.81685467770451
0.881851100004811
0.878362577724471
0.873824196555936
0.896457225428674
0.885955921977034
0.823874073250107
0.940173070043666
0.90623827193756
0.911436253207032
0.890730047914699
0.975252557994767
0.923780093328931
0.990384555126663
0.957405279833063
0.969827663440739
0.97075969828449
0.964191181351294
0.893659342246225
0.983757427448986
0.964784405402513
1.09468251812626
0.973103585701056
0.915060302753821
0.935299982804665
0.967987031085529
0.976403663077132
1.05858030586424
0.942596282618536
1.02487086805898
0.97468811098939
0.978610274006299
1.00850740110168
1.01429796416692
0.962941392356518
1.02325649180003
0.947218672502012
0.974123076122357
0.950908559954915
1.06276114815647
0.942488893842122
1.02611864414888
1.0020129155092
1.06785286084763
0.98729405572126
1.05687549024582
0.964296192828867
1.03722330601302
1.04195672332275
1.15040749693164
1.07133863692551
1.11269147206605
1.04806118024196
1.15425886049245
1.05201347071517
1.11373255973067
1.08444962697155
1.11859459829118
1.08183855737623
1.10087116056608
1.07492045763594
1.15308746636098
1.09136937239548
1.12069460151264
1.07856048943286
1.10505866917875
1.0435088954616
1.16577768447535
1.07696103079344
1.08025936514544
1.04940457011624
1.10982979762359
1.06315381072338
1.17624899361475
1.02212274853653
1.25516286042558
1.12831858443626
1.15442034878898
1.07739495786434
1.13580254564043
1.10101151806207
1.15863908349534
1.10439293659192
1.11646561715634
1.0867332048742
1.15647483934642
1.09909178259594
1.18718674143086
1.08342454439832
1.19484054132112
1.10431694042314
1.17973457151907
1.07427955682317
1.13461860250291
1.17676893011113
1.17271214334121
1.1803289010808
1.14443047467036
1.16791015595693
1.19103870014812
1.03983821333258
1.11873809068869
1.16446796715659
1.14445471596154
1.15024067016003
1.19737273185034
1.23749867691314
1.17312461381858
1.16424260795342
1.15859086866897
1.10731891079222
1.20208963859991
1.13343871045599
1.22873786056835
1.1090428508849
1.28451521759098
1.16249334591474
1.15238294512968
1.10609019204966
1.18452349893158
1.17137544305403
1.24469780824167
1.16505923761843
1.17691742013788
1.17025107734455
1.27123075140227
1.17153676777892
1.17497448602203
1.15062612347615
1.17904211526471
1.12191099229053
1.2753889531875
1.14343939528546
1.19990957585006
1.15779946029605
1.25532018673539
1.13920288987718
1.20891175576758
1.21242946743619
1.24965673624967
1.19835154748307
1.19118490078241
1.12853678782035
1.18719663949078
1.19853227527038
1.21432946862569
1.11983783196379
1.20491225956619
1.15483687054049
1.21847452615782
1.18604219505234
1.23355431554864
1.17726148522187
1.29620318782328
1.19543541260499
1.14646346039451
1.1618672198962
1.16604892317758
1.202931791361
1.26384196695164
1.12680603895942
1.2274865768159
1.22340465129025
1.20972080018021
1.22281660811437
1.23462793148378
1.20765041672912
1.1825133402871
1.21575354394345
1.25594292350605
1.17098569911977
1.19933819864674
1.16839292123232
1.13942141817391
1.0947811001824
1.18512797416825
1.1584545347679
1.19381049126032
1.21457742807708
1.16813440088882
1.14984179968853
1.2254227294118
1.22954396435226
1.20224652655887
1.17550743672945
1.19217481423668
1.1741677606624
1.29888697464492
1.20767726679891
1.21424197897105
1.18323090722937
1.14821089802603
1.156801317421
1.1472305875728
1.12291843206525
1.17442731957411
1.14437657037093
1.19771340223013
1.17462665450456
1.22813433485769
1.16621481037616
1.16550138220497
1.13892176775087
1.14159655669485
1.11847006403725
1.16759398500021
1.16156768949334
1.13613720080903
1.13488441392302
1.21095801557928
1.16247624609843
1.16313529604299
1.20242823103947
1.14480695858139
1.04238241246575
1.16003827168938
1.15341679076285
1.16406101474721
1.10155395717658
1.16161816551149
1.13620459858568
1.14921757266603
1.12271907285351
1.10335986099869
1.09581369113002
1.12576750396988
1.14518179948808
1.11609954071362
1.12763142845147
1.10780763406283
1.0559521357861
1.13307801235438
1.11388250980384
1.14419991370323
1.04022545746486
1.11803588481311
1.10412445756116
1.09484970078492
1.05458683101668
1.10453943354297
1.0580929841736
1.13538708984446
1.08762638139425
1.08618572859076
1.06417789956603
1.09419668841768
1.01967700696579
1.08533399440964
1.06911901037762
1.10573965566102
1.03542242907784
1.07048503599142
1.06569116537761
1.09644977007707
1.06549808626946
1.02004619016991
1.03799017308716
1.05505972777219
1.01015525870736
1.04683594077112
1.02281246940631
1.01903323831666
1.022347730159
0.986800802837879
0.989244577740771
1.01586746119148
1.00866485096265
1.03329220318289
1.0042543379555
0.995364936612593
0.989111570361376
0.981193944085061
0.968292940839491
1.02305361595323
0.989266914723898
1.00060330453245
0.971985213415031
0.978752950844835
0.982714711357922
0.996038640203597
0.942971337074496
0.967852471181791
0.945681165373951
0.9581821877115
0.963081908515169
0.961075908956451
0.932486475539814
0.93879648054283
0.915221044454249
0.956157267490699
0.906995225552827
0.926615947429398
0.881702907136982
0.89777927113392
0.915405429704427
0.90153241537951
0.882847932526699
0.901041284935803
0.877030608917939
0.900690376852321
0.86910245378769
0.880110589647937
0.85714895708152
0.869283013959866
0.854879267030783
0.866573851292406
0.830912554553228
0.868203367939179
0.866775139519811
0.854373779644522
0.822565134103993
0.855898725714638
0.844952368689038
0.844673229116769
0.824920672919656
0.828935379281868
0.817143952210634
0.819195094949668
0.797979799629645
0.799724679346371
0.805577536597841
0.801576457198288
0.785481307491415
0.801806418983938
0.784120206063804
0.788111736406654
0.788866458243661
0.790437352379943
0.762538236405065
0.775324555747712
0.77266044129012
0.768463269584448
0.753279115170418
0.754519972409969
0.748382152746372
0.743687502818266
0.747636778667318
0.752395175872323
0.739796597239386
0.728762020730205
0.727864209790533
0.742884366656987
0.720386720887056
0.722654457534085
0.69933052976583
0.721019469330239
0.70500539505971
0.694373593617597
0.692392152484776
0.699686075411833
0.693482430123763
0.688172650167722
0.687908922113916
0.692361618703008
0.676094200006804
0.683755475167618
0.665763376317043
0.671401313946229
0.660135747158299
0.668904367707276
0.646215517267125
0.655572760137757
0.656459488977286
0.654780113118368
0.643790766255985
0.648252046354226
0.643653405020755
0.655019746370445
0.64965318078259
0.64509741204558
0.628693331355651
0.62668750780453
0.626227005575519
0.627040173884486
0.616496384560694
0.622935357283734
0.615385138263302
0.612897189488959
0.612560201199858
0.609296414329752
0.60217591558276
0.608000817538897
0.588414990567087
0.588270468065345
0.589856751478274
0.582998451450582
0.580585948184944
0.588178163815165
0.576316001659574
0.578134316821774
0.57703613011231
0.57661526217061
0.565491771900389
0.566427109100216
0.556996920945796
0.560560332425208
0.558164496544214
0.561351841627202
0.558036906762312
0.557051382361562
0.553084229932344
0.552071896204254
0.536508159548129
0.543827965084573
0.536714152220962
0.525064615790863
0.521911156669959
0.528756520463986
0.526589489937525
0.520975330463485
0.517689076020229
0.513941318611481
0.515700410153634
0.516589933618162
0.505433806172198
0.505143511961265
0.501374502749459
0.509632625283329
0.495923543998822
0.500510536997511
0.495207380978541
0.488023328265871
0.486664470852478
0.483897879478521
0.480790381134156
0.486614966812914
0.475439959719441
0.47884080620185
0.470635827954135
0.471278655006692
0.471877782987225
0.473130286667728
0.480394260446149
0.464278437650648
0.461204740939249
0.462311705204044
0.452871117133973
0.459706077295097
0.453506889150621
0.457534202604866
0.451690996660409
0.445008333920737
0.446598340869009
0.442355628446681
0.435730945309209
0.437910918509658
0.434815874300254
0.428741745799499
0.429557766795155
0.433106752944377
0.425172597548858
0.431511359531428
0.425229858761709
0.425727749485917
0.423015062354161
0.418658966116889
0.411403479939962
0.419462192169789
0.415929870545359
0.420719347815607
0.415080659200077
0.409243901301868
0.406418049544886
0.404954431966185
0.405467773025058
0.410288659075889
0.409065620739423
0.40917333835091
0.395129123595375
0.396969731714551
0.39450497051267
0.395798037113571
0.401873490508306
0.398155002997792
0.394008647094759
0.396517760173785
0.395051142419427
0.397254131715293
0.39149306508657
0.397862952606764
0.404120307468829
0.401249307518989
0.398092678488407
0.406352662876826
0.392661824451449
0.392908592068884
0.4038628556473
0.394806073586705
0.39255282217237
0.397269096024821
0.397871130524249
0.404695601896396
0.403724395196137
0.401118529964151
0.399415089808037
0.406152614012074
0.410340148368434
0.411075421252019
0.409608425261938
0.416061364195921
0.408265417602498
0.414828647143073
0.41844122141241
0.413656781495689
0.418657333032025
0.423234844133942
0.423271308464396
0.423232718862351
0.421808327926727
0.426707688853985
0.423122251290942
0.429852888434052
0.432852151974859
0.433459998015486
0.436889370024177
0.433446656959563
0.432881363863007
0.447227386727427
0.449679916506971
0.4522237624636
0.445924017871368
0.451922953434793
0.446765236551093
0.448065246319438
0.45815879891712
0.457311288238949
0.45386789872661
0.459153457968667
0.464728319073665
0.46833305959447
0.477813124189254
0.482711704797502
0.481193971287009
0.481926712054145
0.483094510832666
0.483557187971702
0.495828554054084
0.495337631873833
0.488311809698537
0.499359833076508
0.498127461215209
0.50385769082667
0.498677082522993
0.50512543904348
0.501761391391999
0.504882061734894
0.507139937775217
0.517569055571854
0.518526204488172
0.516014310918102
0.507888069072476
0.504530712977692
0.51707241065762
0.51966291520756
0.513561174278313
0.512616571841208
0.508898898826858
0.515100401399943
0.505428897076001
0.507851149032392
0.509804480196305
0.503314810801541
0.502858325235139
0.505260898366084
0.511433942579976
0.509748130091953
0.499843848854815
0.503849579705331
0.506304311033986
0.506348791181231
0.500825119501809
0.503517693317347
0.502158430577151
0.510563486924155
0.508478557738722
0.507499114834885
0.501159721977029
0.501455943156008
0.504094534822026
0.498825876778015
0.502762836125596
0.509260935037681
0.506788236627897
0.50588178815328
0.513539161638607
0.499619506426444
0.500149045774606
0.512926146401029
0.510585449513653
0.51122128276089
0.501622867153728
0.507648707980085
0.501971686300869
0.497938482045794
0.50834360296064
0.508348247340119
0.49834026524667
0.497382085422768
0.501161039389666
0.499844311320754
0.500922995650517
0.500788474748899
0.501782926728813
0.498993606834936
0.484805994522301
0.486925012513223
0.495171873374893
0.488491066463318
0.480103962550047
0.483817803752751
0.484810695191203
0.477441533215783
0.471050664266182
0.475456913340355
0.470999871189129
0.47215765240189
0.472800320885626
0.471457129197807
0.456945258784707
0.456572886229075
0.459170311884271
0.444903071002124
0.447701446459083
0.447089945974453
0.442856679611502
0.441992086691673
0.437014737855258
0.431823670450833
0.432145221905964
0.436222681878521
0.426852247435487
0.424574137932425
0.421132919411511
0.415105078052211
0.412798451597597
0.413448855965689
0.410100823020378
0.410338289177754
0.402454236770835
0.390880666561104
0.394493270520657
0.395143761761795
0.389465977187037
0.386311201065965
0.389682924142575
0.387599124206977
0.382751797063455
0.384530037355802
0.379077697080624
0.376211815242547
0.374985684361434
0.374378348850059
0.372418461604393
0.375533138618985
0.370864875919972
0.364218637727758
0.37015280737468
0.365704834531177
0.355290274172412
0.358121433306841
0.3610326714294
0.359569985014182
0.355012608904675
0.355884624570203
0.352215839149199
0.345698510207586
0.343764500181959
0.349129969669498
0.343670984692109
0.341640172959208
0.345024158504316
0.34563956605519
0.346725517086234
0.342461810077838
0.339009732016309
0.338282531157585
0.336053795649613
0.340314077622517
0.339201483833069
0.331785708135162
0.335375965812261
0.337240611416645
0.329222912278207
0.328677983008281
0.330142599140818
0.326622404163932
0.325772417839029
0.328786988993814
0.321635336475872
0.317935973441702
0.32756280442445
0.318936603793248
0.313236903059765
0.316484856508182
0.313802255102486
0.319291135602022
0.314024565099985
0.315130624778432
0.314275092462325
0.305919416780509
0.312080157677229
0.313486167337
0.311168031144674
0.312073394653283
0.303909450929813
0.303067749249575
0.308755545067376
0.309961290781556
0.304366365890674
0.300999197802112
0.302585977614167
0.299918525461979
0.297544758831937
0.294785895379517
0.298919287157246
0.300155242324197
0.296944885997661
0.301196201812756
0.298580755218097
0.293857944313708
0.291339731579816
0.291577702663454
0.292833932199352
0.289654902355542
0.290625338563934
0.286814111681218
0.288214939482657
0.288650847100758
0.285893181439611
0.286451162866211
0.286957003485802
0.287061114471174
0.287205753002446
0.283739547610903
0.286283497071294
0.285601943414072
0.281707027639208
0.280883790577994
0.280296893258636
0.280035446005681
0.283445558270553
0.280979514374716
0.281482377482257
0.275154200122483
0.273641380181079
0.282605673553387
0.279383984922433
0.276435868601496
0.277190854437896
0.276385925154604
0.273908969692695
0.275922707201695
0.273819433571526
0.269932365827011
0.270929832836609
0.271940176756834
0.275164747996982
0.27471741057031
0.272281387976334
0.272825699242251
0.273397465813884
0.275278089583798
0.272735108666364
0.275645578422781
0.273496991107661
0.267756802753162
0.267433263041524
0.267437124496671
0.271151077954712
0.267437800019346
0.267298030079706
0.26969175392221
0.266389553892927
0.263385657522
0.267212067845408
0.262895695586463
0.259585093466834
0.260916594018027
0.262967481920836
0.263456297102165
0.260503634719165
0.26096199348263
0.257496228001541
0.26262676988027
0.260000942368615
0.258468336369116
0.260332632759852
0.258608442338179
0.257746907921292
0.256051633876008
0.257036607606141
0.251716027273715
0.251631649937426
0.255239603628353
0.253464494578857
0.252625261879567
0.251096014128785
0.253295491374061
0.253977410917116
0.248276803115876
0.247844851447741
0.250181788945759
0.249806081987334
0.251097351300098
0.249945607898861
0.24816830215201
0.245242395991728
0.241929673790087
0.245286220943291
0.245731341781377
0.244077307648517
0.244440805244718
0.245042591749235
0.242198425112098
0.238055203990783
0.243381386514291
0.243015553178813
0.238244054490295
0.237687464425383
0.234769257757672
0.236284035450329
0.236463953405464
0.235513383147082
0.235510731843707
0.234057081554734
0.230530246927958
0.233125240480428
0.231711367838098
0.230283059388744
0.229616639570542
0.230292027073014
0.22940876704044
0.228141967753446
0.228936370535096
0.227867067976425
0.227921632937611
0.22532516141728
0.218928800376394
0.218022193982522
0.22244093975825
0.222293843501491
0.216714503066622
0.217151274248016
0.218727218378117
0.218358862006702
0.216769164106591
0.215067695881056
0.214661458165229
0.211436053872217
0.214889692188817
0.21685181069315
0.211917067611598
0.209154426093907
0.206199123053126
0.209401932099447
0.205209799285447
0.204211530629537
0.20528475624075
0.204073501708614
0.205423570657553
0.20464118691435
0.206448100961277
0.204797802469935
0.202449812037549
0.20345300663317
0.200013686316184
0.200226804138412
0.199134968576151
0.198318779658749
0.194934187595412
0.192844146386175
0.195697371837108
0.195941787872914
0.195456117041265
0.189708294407638
0.191315547439419
0.194878637079224
0.191413305064285
0.18904434372342
0.190035094518434
0.19138299404876
0.189532793575874
0.189152735275539
0.191064517736956
0.188675438557517
0.186382558636782
0.188830150215246
0.186524111208244
0.183864677000499
0.184480347338007
0.183675497239329
0.184249869425712
0.181989676245686
0.177558535136719
0.175810622038233
0.179765011885181
0.179561206983521
0.17892599241436
0.17883581074041
0.176163891384046
0.177554083434881
0.175378795468808
0.173834297220002
0.169847669228078
0.17548257504931
0.172340060051195
0.174493849173598
0.175257917366747
0.172159081306513
0.170923726633044
0.171299201245655
0.171418834816244
0.175793049262239
0.170243995552612
0.172690825330594
0.170566340215475
0.169806910189512
0.168685686785305
0.16751473256072
0.167718800148989
0.168013854471609
0.167435733892848
0.165579078489171
0.164422024023091
0.167203367422511
0.166386141042018
0.164239230889699
0.16294581673111
0.165110757450137
0.165631273579549
0.160321388343526
0.161853858141001
0.162119877405127
0.161584555063638
0.16041762592924
0.158565046050458
0.161098575849266
0.164625328720705
0.161120982190676
0.159054627349772
0.157772757884493
0.160535941297827
0.158337687557792
0.156750805547492
0.15901735796359
0.157568058314549
0.157863248132584
0.155637501036816
0.156406894184306
0.155324340404809
0.156271379687099
0.154000749731307
0.154921268248152
0.154716135229884
0.154069641970238
0.154562091109967
0.150216589330509
0.151311367792253
0.155288902577273
0.151700436136273
0.151384942334114
0.151454347842871
0.151022589591958
0.152407896571084
0.150507399839329
0.152223040200683
0.149308823813487
0.148322294560002
0.152067848882449
0.148967645048435
0.146331647333499
0.147330856062074
0.148097538450195
0.144415841114588
0.146299625010255
0.145952393213033
0.146383256621995
0.147304614217763
0.145407434271827
0.143769895941917
0.143872254228185
0.145408446251719
0.141325643321344
0.143859479554917
0.143178838414416
0.142887864212273
0.14417285627586
0.139686010782203
0.143895670336606
0.143310902595636
0.140852012518775
0.141411791062964
0.140300116447186
0.138316800719862
0.140555159119425
0.138337592008598
0.141348292556559
0.138958665300679
0.138319261700491
0.139930178532375
0.135553131131669
0.140087788411825
0.136293203110947
0.134727219609056
0.13750582357892
0.137326200673391
0.139126910210902
0.135040885967088
0.136633323842964
0.133531697295962
0.132172068355518
0.132123031887148
0.132650194397639
0.13015607487071
0.133798782706265
0.131715118405694
0.133041891335206
0.130765602905842
0.128150381970858
0.131266301214166
0.130487549650458
0.131740562038201
0.132037494765407
0.129529233321563
0.128866147756237
0.131405896297448
0.128329127299413
0.125081718867669
0.129780472267186
0.124583040537644
0.123886996876057
0.125224718202281
0.126450347640113
0.122522541152431
0.124634415934213
0.124407486500003
0.122767924005739
0.121442251892678
0.120694369998895
0.118150866224186
0.118430184792514
0.118941493920613
0.121736878511573
0.11918770048651
0.119989476315933
0.119257820262888
0.119905917881715
0.115697050750801
0.116699877199735
0.115742127560774
0.112105311550299
0.113869022691765
0.115708157673687
0.115959213500648
0.116551476053086
0.112666395721493
0.112859819782171
0.111076850182156
0.112159833984802
0.114936320470813
0.112328788958891
0.111029759725289
0.112998048518616
0.112628843005436
0.110287942595153
0.110729481076055
0.108125210315965
0.105232202119509
0.109908327337534
0.108164638395597
0.106738158458289
0.107979483555915
0.106032697406893
0.103212214600577
0.103204768455701
0.105322342689107
0.105131067181539
0.103905580660961
0.105195439883164
0.104108503301622
0.103836273594632
0.103132030646889
0.102132790822611
0.103040710344068
0.103444999212783
0.100484329450585
0.100519030475255
0.101088558870569
0.0985233457171928
0.100172993740235
0.100040735637392
0.100192539313809
0.0995843085693937
0.0975910028877
0.100552143566239
0.0957511409127682
0.098647325882463
0.0991926343214228
0.0975369594150097
0.0980190183258545
0.0975478074311005
0.0939567751463063
0.0928597550141492
0.0946830133592176
0.0949163574211475
0.0951068269753349
0.0943166474347839
0.0947062062470988
0.0908020290699698
0.0901703764219322
0.0944361576367118
0.0948487032517134
0.0933307463073098
0.0918748296659002
0.0889867256521026
0.0940960013861457
0.0892960071780821
0.0904840264243819
0.0913814259408159
0.0890866850243241
0.0912305330401186
0.088545204683014
0.0897341366748758
0.0901870802851003
0.086643271330371
0.0909820521624445
0.088903710408725
0.089903291767205
0.0875390614372372
0.08656007933881
0.0884775545351163
0.0889517859185884
0.0867345441762503
0.0875678574113042
0.0876266950902233
0.0885900188900646
0.0882584305630945
0.0874911200726731
0.0853719893208866
0.0875768264115074
0.0833152520037178
0.0864799375179739
0.0875538492128601
0.0848402514896788
0.0867935256411422
0.0888192311095236
0.0872919576418657
0.0867357743442219
0.0835684092634821
0.0802648322042476
0.0866839190447774
0.0831110310711132
0.0833202036560852
0.0839298401651557
0.0890748317532624
0.0865377926407283
0.0825902018321425
0.0874974671248887
0.0832080107606454
0.0835864761491819
0.0833350209572683
0.0847484857281421
0.0837039268575679
0.0859291694568564
0.0821871476732842
0.0823541323552075
0.0812289559119811
0.0802679842870216
0.0804464890102264
0.0801408344829501
0.0822612543801007
0.0860292787401904
0.0786182565711395
0.0842025352822931
0.0778820787811877
0.082169631452008
0.0783874150919528
0.0813028983022937
0.0825223375897496
0.0811960223540414
0.0789318020851524
0.0807866365352623
0.0722234459527021
0.0863204751492622
0.0775720827785385
0.0842448127695703
0.0824742520023262
0.0802908785667572
0.0776499018403616
0.0794282759330954
0.0733384919429934
0.0845237800584344
0.0758283591911638
0.0854502645908213
0.0767041743534449
0.0829116497121311
0.0734186978511397
0.0811569566922067
0.078863299087552
0.0760463741099158
0.0780958025450004
0.0806272158254735
0.0790856688513706
0.0742921560582645
0.0777236296087263
0.0749078851906796
0.0780903866036339
0.0764697177006925
0.0812988334646672
0.0748788003561707
0.0801866890212941
0.0738881048211124
0.0792973632335955
0.0787265756293414
0.0787006370692306
0.0771082904670601
0.0771126489878311
0.0748443725708956
0.0752809715574096
0.0749530426569514
0.0780355359593884
0.0755296352616582
0.0757032735786459
0.076748480712928
0.0785687182068128
0.0767986607673496
0.0776382383182255
0.0792602914304044
0.0779088604314732
0.0740211976370315
0.0773620316726846
0.0748050637168076
0.0759419909177892
0.0763941878534062
0.0781277381769681
0.0766553001603597
0.0773785047215106
0.0765862572918785
0.0733683050477082
0.07618487693692
0.0772757583805663
0.0778050319775158
0.0786342853583424
0.0748971513077626
0.077781790269281
0.0755319249304467
0.0756465865533201
0.0781629578795721
0.0754182132394806
0.07524748716268
0.0771651396132798
0.0762822659069229
0.0787645527780639
0.0784284180909827
0.0803371341329406
0.0765787183809782
0.0799148790499297
0.0776968784102302
0.078305763478451
0.0782371586994425
0.0799719336458257
0.0771852545313789
0.0810973318498904
0.0753807177116031
0.0776068530262838
0.0785793799274667
0.0778603912283429
0.0769087989777278
0.0796891362373157
0.079306841588703
0.0784724694121118
0.0770409389895681
0.0785558804133594
0.0756372264636137
0.0782470228292702
0.0762311400877761
0.0775093163881107
0.0768462443152113
0.0791440591983982
0.0782957334632841
0.0774269168190048
0.0786032083522443
0.0771714695490825
0.0769869501626216
0.080175358601125
0.0765815547007191
0.080310308109269
0.0791221621670901
0.0794157213464872
0.0793543938504963
0.0800994589617526
0.0780368860933915
0.079282033507915
0.0799305339667119
0.0783964502777428
0.0784633650382142
0.0798976567460007
0.0814170943156193
0.0825540792981435
0.0797618632004667
0.0796805795754278
0.0799701718002523
0.0802661577625232
0.0800007898659216
0.0815098572032509
0.0796649636252222
0.0823514632433077
0.0817710656858785
0.0841257636556131
0.0807164287229443
0.079032607705903
0.0806566275887355
0.0823782567397607
0.0839743526728734
0.0829126764934844
0.082168682810167
0.0831444115313863
0.0807380478806241
0.0800554752806172
0.0824554031196317
0.0836884269205602
0.0832255139643003
0.0808418662508379
0.082317801029996
0.0844451403294828
0.0834515583278437
0.0815291064279575
0.080970405724522
0.0807495985825909
0.0841514031814255
0.0836539177614621
0.0825306306004803
0.0853521906066126
0.0843165512966318
0.0831482747965522
0.084178177608791
0.0868155822317441
0.0856828950316717
0.0841009648394099
0.0850396767844811
0.084088642100409
0.0852822764537714
0.0837229417376357
0.0824117175433671
0.0858089026825821
0.0851718219561346
0.0847588790239368
0.0862796632182322
0.0862708762279632
0.0861867914486381
0.08680100298064
0.0866064004170354
0.0837427613331902
0.0852636354533459
0.0865554609431532
0.0871858582772423
0.088350954809448
0.0843327124299881
0.0852453504888165
0.0863729678919492
0.0886940703651232
0.0891012367157018
0.0903787889865523
0.085746477582266
0.0884184429398118
0.0860574267540039
0.0897724645701043
0.0858396972334106
0.0887426415955142
0.0876811782149647
0.0897788126591836
0.0884439323121657
0.0884858554807027
0.0898681761503621
0.0878041061135058
0.0894569784808277
0.0897174746845411
0.0884681134433105
0.0888108747380029
0.0898481472036215
0.0913729913942287
0.0860224089508293
0.0918447883366232
0.0884889093311739
0.0894008319807121
0.0904285865208949
0.091098435715116
0.0895635172295086
0.0877312002660111
0.0890423835187758
0.0897301928856446
0.0863034160958607
0.0882636133594685
0.0864233809532228
0.0888351420755271
0.0902270228624655
0.088587942219329
0.0877064341776197
0.0871047357320007
0.0854306535313647
0.0870688536911856
0.0864952516319544
0.088533913179632
0.0883001565367623
0.0867305041402611
0.0876921286627849
0.0862157709788893
0.0880636746113855
0.0889225641754333
0.0836108939184624
0.085446291354627
0.0844298915103064
0.0871816318619842
0.0850113881576825
0.0874107774876164
0.0847181575547471
0.0838830884759085
0.0863583458602504
0.0867473232802103
0.0848603025434079
0.0883329012564642
0.0844785494907151
0.0861128982453629
0.0842520220934225
0.0848554967378058
0.0855379066526068
0.0846693137089228
0.0837813039115348
0.0849684299427175
0.083871566154476
0.0835196651731186
0.0815785460903704
0.0850943554381151
0.0806069660625807
0.0848901038772873
0.0842229905200967
0.0835439984724131
0.0814400590129112
0.0828464492724576
0.0846450532200663
0.0852133013522772
0.0814611325023502
0.0833003911986907
0.0811997560441854
0.0831166173396149
0.0816874028123343
0.082137526348036
0.0850025326499661
0.0829810970593302
0.0816520016269693
0.0805632301352229
0.0823823743543165
0.0834936713655702
0.0814435405998878
0.0807328969189875
0.0818548621314026
0.0827463366563846
0.0804223032418222
0.0813473723474411
0.0831461733869297
0.0820441226169877
0.081263694356237
0.0829548387476141
0.0800392445388058
0.0785356224096322
0.0793637009584172
0.0814309416798827
0.0826445664401951
0.0819099503985074
0.0805055030343571
0.0820449509027797
0.0819130184476509
0.0805097265497553
0.0827190929091274
0.0783286750001144
0.0791838465107156
0.0793573447942224
0.0800503443379769
0.0797701840583166
0.0798628551143476
0.078070940279054
0.0791763660596795
0.0821951958842986
0.0795984095388345
0.0820607480398417
0.0766232687977135
0.0811977768098159
0.0773094954078988
0.0779535850964261
0.0769853372285714
0.0799488587865906
0.0778380188311306
0.0770741252661098
0.0747965699542798
0.0782982061463604
0.0774638188869564
0.0782534381320232
0.0755608336019297
0.0791960260297019
0.0761940441981706
0.0774732245807712
0.0753171473072705
0.0750657832778806
0.0743413675432574
0.0751746446827414
0.0763191568061733
0.0749035173630407
0.075506542528804
0.0745845976599596
0.0760229964912675
0.07740764321149
0.0752498205990824
0.0750242500430382
0.0703652837271042
0.0730309152822032
0.0748065942220379
0.0752586607868139
0.0714852365721731
0.0716903451965347
0.0732122263949171
0.0687653205255881
0.0719018702035135
0.0697477937830415
0.0701392337512798
0.0708246858462879
0.0682188014486837
0.0724256695992584
0.0708780840043427
0.070671923694342
0.0691253227290489
0.0721461631875017
0.0687768433174255
0.068879051702033
0.0655293745368282
0.0673422732116215
0.0671945732249555
0.0692532767799572
0.0652820450217044
0.0687480650359842
0.0662541532291484
0.0670759999981366
0.0679511123604852
0.0665721207277301
0.0665523667228031
0.0677236141967772
0.0683022169512362
0.0662792684864509
0.0659133045031336
0.0654367447440511
0.063581620854315
0.0629872216936807
0.0658490564692115
0.063094469261266
0.0638231580935889
0.0646915410319026
0.0646023333105974
0.0640947777901267
0.0630525120861935
0.0637947386366669
0.0632631105450907
0.0658821994685203
0.06359774284158
0.0643049331188841
0.0623903923541976
0.0646559794401557
0.0634254245420769
0.0652914866489769
0.0633618005832892
0.0618315183716852
0.0611174478856932
0.0619044181778778
0.0627335269328599
0.0635085603740372
0.064212749407887
0.062910448298711
0.0615979426830638
0.0627961040467006
0.0640942124800402
0.0641030530671445
0.0591897956348645
0.0622811916060972
0.0627453866488566
0.0633504480426634
0.0622769802595214
0.060920311365255
0.0608225930833637
0.0613629565883203
0.0592056773695795
0.061537345805128
0.0597944267982638
0.0575043332860597
0.06033765636567
0.0587469653570773
0.0597943862991417
0.0603654329022437
0.0611440063184416
0.0578258034547006
0.0586809505464957
0.0605527123777687
0.0584793027199767
0.0598583534412555
0.0587530068227347
0.0589425909187179
0.0591655492645361
0.0576381447744164
0.0591539284895135
0.0607764900925421
0.0583303027501573
0.0591924487758922
0.0579383758426224
0.0589344404549735
0.0574243007828876
0.058757238590345
0.0552411217691057
0.056808419384859
0.0580546194118812
0.0572011140552112
0.0569183763080229
0.0573332367398956
0.0587680765005187
0.0579836138682943
0.0559961634491517
0.0587024479559035
0.056811551671981
0.0571781408362535
0.0575180563045928
0.0590092331272527
0.0553608469168669
0.0552786478367435
0.0570046155118108
0.0597289146609362
0.0594145891446843
0.0568814136201189
0.0592704438124414
0.0550733549180259
0.0579808891904098
0.0547800172268524
0.0580095032636877
0.0580641950265609
0.0565605870144095
0.0568666868899498
0.0562582165640032
0.0567967205082927
0.0577893223601822
0.0572814907857992
0.0557408647242626
0.0561679939310312
0.0578658461805195
0.0572920156806353
0.0543515750416034
0.054282932497882
0.0570829876724054
0.0571099356310109
0.0566541702266631
0.0560373128067053
0.0564336480846275
0.0556472152086346
0.0576079941068467
0.0574359521868952
0.0557912328932998
0.0578062600774721
0.0586719894146871
0.0559207109413645
0.05681645839827
0.0565133634744813
0.0568229226076687
0.0551556468841164
0.0551074423218237
0.0561998390342441
0.0538703579596603
0.0598361789184252
0.0574622045004819
0.0568128271557013
0.0563543686398289
0.0561050411304035
0.0563988640956369
0.0559835693476803
0.0563722470949965
0.0554880669413804
0.0574227456211638
0.0590892467337588
0.0560603303782591
0.0561691126739294
0.0568980897128943
0.0576811463952331
0.0569919963573802
0.0538489903081146
0.0542581217060154
0.0553461543657576
0.0599618143190933
0.0569675920094691
0.0590226322344835
0.0584974912095934
0.0566108007939311
0.0551636498914808
0.0582082173050736
0.0579645817173001
0.0571754245197485
0.0555923483411827
0.057575241820263
0.0559184807753054
0.0601927239128495
0.0570230047329738
0.0588292337976119
0.0558678845546152
0.0599197596168673
0.0583650176924667
0.0584376282807374
0.0600385317008557
0.0587668104726717
0.0641295923409348
0.0585407526485517
0.0573141272125224
0.0559006953537275
0.0595517487640659
0.0573455411970707
0.0584830761935859
0.0586740734807448
0.05884696407587
0.0568364884087804
0.0576843508815046
0.0552538507031631
0.0616001593663123
0.0561894430002756
0.0593887894261964
0.0634462875520925
0.0603481604512187
0.0593446382805269
0.0608446134370599
0.0592019112697139
0.0625642215898488
0.0616960097004319
0.0595779831285987
0.060372768788397
0.061284077295236
0.0618870794670298
0.0611276248523603
0.0624131663056703
0.0631435931260757
0.0629963291352303
0.0603513788498742
0.0614293516028151
0.0610204971267777
0.0601687715634182
0.0609141788222585
0.0624803068475766
0.0647078452627513
0.0641944382365207
0.0643801204939623
0.0620667830846918
0.0637476754172989
0.0625573643447021
0.066558428291281
0.0660418243889471
0.0664360379556662
0.0664333643964676
0.0656982984888679
0.063372827953109
0.0667353394337177
0.0656134412204387
0.0635409491143184
0.0664496396908257
0.0668307016957665
0.067548755592414
0.0647946579532386
0.0709085194016184
0.0655445601666619
0.0704276828255187
0.0668288639458209
0.0684151905479107
0.071036544929976
0.0692787891166717
0.0660906809836629
0.0673275903416768
0.0721245919569816
0.0676035100308133
0.0682328946881425
0.068980690607192
0.0711495566474138
0.0684417741040342
0.0702576088032323
0.0690924573501735
0.073328880053435
0.0718594422668567
0.0756492935127361
0.0732403042538539
0.0780951896651654
0.0748542124806224
0.0724011407024438
0.0764482643143898
0.0723040302153554
0.0752107874906675
0.0755172663839521
0.0756375624726595
0.076509952285087
0.0738608681769295
0.077461455821747
0.0748358201728413
0.0788043926182807
0.0821335164499005
0.0803613732068718
0.0803142565881854
0.0796031603315631
0.0820844745114823
0.0845796945571485
0.0819192735508412
0.0835772318183624
0.0821220938695054
0.0849844950140269
0.086325868714381
0.0928385776094486
0.083131386182179
0.0938174240751661
0.0860042748310345
0.0881755289111979
0.0897463586914018
0.0931486489997617
0.0920555106097555
0.09481983951983
0.0936131960944481
0.0948498611274864
0.0928400690025199
0.102546967267479
0.0969653663764644
0.0995885907172891
0.100066100350146
0.100035579515373
0.105039281508851
0.109736292899225
0.0981623420443423
0.106965359587305
0.105380405464021
0.108119245461252
0.111702488431969
0.114148087833005
0.112658963769578
0.112522796684343
0.114229361261724
0.115539919000918
0.114832489379217
0.122522228688979
0.121877974440052
0.122998599723569
0.124661177020967
0.126472110853007
0.13097680437919
0.133171974411553
0.13026677191225
0.131587514323838
0.138995593195728
0.133821040418263
0.133922761033177
0.134781560192079
0.13867719352928
0.141180701348072
0.140344314465981
0.145933779178409
0.144770873793007
0.152066538260727
0.149800063483783
0.154969884514942
0.155153753591963
0.159882230230272
0.158626319260234
0.170883181553669
0.199884352881626
0.169166737747399
0.176456391331466
0.180225868393741
0.189374195859421
0.196403022440488
0.197608376459147
0.205830207973857
0.205084364551495
0.215945562430849
0.221641841268035
0.223825113492126
0.228357455049471
0.238416701687077
0.246476296568461
0.248876768380528
0.254913032650247
0.262181749254935
0.26861874634327
0.276475866077444
0.277846923509644
0.294775594090871
0.298983342575568
0.304338386213486
0.31654308494117
0.319902474948685
0.32919186345127
0.343566744316328
0.343621076886267
0.347688402400683
0.359166680837011
0.372010791910228
0.369840875162108
0.382643410438599
0.395465660835065
0.400155019841673
0.402618869520519
0.411362664141268
0.419941497193751
0.433746030233172
0.441258697684437
0.446645137095425
0.448759050438044
0.454835221290271
0.469188276438786
0.465118425062507
0.47029908719159
0.480926530574177
0.477971604071774
0.5041515525683
0.502701021307738
0.573343149565415
0.499536755992131
0.488351656542847
0.500457298587268
0.495817107147075
0.513142349373384
0.508737258951349
0.517084893206581
0.520047866382561
0.510039480222317
0.516706935904722
0.513116454928838
0.520588611228592
0.516422263475321
0.514126185680336
0.513685209763334
0.525595196972459
0.526533199911363
0.523385618181063
0.549023134636701
0.509615887120136
0.514830796914535
0.517842038152662
0.513275685391742
0.519447065916832
0.512196647661156
0.521879716472778
0.516913187227445
0.516999996483623
0.505125994206106
0.498427208305555
0.513643905303439
0.511524622469617
0.480974124549464
0.484897634589597
0.478253256200763
0.479892743294579
0.463246880901818
0.480031835453871
0.480964622824645
0.451098577851532
0.462124459585546
0.449334807412676
0.449677394682401
0.441269822768318
0.442506298364506
0.443652969906355
0.432844278890574
0.433133485006266
0.440210269391157
0.432415097835058
0.425750442000007
0.42470026876521
0.434739820347782
0.427135421859948
0.430707097303105
0.42102123091314
0.421493057907814
0.41897320503813
0.422134894119952
0.422067486434275
0.417007779026196
0.423208527477864
0.419434033253357
0.419268222982641
0.420035720982804
0.417784479934981
0.421101990763805
0.420983845869757
0.420064488339871
0.414844248068031
0.419210949742172
0.423303535357332
0.416111185490085
0.419340398830211
0.418037906028304
0.411637948511222
0.419466223209227
0.415664142163234
0.406271736550453
0.409046172830769
0.402863146075565
0.42791056212395
0.41193460820135
0.397556777682049
0.401868639714602
0.406152036341439
0.398444899332948
0.396702000032366
0.407071995472752
0.396547373526664
0.392184098019103
0.391130201523766
0.390363658731209
0.393228427486733
0.38599401811146
0.380086458580932
0.377040309297054
0.372999743640933
0.372255334902611
0.391475085045193
0.382754436391081
0.387029646368968
0.371499636045597
0.365359861969815
0.369296724672594
0.376468219664755
0.361695595225039
0.362365345364141
0.359420827537704
0.369760356390082
0.364902472885535
0.35547662387937
0.349014646713264
0.356317843991287
0.353589231061198
0.357579201281256
0.347813662682578
0.353857810619943
0.356742522242241
0.331047603893639
0.344128457592833
0.345210488524987
0.335575305290574
0.325954569990588
0.322400386866227
0.321035107503742
0.323521218530089
0.326898316606413
0.318596986434998
0.316219394205983
0.312396218761758
0.309779360257342
0.311623033360292
0.303561416317878
0.303114231778999
0.30138975717389
0.29657305699094
0.289933704151093
0.292026700036539
0.29066554835683
0.291316001621325
0.289496354433276
0.286126306724213
0.281153736495666
0.281958604126027
0.287216170398442
0.280096406908949
0.282618428593929
0.275622769584207
0.268471456390054
0.273209401766438
0.264976431492435
0.269597916804288
0.267915308532824
0.262714551625359
0.264960659560731
0.265541723137589
0.25919500983084
0.252437378638096
0.255896935536502
0.251774721081944
0.252756653110672
0.255294761904684
0.252861958422031
0.259486151463435
0.252119515661284
0.251479363432492
0.263932101493276
0.254602533060801
0.253414841738964
0.260145021734452
0.260576267726408
0.258900965927878
0.264086857839178
0.264416531377682
0.265494161648479
0.269017303708146
0.274516678065004
0.269550255103514
0.277224467455864
0.285085023814929
0.283324549297546
0.286426362112488
0.29342523358181
0.29975948345657
0.30178186712883
0.307807371743347
0.311334308958269
0.321507143820288
0.32904977136864
0.329101445621294
0.348211074285152
0.340697893245181
0.35574426516266
0.354435187023941
0.363866905931155
0.366772691263211
0.370642161674703
0.377639979688961
0.385551887982813
0.390698558391141
0.40224564732458
0.396419016529507
0.39846649144426
0.40250225736514
0.4124541916279
0.411655427825821
0.41668001601999
0.415948354113822
0.430646049521507
0.432954480626422
0.433570165101713
0.434090275537603
0.431001983001093
0.438361121754145
0.439480851437697
0.437583620897566
0.446912243353008
0.443589456741443
0.450349304599453
0.451490078159528
0.451043783003475
0.453237019632389
0.454576081688607
0.4625730226801
0.461072378335337
0.461655245129071
0.46217011594916
0.468267919726836
0.473313327711162
0.473750000369445
0.500705981901578
0.480776297500683
0.48165230798744
0.488557798969558
0.491293477950124
0.490727834837853
0.494565574662445
0.49758862017102
0.512818541338482
0.504176261379748
0.505265450732208
0.515164184951498
0.51987766526125
0.520219493267085
0.532679783922864
0.525656550713857
0.529048908334984
0.527156978747492
0.533362308932439
0.54840633503155
0.543241596557604
0.544977354158013
0.553865399782784
0.54972597499102
0.546061689296045
0.549765315179441
0.548729377609065
0.550176393479867
0.5532254894318
0.561154093869991
0.556973476248252
0.555741089477786
0.558695445261947
0.558791667538482
0.564284125695261
0.553481494149165
0.556807637912535
0.560806424346898
0.557267300832735
0.555155465110069
0.561221402304112
0.554129840568873
0.549859111028276
0.558689388753054
0.552714518890916
0.558345355814972
0.562340413142565
0.552604904921259
0.555689739034244
0.560914895269569
0.558192072499139
0.553262156178536
0.565469532101808
0.566927336501546
0.56503382274598
0.568703757269739
0.569571999052285
0.570279461810028
0.570769438810725
0.573236270883707
0.570683999480259
0.574420662780724
0.580334786930678
0.584568574077961
0.584074891493308
0.582949553968589
0.590765310352374
0.589090286093418
0.585517829065391
0.582801669601287
0.582489742918261
0.588408201353981
0.583302745516729
0.579143866222783
0.570774433177684
0.573220942073856
0.570061794626143
0.563617145313811
0.554441481173703
0.559581535343106
0.551242272442254
0.548387124218351
0.547955276159017
0.539920895458899
0.536097546423914
0.535444446831132
0.528500356305648
0.527591220767185
0.525092155914543
0.521200383701845
0.517736955173436
0.517378128551401
0.520510981941463
0.517253832971973
0.513597868022228
0.508840476632253
0.509712859766993
0.507149195576961
0.505292977824748
0.508475737726864
0.513279812118619
0.510804770680193
0.504415865803237
0.509876827354605
0.506556872686923
0.508636719638698
0.508370429225271
0.51237557313697
0.50707202651081
0.50079819680541
0.504154147441602
0.506384653669045
0.507060462402979
0.505470273681889
0.504635429804219
0.500431328375492
0.501267209077976
0.500425071990719
0.500421071429487
0.504110941108093
0.500628023943266
0.504305326525142
0.50138021259092
0.49608501173926
0.497685782482604
0.493994182503083
0.499649810408896
0.499044506806437
0.497569680516773
0.502611473568377
0.49563958797165
0.496552201582823
0.497318686205084
0.494325744731385
0.49978438522997
0.50023646737714
0.499020883150754
0.499142165569407
0.499900431492357
0.496966901717158
0.49990250381261
0.493048593198994
0.49045981609672
0.49006899215889
0.487820928451195
0.487385223015096
0.479935045011745
0.476744215417787
0.475525853295196
0.475762271696504
0.471052901084961
0.46562290977477
0.463895413553067
0.457750746083002
0.452424811156143
0.451319087426729
0.450963004702416
0.448083705818601
0.444302974842545
0.44194298849703
0.44152502841633
0.440218056589907
0.437261566087613
0.438047223491297
0.43915501099742
0.437122965420416
0.435700098898929
0.436471326266741
0.4363980602269
0.431703811270614
0.43303050684291
0.435286960022389
0.436563511407906
0.436401313000272
0.437549857515517
0.440509707974302
0.441435335208864
0.442582849306674
0.443270969936331
0.446065431502474
0.445740040050653
0.447402818978747
0.449256519070501
0.449939809207122
0.449888064468394
0.454270026042175
0.455334442348315
0.457908060399932
0.455201331907964
0.457719174268127
0.461645055848519
0.458414229527393
0.460164087475783
0.459978049344902
0.460260365977362
0.460105813536608
0.458150650283148
0.458115649929678
0.454865624538355
0.453437766100046
0.454828740150002
0.451933561377704
0.454228773935853
0.452549041026825
0.448640519098867
0.446988780787715
0.447085168624057
0.444596130593452
0.442241727787269
0.44297961956617
0.437963093002146
0.437216957369037
0.438575698370229
0.438200770827042
0.434993239774848
0.432220916415003
0.430485638210024
0.431584317945267
0.428633036150613
0.42713830474703
0.425080272687689
0.42180810076299
0.42390819454681
0.419858578480239
0.419595372182557
0.419885453139257
0.41536572104934
0.416065173366783
0.416046329407433
0.41499660241444
0.41372298596183
0.409436622673984
0.408812395518969
0.406337587953901
0.404046886109117
0.401897664271538
0.400421115427389
0.398315739654976
0.391710106527689
0.39078959934373
0.388268029804163
0.384613769187989
0.379293722071462
0.378328041547718
0.37666955559784
0.372425840264471
0.371045767192919
0.370765911312399
0.368984953472114
0.367366740309409
0.36646889916485
0.367252817333915
0.365874130808462
0.361016630572127
0.361536099211778
0.359917526285961
0.356606769860909
0.355103541484673
0.354614902322407
0.351482980490953
0.347883705415938
0.342835972615017
0.336696694701617
0.332981159170142
0.326881743500004
0.326885308883335
0.323838749258159
0.319867206885841
0.320117088006438
0.318098604558318
0.318786808263966
0.318749868016595
0.322534991878203
0.326946503276535
0.332491259834028
0.340723857254094
0.347440441877052
0.358154789001994
0.370871686097418
0.3802644931692
0.394325410572796
0.409596188021255
0.423014337950665
0.438608689066915
0.454492624328952
0.466103527659469
0.478000666359671
0.49483312933708
0.513552530763033
0.526334470443807
0.544865416555345
0.556020319169078
0.567814460074546
0.578800596411133
0.592036778454288
0.60652355710946
0.617480993342059
0.631759710977334
0.643244058488202
0.652626679202518
0.66066270358659
0.666847414798361
0.672801914723473
0.688116733709817
0.692638041141887
0.690942876784568
0.699320130568803
0.707699128756616
0.708365248365208
0.711346492643756
0.708015518549702
0.708244213222638
0.709472720154161
0.710847478822294
0.708580243714253
0.711429324049405
0.711655881806628
0.709713576067364
0.719382616529695
0.717315704758937
0.717517197748931
0.718729215277837
0.719428234183971
0.733606514566777
0.741435368920314
0.740045940823418
0.747712875731265
0.753303710461046
0.760719802488533
0.765923033122609
0.773933185335444
0.783948198201621
0.786480819059261
0.802336799019232
0.810919348382853
0.817468821246145
0.829777246982125
0.84463712637265
0.85637333851429
0.867740236396178
0.877234927510617
0.880444122690629
0.882166492773396
0.895355345100377
0.897953608797726
0.897728680602991
0.906567476602407
0.903988352734888
0.898582179670353
0.901581335437251
0.889907394906554
0.891728440481707
0.886797429479626
0.874924518979513
0.875933453292385
0.878709858349512
0.886059844857092
0.894795355526253
0.908530385768176
0.91341924751046
0.91505084698083
0.932018611730046
0.944951833020707
0.961502859593681
0.976924935720741
0.975570962974058
0.988978406675703
1.02507495551676
1.02771958217895
1.04854358144104
1.0687804274498
1.06835548974846
1.09019755844064
1.10136020163167
1.09686923906294
1.10541575586074
1.13725126835625
1.14631817765247
1.16940190614863
1.20195824533902
1.19734812174825
1.23356085715081
1.26765891366746
1.27960950937972
1.30099118550351
1.32231985871147
1.32543651315038
1.35285654806212
1.38132052186417
1.39110624001823
1.44296806041776
1.47019689786379
1.45938673474368
1.48967779035906
1.47400827328002
1.47368994537155
1.44612990269383
1.49457002680782
1.49472776849918
1.47229990414547
1.49698831276603
1.4799412455019
1.50225912426353
1.49037933188581
1.45602763735774
1.49058107829718
1.415165886416
1.45395446884248
1.47975784379101
1.46207624860742
1.47170473982265
1.480691574161
1.49658060597316
1.50225239433236
1.52982197844707
1.53873051671625
1.52796150676057
1.55961342670289
1.58144590757741
1.6085434876174
1.62047056024135
1.59753989458263
1.60952518370399
1.62903104668052
1.64661537927958
1.6680402331681
1.65766889157026
1.70723583357424
1.72110011929486
1.79755699810715
1.76847587293906
1.76985443365485
1.82607571511809
1.77500073046005
1.80029044010652
1.80202606650641
1.81884992069272
1.80210557211812
1.83450049324774
1.96140830624658
1.81700646266744
1.8265889801902
1.8474883755698
1.78539659799022
1.83477715358994
1.87327233346325
1.83709458929354
1.81741286699587
1.81665058534849
1.86580553543581
1.80245340190837
1.75226282815741
1.82184000546295
1.7691488387843
1.68863693846915
1.71547006073181
1.67355011288737
1.67497265870712
1.6144454598171
1.57755937356443
1.57108908367101
1.51369130169302
1.45432479899804
1.39674085195981
1.35337070774516
1.33085944751718
1.33951850286325
1.32702153180506
1.260247837933
1.24352235514965
1.25244417007901
1.23382064092237
1.22792513998657
1.24908245624638
1.21759118690347
1.22660204600273
1.21929593898282
1.16879698665388
1.15899588862058
1.17410270371032
1.1704513810056
1.15845843569402
1.11996597884914
1.0951486643526
1.08400450024836
1.0632749385861
1.03592784897429
1.00898141737042
0.970157089196851
0.94475984772871
0.919843941413831
0.888309662689573
0.860317056264364
0.828632047142623
0.788883468377776
0.755123016946763
0.722758915449688
0.693839985081417
0.67110216644883
0.639590729448723
0.607734336687277
0.587328682729914
0.568458891879882
0.545039632457684
0.529896556655616
0.5179994091548
0.503081931954356
0.487968313204337
0.478910107804852
0.472712788082746
0.46211081976924
0.453755850240376
0.444430941054169
0.446682951737075
0.44482979692559
0.439934974515256
0.436261233972831
0.434014166429125
0.439800573224847
0.430042664999295
0.429915892482475
0.433876595330386
0.432460293153554
0.439137502539675
0.439717132383411
0.443450017408996
0.443462372369534
0.43606300936865
0.436853790986883
0.435347746203915
0.432746032134788
0.432377066005181
0.429773159683805
0.430997185534893
0.424833787800069
0.418069606811143
0.416535184521115
0.40929691990238
0.409380009699778
0.414550072428767
0.405726935737733
0.404404931070508
0.404648429138374
0.40307540517506
0.409891665694152
0.412684531273966
0.419111430130813
0.425017852552591
0.422373644951989
0.422970993734903
0.426025251840022
0.428653093005315
0.430766025576248
0.434409242160523
0.440020979678977
0.441464515090022
0.445618597330645
0.446189064007237
0.446019041722108
0.443724232933901
0.447118530351826
0.449050021850457
0.445522940045356
0.447260025196651
0.447881948617285
0.441847569292738
0.442149126081944
0.451371432719943
0.455025144942443
0.458294203403444
0.465063187768175
0.469866662648694
0.475322642415156
0.486946204544736
0.498369197438163
0.510201286595802
0.519549788002432
0.527872821474941
0.54756902210621
0.557159867310677
0.572171165988994
0.583345749889053
0.587685488343094
0.590453639692019
0.589728909887719
0.581862635313805
0.582896173033289
0.584858753765337
0.57852601526009
0.572913359905325
0.552874249853814
0.548536714740107
0.554827930409095
0.540389268591877
0.540742277952843
0.533649212565151
0.527552566378923
0.539352049538312
0.533555336527159
0.529422075098534
0.53536700817917
0.54129070802976
0.542886575027203
0.528706287340242
0.537333479763965
0.537881666187022
0.529203251481056
0.51826446932456
0.507705631397238
0.510808052353959
0.509605321601083
0.508949674277559
0.499225805011787
0.494138058506504
0.498425123778824
0.482068233115503
0.482514586659554
0.489545048475259
0.495846943572511
0.486383344538027
0.484452279714877
0.482648182590893
0.478385897212845
0.480043138835965
0.488044493365898
0.480598404037872
0.475865740641179
0.471127045201131
0.478043589178104
0.471703683786537
0.465476199853684
0.458847145712202
0.461356852669302
0.459679783259151
0.460454371039714
0.465286605476911
0.462969316067781
0.461325850578548
0.45791308401443
0.455191832072854
0.457564701206639
0.456081299332877
0.4546435657476
0.444844456436247
0.449517230591874
0.444070976341443
0.440211422727878
0.446830463324727
0.442023672884858
0.444655841105955
0.450847909579298
0.436451660765262
0.437227862119653
0.430817165626303
0.44106743261137
0.442037018278655
0.448126277432224
0.448595601555223
0.441036420846008
0.451530349507749
0.452826020723712
0.445171996513943
0.440974244037249
0.454251792810766
0.455234964704795
0.446201870797971
0.457927525283881
0.458691296212618
0.464748785839432
0.46547164145331
0.466325828791391
0.478833669726081
0.469353534062112
0.471710845526178
0.493786981161937
0.47976646495681
0.488197627309003
0.490887299305905
0.502274002206966
0.50488342676774
0.501764042441747
0.507424838536846
0.517191684451951
0.530397528948554
0.534668348998695
0.524750026712589
0.538721227889153
0.561942706869438
0.583928040057742
0.591072555728978
0.616058408592569
0.654264288446365
0.629808406384749
0.646224952640655
0.685081574376072
0.67649238546086
0.698946294885884
0.706897096405847
0.718939285015313
0.721426266818594
0.735329602066243
0.721192880268819
0.730916256297024
0.721787480440724
0.745561231254349
0.74925132707078
0.763162499703521
0.704134759382365
0.708807865251643
0.72379925937035
0.749010194765895
0.717954607251334
0.724520118740262
0.749050625995774
0.726811762952111
0.722423322030144
0.741192419961526
0.681614784928538
0.702280604192617
0.70470370602186
0.707608435571342
0.761321538686167
0.702135846357649
0.688524566918708
0.70899967008245
0.686913005776593
0.68545841084866
0.698235203981616
0.682199806526635
0.648022286212788
0.676052844583783
0.685119517388523
0.689848175836759
0.639528249624813
0.665821322789328
0.69125297020868
0.686054154181517
0.632363941465177
0.636836005560477
0.671988199079089
0.702978040203028
0.692653771489246
0.741254376193946
0.687219718773815
0.647092344249972
0.659106523014357
0.700376238034855
0.65628809496158
0.694574123303962
0.691694657110658
0.63577270869652
0.657304459426686
0.689103235655871
0.636530678516504
0.713915481175703
0.701724520569709
0.741301757011215
0.724917320403687
0.725513340463511
0.719010415162653
0.746162909129966
0.760421853964403
0.730657337165496
0.749847092908265
0.755494573078905
0.674411509252642
0.713856099347914
0.768359320233209
0.820726457556008
0.773264180621314
0.777452647980969
0.76932193406596
0.814005523838087
0.735379284885178
0.759312877812827
0.766187495328407
0.769116642504639
0.75084275118595
0.906239997750712
0.844123053369485
0.873703050525448
0.876568907211597
0.950293834263514
0.790683495356443
0.873044681224028
0.881220928349099
0.926291414681727
0.976682751318314
1.0791705050172
0.968977235034317
1.01962765186211
0.781629244021073
0.810190890719369
0.792019041874132
0.855634626734436
0.825744533767059
0.867540586551472
0.868284902997598
0.882258671744576
0.793495371703563
0.934518860363818
0.802072756871862
0.90153213342418
0.873975009743253
0.834866785535555
0.949521686805123
1.04775626716663
0.780634371121633
0.996364761620749
0.86319499818296
0.87574270274299
0.766278859047941
0.969156362338813
0.8993933171321
0.926784215072936
0.678787939317757
0.851234232808684
0.868357513070619
1.01234734816086
0.699206401413841
0.736230794349306
0.766119512970031
0.927092048941773
0.586266827561823
0.772687658337359
0.864544576212206
2.3355079206855
0.957762753870808
0.84894063878248
1.21945255967901
1.11643855885645
0.837626573031381
5
0.637809756310919
5
5
1.29082287622748
0.650701420352407
0.912824567932131
5
5
0.918753508351034
5
0.631586114614955
0.701644771193553
