3596
4000.36533379555
650.420452594757
1
2
2
0.0174187733236746
0.00987152682473034
0.00937683997600948
0.0115123032423484
0.0230402177634509
0.0115713090812461
0.0149690409170452
0.010218493530364
0.0144449179977213
0.00806687818025142
0.0153998736064865
0.0185584881595579
0.017649990029615
0.0104877472119368
0.0156245327513312
0.0158027317277187
0.0145323181790859
0.0119420271599209
0.0177848914556794
0.0128514425441297
0.0137666912776274
0.00630178907183352
0.014984278479629
0.0131286986117454
0.0140395056562334
0.0123588807794284
0.0140853349745288
0.00898119802161078
0.015406835998764
0.00703941568708249
0.0168673930619197
0.0135031126572136
0.0232856828090642
0.00779295427893817
0.0107408392455954
0.0149190174263407
0.0190364207997343
0.01268483152649
0.015078601121511
0.00343446264215736
0.0130017485007316
0.00938487961453034
0.00993804531684191
0.0131877129794058
0.0152643040188654
0.0141880364342703
0.0122466909217426
0.00909661360643156
0.0184880387905086
0.0146204633767444
0.0148939632080846
0.00735828310484225
0.0143541326651003
0.00963348860332807
0.00876313425326695
0.0107133286023118
0.0157422883214823
0.0101408198427993
0.0152917525510337
0.0113895715288099
0.0199496998311678
0.00991478376165887
0.011203724205551
0.0101704060254323
0.010917762294891
0.0158978122503417
0.0113692607665207
0.0142780621394218
0.00637039108155223
0.00777174257430631
0.0151451278372526
0.00801591915531401
0.0152637185818666
0.0110033324236354
0.0206605411222642
0.0166712616388872
0.0136202206774385
0.00663254581529559
0.0126143643434382
0.00593957685459327
0.00535629288542754
0.0144848109251143
0.0111177577997955
0.00388076223642107
0.0122843807716726
0.0172231775950315
0.0100030067482412
0.00731873080109268
0.0174212644942126
0.00725536021611918
0.00922985512094303
0.008145028817016
0.0137498115662335
0.0136474979432872
0.0107470719498843
0.0117793299571798
0.0168845001416545
0.0101990821806882
0.007694118014345
0.00856689074619415
0.0154659687678192
0.00118389117258897
0.0229221704108343
0.000116945484507661
0.024405923836381
0.0129120677297315
0.00674630194605316
0.00871707662377967
0.00946226287245737
0.0126225494165935
0.0129573318007246
0.0128909729918209
0.00858753874340181
0.0102222304732494
0.0114785250909576
0.0114270009427881
0.00539703710988222
0.0122030580656041
0.0123668898361207
0.00988675699106812
0.01120155469288
0.0103010302338187
0.0093667729098694
0.00368871649065335
0.0192183544982042
0.00410841992720105
0.0100334101300219
0.00903237684043651
0.0114584928494682
0.00711164317603366
0.013268576656557
0.00343569147755163
0.014132621405365
0.0128502631959905
0.023310099080975
0.00496484097468412
0.0139694852373758
-0.0025425836348545
0.0098442847159172
0.0186859884974039
0.0128826452171454
0.0111593122805805
0.00964520952288795
0.0134572863081216
0.0143208763494245
0.00444678242427201
0.0133033656937535
0.0111187039393575
0.0115554806406833
0.00868022079086989
0.0144032313829653
0.0087405935190032
0.0200833752337335
0.0157360945337613
0.00485850855081586
0.0182381260070388
0.019630890838234
-0.00150742362605517
0.0274808246754172
0.00887375479605887
0.0201415391932175
-0.000888448803356693
0.0147464295149987
0.00573281487327865
0.0160347506088466
0.000481009913850335
0.0105600953254349
0.0143778588706462
0.0112266578319192
0.00114030798839689
0.00598019252915355
0.00924445648045267
0.00444133456502507
0.0187865281724109
0.0154503307309573
0.00750457314253629
0.0160417332254173
0.014894043224619
0.0126709946841248
0.00684145792501707
0.0208695002557655
0.00472092625951654
0.0154173663972551
0.00702031667617043
0.0190559709529955
0.0127966029426513
0.0146129292462707
0.0111710833450228
0.013578532535339
0.00513771703462946
0.0173256294314836
0.0112607978269111
0.0211179557113334
0.0103796497758039
0.0175483431534502
-0.0057611876622216
0.0160157189504839
0.00789420128740471
0.0103163299565646
0.00514152878308337
0.00995675699576875
0.0120918322908802
0.0179141235964587
0.00831360253660112
0.0115317241521704
-0.00133706809977281
0.0208682080658481
0.00290409417014457
0.0165200171167348
0.00663164388797873
0.018585407741844
0.00386025981852438
0.0259154971132931
0.00716138519074761
0.0139426235965004
0.00910519566106818
0.0140098611161361
0.0129532406537939
0.0119854905061285
0.00799507940132389
0.012651002471462
0.0109633935865633
0.0160374633355063
0.0118527991733727
0.017205597898586
0.00891979422023005
0.00716200530756606
0.00787231419862418
0.0150524515904358
0.00910545306810058
0.0147367025426539
0.0120667400029398
0.0134315822589283
0.00920799433723248
0.00838707261837954
0.00792721760886323
0.0213069139973675
0.0105498814050712
0.0143942546070496
0.00458605278318452
0.0114542656223487
0.0108569420613918
0.0194585737023574
0.0101253041252896
0.0181188469118012
0.0072840505271781
0.0218499629145847
0.00548181090272669
0.0161037140002482
0.00575990073550781
0.0246024633430767
0.0124656039999449
0.011936411717139
0.00941456589585471
0.0154311731143972
0.00424278347483801
0.0162271735346744
0.0124362405133874
0.0134219251720965
0.0115905399715952
0.0160573515646966
0.00612498828163318
0.0167378971216794
0.01367200082868
0.00807083444944791
0.0230628224211542
0.0142175385655039
0.00563089755596424
0.0294794224423189
0.00810841747071402
0.017014477785483
0.0113905827784048
0.00422580126089877
0.0214204091368042
0.0174881397003333
0.011957719201988
0.00667006229550494
0.0115708317568397
0.0150181203370409
0.0123095242292627
0.0104036868542592
0.00862667849026933
0.0192136041403741
0.0152997836144392
0.0279187061168682
-0.000169711838907262
0.0199888012348305
0.0122733473681723
0.0227110130343236
0.00960619609386183
0.0178454499057332
0.0159133332525262
0.0215954174896494
0.00909452184966564
0.014948149422858
0.0128912224349685
0.0120004989884112
0.0157677069136873
0.0174995622693241
0.0151297068800462
0.0143085578653607
0.016693239018798
0.0107889858873751
0.0106897896321788
0.0127720392774856
0.0189351642889713
0.0201057344941021
0.00918677477132616
0.0317056637735826
0.0193925776228332
0.0138862876146588
0.01212410565007
0.0140852500982819
0.0168736420908963
0.0171806725715464
0.0175093766466379
0.0126972513222139
0.013585694737763
0.0189852856542383
0.0229260099768407
0.0166578249508903
0.0165503178271509
0.0213136158197103
0.0169854068312678
0.0144490629520976
0.013005678551084
0.0168253731859363
0.0142020277096483
0.0192390079996858
0.0182808840452028
0.0184860197454934
0.014486794389114
0.013403076941607
0.0207681836756228
0.0209552326685904
0.0166361388459884
0.020756893532478
0.0177206459011303
0.0217308542756819
0.0172948243645277
0.0233360391169102
0.0200335494994993
0.0237055802563825
0.02002898582224
0.0207933779983475
0.0182266041878946
0.0291745566646539
0.0278655060609582
0.0349802660759653
0.0206380121784989
0.0339782299492242
0.0170205541449077
0.0331600411740089
0.0238834382655233
0.0278439577778633
0.0292471477348868
0.0255484945236866
0.0297038029297329
0.0285088115101118
0.0311787040192198
0.0274223114013655
0.0362802266701871
0.0332998598331904
0.035339848870367
0.0325823990759519
0.0321501296396978
0.0342297350130277
0.0276584093047602
0.0404607872942134
0.0342085179811542
0.0380136438609159
0.0382738577943436
0.0342976409192387
0.0506649657138229
0.043172965243662
0.0474867377923846
0.0434325335179862
0.0399445907905005
0.051612656371416
0.042880724051769
0.0542889469667257
0.042629894836614
0.0534971169836245
0.0460601320684593
0.0584629477105192
0.0578926135985364
0.0535983921775386
0.047571221283016
0.0559758888362277
0.0472470024537144
0.0593098982656498
0.0553986349689148
0.0724283670692032
0.0606155096631296
0.0645675760220973
0.0492905093111404
0.0739157373394267
0.06223296156551
0.0784493077389839
0.0603039928954664
0.0733120103180995
0.0665853048416823
0.0715485865295212
0.0756718775984501
0.0750246223445059
0.0776324873749915
0.0812658372909728
0.0847298445635491
0.0833252413009577
0.0809524524154694
0.0879089111646628
0.0800609003125769
0.0992991753106389
0.0917905830493986
0.0963896603282056
0.090331653466677
0.095966322490929
0.0867237308202355
0.100015790642792
0.101350469158405
0.101306105594913
0.0988904540309984
0.103431639292451
0.105724824475002
0.108649014766521
0.109962798702807
0.119946315548299
0.113956470948486
0.114479540594434
0.11491478101851
0.108826805360518
0.119298907072389
0.126606186789423
0.127827367389185
0.134779054412653
0.118884760765982
0.137445727366574
0.124959251851911
0.136630170745547
0.133752003378694
0.150902517122884
0.142221539584214
0.147666418807742
0.14478049597887
0.147357701258677
0.146184088881831
0.151279317445583
0.153201215230385
0.156669899395582
0.151252869866513
0.16891864480636
0.15607210887748
0.170152994266516
0.173557075169917
0.170313435831259
0.166183777745081
0.169785327226799
0.175390411386702
0.185317928616568
0.182315129429633
0.182386061378063
0.174669152150732
0.195843428671248
0.17485400265712
0.19697834794442
0.19529280720041
0.186475205851755
0.189012231683598
0.197698804597254
0.205037377656599
0.212358330051587
0.211748352134059
0.217293224429057
0.217131079112062
0.225977366604467
0.206109144793847
0.220869730440784
0.213622264343022
0.234249751719734
0.225563017251168
0.235663222596458
0.233360702843512
0.259033112478519
0.238839827888182
0.249269017943142
0.245275247764776
0.244832886657045
0.252662749221633
0.263438964039232
0.251702280054703
0.25263058737046
0.253585487151404
0.275062231530821
0.268706798107648
0.277931037491291
0.275037464195696
0.289368122320154
0.274258998898653
0.276181292182762
0.274677020816438
0.294466000484456
0.286729039748434
0.300667287492169
0.290528784496736
0.303625901025756
0.289980949340132
0.322285965655411
0.317223649638297
0.323452359757733
0.309125223457963
0.316136755469021
0.314790947975773
0.320139813872538
0.328271612326233
0.336175631403149
0.324681495106045
0.3358334535768
0.341929071706404
0.350620776678226
0.330269620909268
0.342248923544886
0.351368486605541
0.360138845276083
0.343987623394838
0.361303374806946
0.365503139695247
0.370986598762803
0.353289291315478
0.367630628166234
0.377474915831131
0.382096194728215
0.374678322187222
0.386833487482728
0.370881702973511
0.394832229115475
0.376191870034411
0.392053913140818
0.379229479403405
0.40461212876645
0.412180133408362
0.408837622903407
0.404348686512804
0.413109003380206
0.423919272541473
0.439871361528818
0.41987089927645
0.440894310491908
0.432822402555171
0.435165426531063
0.430821186240223
0.463551885318495
0.429135625998873
0.444972401944495
0.435272517075851
0.445160587883659
0.44839435436116
0.460891155732873
0.446342851198936
0.44599935615306
0.449543554793716
0.483379754504311
0.478961563454277
0.475935502492666
0.46087330080974
0.47398735080129
0.479096158457682
0.500363214084296
0.487651563607852
0.497946174868348
0.493476516593055
0.498786233781544
0.486206246506403
0.536112602809769
0.501396351203441
0.520322735798439
0.516211147951583
0.524742819712427
0.515403808720675
0.516206220678656
0.527029782294099
0.548040797259157
0.527055456394936
0.539569540015372
0.526224623905918
0.533088281250281
0.522058557762304
0.549468781142376
0.557467585988813
0.548649166812397
0.541755870407986
0.559351852841471
0.555926280047676
0.565828642598146
0.545591283003867
0.584891509861511
0.554367221480666
0.569349168790183
0.577020728139266
0.596225607820975
0.561837582845974
0.609520142052625
0.571956924230288
0.564865056021099
0.55116547591169
0.586468539803204
0.585644453999134
0.619301540293315
0.604487515785769
0.625225994748213
0.577584288683507
0.578698088925994
0.605257961288991
0.643973782264808
0.618223871015423
0.628706858896868
0.612885921052955
0.653085361370013
0.637841279145415
0.639034229029082
0.629639214241715
0.643753929189665
0.608979386882383
0.67243441663143
0.653399962628266
0.64214276988308
0.606459045430575
0.652151485681035
0.631701057783625
0.633633239466855
0.66066628811054
0.690173387542484
0.640054425605513
0.641949595343026
0.663418227561319
0.653576589344338
0.620749392036523
0.684364558401927
0.657590335777299
0.673416915718619
0.64465980446277
0.63817330531538
0.666340304396404
0.698693007929512
0.684374615352912
0.697231115160141
0.671321133783689
0.720172771446507
0.684368525105092
0.683005242188494
0.665363700418631
0.680234115794856
0.670701815698999
0.686546101081947
0.690393380701478
0.716518770396942
0.705585705239859
0.699430278274112
0.699086439752667
0.707386910780207
0.719961320562792
0.756231734373123
0.72101548749276
0.729409390976641
0.687208200536363
0.690743858468029
0.698557049847768
0.744955614899625
0.713694259228508
0.729563670462504
0.733451872062449
0.73628449464315
0.73353463364245
0.752308601332988
0.721981954488238
0.732607752399901
0.71648043302656
0.745735481738286
0.720040507145847
0.761631552124193
0.760586640617756
0.7683695040486
0.720061915086924
0.738202998092904
0.742882985170681
0.759768789316311
0.734752909917629
0.740993009403486
0.712914535775349
0.748300692909815
0.742239276763967
0.760016733098244
0.731953385013853
0.770104495720471
0.752862787206227
0.763933139835903
0.725396543144568
0.755738342846829
0.753876730685428
0.770318434045652
0.756660788320737
0.787693302644959
0.755364756617319
0.76590321058517
0.725006232674664
0.756173372853689
0.779036121294004
0.770826087633138
0.743748115334316
0.764244290878571
0.749601230039898
0.791535659609864
0.776791399441056
0.769349402590445
0.754567685630782
0.759664991716751
0.726664739886827
0.808906841841228
0.75465906609992
0.770824570848182
0.746440700446223
0.786778743440412
0.757166566889353
0.740278100148414
0.754431619618823
0.780595913045052
0.765077540689189
0.790679996860614
0.762935877950547
0.810725535196345
0.75437932531888
0.7591391962698
0.762031016584484
0.780885582036532
0.746832667695043
0.773468526699001
0.767918564156471
0.778375311904329
0.74068636240391
0.776341807237782
0.724667609636358
0.748085954005914
0.752169433033311
0.781639604184037
0.785212446585642
0.778836842587804
0.729000216126282
0.783035169102939
0.771183540607691
0.805219172627569
0.769981121158669
0.750002737652707
0.750866924626387
0.794413424229633
0.747313109337349
0.768102406708908
0.769622589099348
0.806305926085949
0.744015275233747
0.732759844135743
0.733679178204853
0.794783846404307
0.761366075770116
0.770319774571984
0.751161387517045
0.762606264736964
0.753972113684384
0.737849680531524
0.758425672024638
0.789794272521276
0.736481211166999
0.770283660856085
0.742557162109445
0.773404915482287
0.759679517287987
0.750577732428154
0.737805898318162
0.762390974406144
0.741657292336968
0.742118135305983
0.738594712975051
0.760597812441302
0.726094173185017
0.745572490635065
0.723826041093182
0.758036867068631
0.72565943109939
0.748175148275442
0.732415107346371
0.728965934078049
0.748878991288529
0.745443589031259
0.726044614680873
0.737663387312934
0.729124679736817
0.756851630036324
0.72869070239936
0.724798113180301
0.719383236274108
0.741416014050992
0.723096863155714
0.732902147903491
0.710272562314928
0.713347216973264
0.708278224636457
0.718067840416828
0.690689188432093
0.71880621853295
0.708845610077586
0.730028609577102
0.705649014221632
0.709729130728513
0.685970721258633
0.701431289541873
0.682071136659409
0.712581786155043
0.699619033730921
0.705454369692488
0.689861029038529
0.694403170237579
0.669316714190118
0.704906773535601
0.672792231335715
0.722997807916916
0.673590076115498
0.668568778234758
0.68058062935795
0.689521854484913
0.671858134484858
0.684313096302442
0.674056407979432
0.685056277355089
0.661286761893815
0.679805115082588
0.671570680801158
0.673077714726359
0.642201068965186
0.657777463691037
0.646699962917335
0.665075131341668
0.65378759323117
0.656230091043619
0.662526573890704
0.659405176816553
0.638918052731113
0.656003073909625
0.634879499459239
0.665814697799937
0.631869634961274
0.634160370735549
0.649709357496286
0.6287899237219
0.630445511204091
0.624169857359947
0.61229291819786
0.636394252259532
0.611276618346729
0.641739939654755
0.619180634913911
0.631762883803556
0.612815056899472
0.613281200700999
0.614626472850663
0.602650280106102
0.588948593956374
0.594648760789622
0.584361364651365
0.603904454161833
0.579422962050155
0.591225105314425
0.592631396266473
0.589213039005058
0.571986383155308
0.582937125307767
0.562735378604103
0.576755604887206
0.562987141660681
0.568429176311759
0.555541872386327
0.567596419447023
0.546636670327553
0.566752324317662
0.538077473645116
0.543712630570413
0.542020668356982
0.548451012179699
0.542193936794715
0.549235181543525
0.539575102814172
0.543337346998641
0.530532185778949
0.533932870635191
0.524741270385381
0.527306000143241
0.503730692984329
0.522412569365155
0.527106698150712
0.518248851025583
0.510098969218661
0.514682716399723
0.496547898518813
0.500068167967023
0.487838268447167
0.500284405947825
0.483145736585426
0.488476380085752
0.482814835155303
0.488738942879125
0.477566601982936
0.486758191921509
0.480453144950391
0.479760245643994
0.462242857725347
0.474366636764572
0.472226418693405
0.472050608565827
0.45192701406679
0.461518835355455
0.459798625303895
0.461648080203315
0.455816142125861
0.452684585559759
0.442847072852696
0.448350265982547
0.440747641217279
0.445285468692061
0.442361601845145
0.438833406967385
0.430769344228418
0.437438623240101
0.416801463429037
0.422949346157997
0.420290964405421
0.421584875120536
0.418390947811981
0.42027768087978
0.412313577397778
0.408439135798566
0.409047290696906
0.405430536422654
0.394816518739437
0.405515663433784
0.395909676127766
0.396079002052423
0.38183917044929
0.396265771991343
0.383838943770617
0.382725129278851
0.37899467968315
0.386648525395659
0.38383007844334
0.382205047599623
0.374290323493939
0.374852480462962
0.364740829320241
0.370673831733318
0.368836771242755
0.372328034122876
0.35847123371647
0.358302467252878
0.357554920933513
0.361127314028203
0.347170567272121
0.347301037127524
0.344625153314
0.351479374458887
0.344883651750833
0.34447422581154
0.336224063075773
0.339787339126845
0.33288584155949
0.333547246670368
0.33461890507931
0.33597516851556
0.32932427506448
0.332524843282938
0.315059307057985
0.322058009964113
0.317774638603102
0.319716331054749
0.322917587700513
0.323806122177437
0.312005446312098
0.320823520585784
0.313469081905368
0.311459186806461
0.30251836909892
0.307544628570482
0.296055263800536
0.309410850738796
0.30172095854701
0.298847167942153
0.297540972707869
0.292255720874359
0.289749989571044
0.28897113574547
0.280000365632287
0.287643628632893
0.282358658857021
0.278769391085691
0.278449935442973
0.282334173629467
0.276259185946108
0.282209876867541
0.271321386209472
0.273485405609255
0.269038774932045
0.269678196949082
0.266189809202483
0.270602724825812
0.261369917055864
0.259038401878459
0.2578786422048
0.257429660160546
0.24894128719977
0.256390152954893
0.257266307718132
0.260226334779729
0.251721064826402
0.252814675588887
0.247437428151652
0.24369308596693
0.243196864322387
0.237232585398247
0.238714071133406
0.241082572735061
0.236463444211411
0.236430950629346
0.232887912084716
0.240203250866891
0.231718711044174
0.227251968005552
0.227292108950282
0.230763027525631
0.225121855730551
0.226064001416639
0.224024994859441
0.224146309532189
0.218025346914756
0.22013959668555
0.22031309517513
0.219241587009413
0.213319840440348
0.213981814481333
0.210711116214143
0.210446021336715
0.20973331314332
0.210244684069574
0.208125548378108
0.20644444168044
0.204050380505094
0.205811799230437
0.200643970038748
0.202522867962905
0.200721581835024
0.201666134729507
0.198422457283972
0.194600580467812
0.187157199277685
0.19500286314331
0.194822390970434
0.195195049883921
0.192290849873685
0.193349150074136
0.186999638443016
0.188000187977079
0.187990123441546
0.191904149704759
0.187409412667787
0.188883840068189
0.182544309333494
0.187963135783186
0.182529681934509
0.185252850975267
0.182936315727429
0.184341215848786
0.176529425246144
0.179787022453954
0.181100250021245
0.181237354995307
0.180134147285895
0.189027322426348
0.184974776028345
0.181353596461411
0.178467839754372
0.182308722471836
0.182404207438595
0.189056354661505
0.185031566726712
0.184200562828197
0.180893466555298
0.188764214099462
0.184001371399123
0.18967717774832
0.190697339713185
0.18491926871488
0.183299371082598
0.192045817395948
0.186020185237237
0.195496024356592
0.191134984940745
0.193862841395193
0.197442850892229
0.200780524354228
0.200661372429352
0.197614740970237
0.195935756893389
0.20627889075972
0.198401194198901
0.200898947251974
0.203000724898595
0.204433784568065
0.204687336701236
0.208742975334743
0.204615903104279
0.209065215009392
0.214814034875275
0.222682813339371
0.216007932375698
0.220431276740728
0.223379930323162
0.220822102670316
0.215625998620407
0.22361594811957
0.224694919236328
0.22732954775639
0.224220270338132
0.232360103431487
0.226845284205251
0.235649648908441
0.23252410966028
0.236298829982219
0.241418466633111
0.245284735786454
0.243800794898099
0.250472910227141
0.244921033364046
0.249628021550206
0.249959791179929
0.253081192577375
0.253475942174551
0.257084218993166
0.249538761757845
0.267560451959581
0.260303484663297
0.261195102621065
0.262060757653644
0.262619475735679
0.266594257363208
0.272194587274795
0.272980638475238
0.269826216436791
0.265946845999011
0.268014745561417
0.268846499366488
0.268318851123615
0.259776425666022
0.263354573023899
0.269359008674818
0.267428115828021
0.264639607219539
0.263199342728531
0.265902547589813
0.270464596724267
0.257363997319608
0.257791066156806
0.255959599949836
0.262022908836094
0.255507109078688
0.260291053443769
0.261568889725945
0.259396873937422
0.254587740263848
0.262348321240709
0.254750856640264
0.257805302204028
0.259446155585455
0.259428114920243
0.257887308964212
0.258253198184612
0.256190771719316
0.262345728473307
0.259362213730686
0.26297592960782
0.255492721044151
0.257215035226918
0.261323482154969
0.261935906313694
0.253683669237558
0.261689903435735
0.257888458307497
0.251464707886032
0.256147763450804
0.258818579764585
0.253998113230748
0.258775596576714
0.257181480159915
0.255540739321924
0.251811228186392
0.256526692059295
0.256889016656887
0.259321699855534
0.252809865210982
0.250846046809382
0.248333086924761
0.250049462805816
0.247971757132501
0.255662155584961
0.246180532694609
0.247923254839346
0.24089987810784
0.244908231375904
0.242545630763215
0.239846018560528
0.237549584329497
0.232456146926811
0.231951872956063
0.231332713234578
0.227494907941544
0.226538342021553
0.220886767075928
0.223005951509265
0.218582757507197
0.226631020974645
0.216291685082473
0.220415453539616
0.217750378740389
0.217323723428615
0.213214780670329
0.211157128606116
0.208038230310437
0.203740423711374
0.199147948811825
0.200038345357161
0.200786491700192
0.199794450163938
0.198575799921699
0.195472904025508
0.186119672665668
0.191389458754849
0.182917610204511
0.187372599297345
0.18152572908126
0.176473393742752
0.182187880713458
0.182339142547727
0.177797514690561
0.178714352097449
0.168811606449741
0.167936130057022
0.168680199823999
0.171439222023621
0.167406545005173
0.167664701552863
0.164634364337625
0.162021665120651
0.162007512719068
0.163306822032691
0.160218719993579
0.163380794256368
0.160161467657023
0.156542407470116
0.156456288404331
0.15465389453491
0.153044384601708
0.152759831613814
0.152298664372311
0.151657888904281
0.147023577921559
0.149893034675568
0.150852720310151
0.151052730604893
0.149519562936555
0.148891615034429
0.146273298504136
0.143172643480901
0.139092388768906
0.144553726287874
0.142173324740648
0.142794535505757
0.138163362583362
0.142839115979901
0.139851732056782
0.142160383437327
0.136405018907485
0.136684897645432
0.134771652966696
0.135987733491382
0.13642227171345
0.135154936762047
0.132621276966483
0.133255591997228
0.132399812721422
0.134185674536011
0.127820750334045
0.135636123073565
0.131850448879153
0.131608100769328
0.1291599574121
0.129788341753036
0.128318568046057
0.127234130597748
0.127013702992546
0.126969168228216
0.125112965761561
0.125698621932415
0.126517248165136
0.124405723191014
0.119534160576273
0.121567036827758
0.116713205799199
0.123289946203591
0.120623560802699
0.120728474517308
0.119047947212884
0.123286812523906
0.121830136719268
0.123164133608762
0.119751416805648
0.116469974208539
0.118742485249327
0.117399051253621
0.117107651392796
0.117446926551648
0.11407050874406
0.116046580294532
0.115698334509772
0.114190057581258
0.114624966814476
0.117286908200145
0.114510389828992
0.112243953372879
0.115361369829514
0.119038347976397
0.108639213223207
0.113920837420253
0.112652583406543
0.111083940784183
0.108981446681224
0.107712606839142
0.10896028174542
0.113145386588705
0.108314132231765
0.111865469312501
0.113195363290815
0.111208735614856
0.107615510619308
0.110386431593848
0.107388679929816
0.10745007639474
0.108314458958225
0.110554201688881
0.109707865788418
0.107246163566367
0.105838099392183
0.106924599670512
0.102537940154862
0.104847898507141
0.105460370925135
0.106466675682846
0.10938357255866
0.110558609080795
0.105742940868991
0.107028560446483
0.102879337444927
0.107047404901606
0.102742121472681
0.104177174874084
0.0988905316934534
0.106998730897046
0.104111700796309
0.101491966714595
0.102943034176385
0.104467609578533
0.104103347105896
0.106528615446568
0.100758609949465
0.102946206003584
0.0993874740628457
0.100503345328094
0.0989799868881377
0.0977393950815862
0.0976514223060708
0.10484889635541
0.100122135773822
0.0995862737631464
0.0963214300304259
0.0994267023801977
0.100877689304305
0.0988722842342933
0.0967665407006915
0.0970177218426508
0.0952314845985902
0.0970910762106328
0.0941522215456952
0.0956203877051598
0.0984242948187213
0.0953309808813556
0.0937910989636392
0.0973556062395853
0.0926566912745418
0.0958002375008873
0.0922901181186881
0.0952076637809073
0.0908376850440365
0.0962630677187404
0.0953819113390144
0.0958521511569613
0.0901271748877472
0.0906265141730491
0.0906639262356997
0.0892865098622387
0.0908409276725873
0.0897517471797918
0.087242999924795
0.0920692172885359
0.088086825627969
0.084521764730405
0.0890195566801188
0.0921233139955857
0.0874960855891527
0.0892919307231785
0.0889010370835207
0.0863165372636929
0.0863558612416816
0.086051163145012
0.0854825356033979
0.0852504010618298
0.082380046625758
0.0817267927369601
0.0842601702795325
0.083769080035249
0.0824318072330391
0.0833301164355991
0.0808714601645593
0.0814597224193934
0.0784848669799324
0.0811202663144198
0.0800087800095952
0.0819557424232442
0.0838686101132769
0.0797270362844516
0.0782022960119257
0.0784712820735098
0.0789071360369454
0.0775261248057172
0.0766433429658397
0.077186427706773
0.0761616599827507
0.0765217115113919
0.0770593186772681
0.0779308010838421
0.074703226659286
0.0749092171518452
0.0701625449078313
0.07127945387009
0.071238318545665
0.0740988936364973
0.0711308635494337
0.0716121445797694
0.069141718067771
0.0712138411106742
0.0715144626214031
0.0698123652022112
0.0673648677847224
0.0696926169751304
0.0663842926072089
0.0672224631425181
0.0652315281591719
0.0701780923934588
0.0687676466417528
0.066763691949859
0.0666139861098182
0.0671791434635355
0.0672468388640692
0.0647527387780145
0.0629532581109881
0.0664624201182152
0.064007625749613
0.0679869218724469
0.0594230298982814
0.0622204996311911
0.0655253300171814
0.0649074406311077
0.0628034273011562
0.0670683834566354
0.0652467615247105
0.0660078429333564
0.0600921076295
0.0602533110303514
0.0616537838486167
0.0592547642512515
0.0590401259857746
0.0592667907797778
0.0596158922336998
0.060242895850624
0.0591865569575213
0.0599551528608698
0.0596355892846413
0.0603793737577067
0.0545457293331646
0.0572706048164896
0.056941769789346
0.0561248400524974
0.0572528863624136
0.0573061130979685
0.0542941877225954
0.056054794492307
0.0573570591041711
0.0566683268298183
0.0557886662800226
0.0554424030088559
0.0570183315443869
0.0580680806346627
0.0528720453287972
0.0544025588104115
0.0546102627299638
0.0549108791428762
0.0541689708906064
0.0548246905596937
0.0538869252607489
0.0546510737815961
0.0538950371681617
0.0524411801321829
0.0517534229615877
0.0547005391857435
0.0529881342884981
0.0549846366332086
0.0513284447640969
0.0515706061506982
0.0509060940970256
0.0534772521349432
0.0535420640882164
0.0514114683596182
0.0514672458391124
0.051336677216173
0.0505625400109137
0.0525363484321924
0.0519073513299305
0.0510653254540019
0.0513833097451464
0.0501864731994833
0.0499437181276135
0.0531543058372733
0.0526247959552962
0.0503816507293076
0.0478639687576106
0.050806369681399
0.049988495548396
0.0509425329593508
0.0504398205267197
0.0509534519500006
0.0490259420962241
0.0462183014390441
0.04832107343396
0.0480602532848739
0.0470740133716961
0.0471862741477226
0.0488500991077136
0.047786422866773
0.0475550283165637
0.0469026450884139
0.0476183698178875
0.0493927258690548
0.0456318217350183
0.0489201419768703
0.0465699522314169
0.0486805256350639
0.0479294265478545
0.0445926832215276
0.0467380786581371
0.0458201313659153
0.0419508890926598
0.0445501448801713
0.0471892271606469
0.0475324420017281
0.0445877684164358
0.0442436286606492
0.0455720654657938
0.0472987181038691
0.0437767712031327
0.0472179882112935
0.0464728518764364
0.045851258674448
0.0455626338805942
0.0456924081039229
0.0457955755852757
0.043922997335063
0.0443024737361475
0.0454383882091545
0.0434371482840715
0.0441083192678786
0.0404628881926711
0.0424357288749556
0.0423340857639958
0.0405112234821054
0.0432599049311208
0.0444944043720182
0.0448589158304234
0.0424158687329687
0.0435440892491271
0.0431731324894857
0.041023956446889
0.0419773561128708
0.043741766157663
0.0430625932234694
0.0424176505499555
0.0410251007041972
0.0429542128602403
0.0425483490641474
0.0429799204264381
0.0400966793686547
0.0407635198769316
0.039608110745393
0.0403492830591692
0.0408489936837183
0.041270707583874
0.0393071990512832
0.0398367130664513
0.0394593518772314
0.0382685538053782
0.0369247632845066
0.0390287533549683
0.0413369830228134
0.0422904873880065
0.0416533367229175
0.039198578081749
0.0388413088128062
0.0366805169232374
0.0388917940481967
0.0408603655814718
0.0384743563819767
0.0373733593934122
0.0390394777327656
0.040269522998752
0.0382273754372853
0.0350399963509847
0.0392418011461771
0.0351098106503598
0.0369483355464224
0.0373592449539282
0.0370368038683329
0.0373681032276585
0.0390465260483117
0.0369733401752487
0.0368744260517826
0.0337832991824827
0.0357178080457585
0.0356973819655963
0.034354025065217
0.0363913106604513
0.0348208142872369
0.0360371906196615
0.0382238115326958
0.0360106401344849
0.0366479619656252
0.0353184399662957
0.0334633555691614
0.0330069086755534
0.0341692772452565
0.0311963840986538
0.0358879073289747
0.0320266327714222
0.0349012241803189
0.0333617846837133
0.0312985753862839
0.0317199697632787
0.0322862336224488
0.0330082228097569
0.0322594298583052
0.0339611551595984
0.0316314454320275
0.0334062749463323
0.033297669874817
0.0304881559218471
0.033428216286801
0.0323942515692987
0.0303287932985361
0.0312034524717518
0.032461046788208
0.0310733285759076
0.0298007974979223
0.0319160151930291
0.0310648591066496
0.029706335941681
0.0296325455957327
0.0313515676883847
0.030414710446965
0.0295516516017212
0.0302939829885
0.0308242904160991
0.0297254952093049
0.0319497285206991
0.0311370040982341
0.0305202014522
0.0275768049130346
0.0280055554326505
0.0286608851242084
0.0282894771897078
0.0277733702133188
0.0281822444304572
0.0298214317588787
0.027555895301125
0.030017020708277
0.0289804082400236
0.0263111196116975
0.0287143872006873
0.0278489297585462
0.0277599241953554
0.0273033071258647
0.0263189821316769
0.0271621834497584
0.0307454233536545
0.0271018354844378
0.0267192966411997
0.0286541976145446
0.0269601358975905
0.0251178605288784
0.0256266702645958
0.0278418707503328
0.0248856772098119
0.02562237620048
0.0279637869781452
0.0255728072245452
0.0260233309713893
0.0254034965398799
0.0259850211100035
0.0252045879623812
0.0257809279274367
0.0262281060550041
0.0261668877807531
0.0260189499697609
0.0248917814462494
0.0245596895525434
0.0252931266804016
0.0245932968770236
0.0239148500476717
0.0288313742117007
0.0271927136202221
0.0263768591810784
0.0274074948117465
0.0262044249841196
0.0234268057486787
0.0237754347805611
0.0265007215254365
0.0237002627181872
0.0247857154857571
0.0212707755176552
0.0249122544414939
0.0242340106141049
0.0228855148870087
0.0230659775104075
0.0265807421831825
0.0272674180074463
0.0242103750101782
0.0211944573822033
0.0275826641226527
0.0269133791550537
0.0214969342615986
0.0261637908453635
0.0237755532915533
0.0232892028881425
0.0233092589702067
0.0211354398181753
0.0242656539459538
0.0231714521104443
0.0247804670376102
0.0247562327908001
0.0256397691936357
0.0234075817706608
0.0260980681354474
0.0225883503391296
0.025107668773103
0.0237315886994958
0.0255474456026223
0.0232363900568161
0.0252923029656043
0.0209115469170882
0.0235489884721757
0.0227523663616337
0.0277436298883879
0.019824991472885
0.0269832728585229
0.0180336778061188
0.0252388536405931
0.0176968514469631
0.0257312668302318
0.0182504657355659
0.0278001973306138
0.0170863702271324
0.0323755510449957
0.0192785146750712
0.0282957206244546
0.013778394749021
0.0306716376750671
0.0158708257130749
0.0332457403770354
0.0155822398144733
0.0302466323201578
0.0126005023820272
0.0340900997177276
0.0181543071681011
0.0289530370303556
0.0193034224396692
0.0295179517144856
0.0207673990779143
0.0247213365390648
0.022403991165058
0.0189396944719978
0.0250522837280707
0.017936645182149
0.0260497252082643
0.0186333369582316
0.0323530013103848
0.0193169826081478
0.0270478152496742
0.0174656194380181
0.0256956201537246
0.0214019505596118
0.0236427712093253
0.023579511721274
0.0201623838009787
0.0223431127013417
0.0228472586393141
0.0232476930087868
0.0240339947782193
0.0208296767753513
0.0208067529498003
0.019945229184881
0.0262004885321853
0.0210000900575071
0.0218779083308626
0.0215912936757592
0.0214396159980803
0.0213455074601176
0.0222167103591175
0.021260653795203
0.0234882998975255
0.0228724837942886
0.0233118077701956
0.021080303692935
0.0228571265261924
0.0215387395630165
0.0221416030556685
0.0210237150979535
0.024707185772409
0.0223802656427124
0.021630180556072
0.0227682564945311
0.0240879209948679
0.0215115793068021
0.0230166227648819
0.0234775909436548
0.0254059832398553
0.022531955337054
0.023559537889334
0.0221512885233185
0.0225821562799167
0.0227897165477895
0.023429527531594
0.0241887867835082
0.0237960662882115
0.0199553466109056
0.0226484490766393
0.022754393321836
0.0234295288005012
0.0204355066121612
0.0228817092991186
0.021456691327969
0.0228964113684235
0.021756402509153
0.0229350578222469
0.0220664242099023
0.0234554916101449
0.0235915777318077
0.0243026793367047
0.0240922551897399
0.0253189579680975
0.0235943790158384
0.0243682101544277
0.024480613553875
0.0234999975362646
0.0222935443716294
0.0248941275217989
0.0227834072443729
0.0250698475978286
0.0237986526675248
0.0223503565059889
0.0232149342758704
0.0243213051808905
0.0213889223200868
0.0229890178380276
0.022257328011586
0.0243744150119895
0.0245083277826464
0.0245226992892142
0.0242329379011296
0.0258294889539886
0.0245870887529634
0.0253531436236115
0.0239586330847845
0.0255543156094392
0.0243462920959207
0.024880285040676
0.0248519492644249
0.0265636490566044
0.0247132555615215
0.0228190420590675
0.0230362729274349
0.025330100134048
0.0226766075753512
0.0251261335921539
0.0248769687135979
0.0257716888687205
0.0230854184793123
0.0237039604734111
0.0225693386007998
0.0236450974730887
0.0257383851008814
0.0262174790508708
0.0257422110379721
0.0261432295037873
0.0237074507765729
0.0245953791925274
0.0254138757992464
0.0263007310214538
0.0245160398240874
0.0265666544590819
0.0257040071517007
0.0259139565991173
0.026249027883193
0.0263422055299662
0.0254890679868713
0.0269932341229542
0.0250059603195827
0.0232622728906603
0.0245279043523838
0.0266766814745327
0.0274048224406477
0.0266501219482935
0.0267614204296103
0.026607073887878
0.0241969292748103
0.0261368628275224
0.0252934612603872
0.0258410840273182
0.0266216981882394
0.0250350035955041
0.0241432797496326
0.0253934959579973
0.0272795137811469
0.0267339595241071
0.024377390642612
0.0266560809231054
0.0244908146449478
0.0266090382301896
0.0248332004704255
0.0298903244684358
0.025777776076589
0.0265998570234936
0.0286990807398434
0.0253419586622507
0.0250232183733257
0.0273418497974059
0.0265549618777853
0.0295521756419719
0.0257235243699668
0.0284403497695688
0.0269850803144682
0.02927131097257
0.0258758180632949
0.028415713428627
0.0271068311086773
0.0270762615573657
0.0283809906210687
0.0285043035018043
0.0274196045592077
0.0262819428629166
0.02763537496353
0.0258862028316355
0.0258473569209868
0.0291069058894121
0.0290363946554901
0.028779786315771
0.0280640850669583
0.0268044412733839
0.025884572013306
0.0286561048483236
0.0283115255204069
0.0279088946536358
0.028894804176071
0.0275915782174035
0.0261170282956587
0.0274502310140531
0.0282805102643711
0.0278248860978844
0.0263308650202519
0.0274796595874723
0.0276089997327365
0.0260584067200004
0.0252670101625823
0.0276730300752005
0.0249559754784037
0.026763616425824
0.0254095658885261
0.0269665947844343
0.0286405361985772
0.0271554812451157
0.0268390081119165
0.0262429386116669
0.0254951704373692
0.0285305068741012
0.026463201851754
0.0248437433108795
0.0264393457580336
0.0279823662438562
0.0253831444223192
0.0266066688953785
0.0257871963151755
0.0265808972683105
0.0289479228966092
0.0270323967094381
0.0272003536686044
0.0242810559669392
0.0264500245642265
0.028572453719137
0.0250585647890296
0.0276725406651249
0.0249619985134595
0.0265250063771522
0.0282214397818471
0.0268737718149102
0.0249667942653238
0.0258314093500293
0.024652651673795
0.0258095205958366
0.0249876425085541
0.0268609475300354
0.0267249790161681
0.0241191818355245
0.0229927669171931
0.0281463611121691
0.0251234431730063
0.0258554730758083
0.0261994742405847
0.0247813488525069
0.0241366205807536
0.0227535091875156
0.0260378267119798
0.0257166737959399
0.0244462465596881
0.0235154574058916
0.026111498699019
0.0283614422470945
0.0245532888408662
0.0248034289921827
0.0268517652172797
0.0264900566650914
0.0256986291525519
0.026840655605365
0.023214857486736
0.0241328472125415
0.0275143779047572
0.0256790210084292
0.0265073692220516
0.0258422691512878
0.0254457543899205
0.024372702610928
0.0241633142096576
0.0243828314969344
0.0240346133087462
0.025439226123676
0.0234810091780735
0.0247454709854461
0.0248566121933375
0.025379238471342
0.0243272618593886
0.0231363267253229
0.0243603525937167
0.0264421323049985
0.0244508528624965
0.0250186925195642
0.0250923902836371
0.0244226358560647
0.0243127190701771
0.0258743737877048
0.0245734357864871
0.02457346388739
0.0234285451725652
0.0242727143019471
0.0254705432196572
0.025059294194927
0.02448290609781
0.0244021262890328
0.0239090403896703
0.0240539741222662
0.0224308353815867
0.0265021965110846
0.024185906909968
0.0232159651679734
0.0217010953449754
0.0243270996832823
0.0238039583093093
0.0249173616017621
0.0224735276071319
0.0231163533853109
0.0236259196105278
0.024488599243167
0.0232284808880995
0.0255897151434348
0.0224668977410209
0.0235771006861352
0.0228442560888878
0.0245011757361581
0.0247024978821712
0.0242398794461773
0.0230838864055225
0.0226258843891317
0.0242791515575961
0.0239835658083416
0.0222432553249747
0.0235547210764694
0.0220918442042108
0.019779509022258
0.0227914189739059
0.0234014321236398
0.0209205140930168
0.0223014768757499
0.0216269667356759
0.0241779916532017
0.021213993745974
0.0243885073487269
0.0234539245641535
0.0224938111702749
0.0211467340122567
0.0207514535873271
0.0184423513646334
0.0205434792934986
0.0198460346467822
0.0218409355418635
0.0198549179336309
0.0217029851241403
0.0198078781238314
0.0200304626118195
0.0202905140940732
0.0202875496976561
0.0217114270191148
0.0208890270624317
0.018140291386482
0.0208794394220955
0.0232381983759231
0.0215823886303432
0.0196225361803473
0.0217766328237081
0.0204457074688211
0.0210583958574414
0.0224425629512085
0.0216534274347445
0.0206854669728991
0.0202352319554697
0.0203503910799486
0.0191590799659521
0.0182990717792846
0.0198861063621327
0.0210444513516717
0.0199945971025249
0.0213115457473959
0.0206778305555476
0.0198107547090756
0.0208145229213147
0.0206399792651586
0.0201121429901082
0.0182722877901939
0.0204672375425041
0.0198084170248746
0.019128936949919
0.0210066517248893
0.02187357443032
0.0214784836238199
0.0211396016610834
0.0208704759244592
0.0194951582097443
0.0201633825502511
0.0208368726943022
0.0174933332591988
0.0186873982030603
0.0198635122212918
0.0214026693481743
0.0200571751360629
0.0211951611896301
0.0186682955227038
0.0200371525351397
0.0194356661547149
0.0188390356983697
0.0198166406885286
0.0198685131167111
0.0210255693589976
0.0199928346771183
0.0180584321448867
0.018148360803528
0.0190415009336192
0.0176863287548154
0.0176439378198089
0.016506805315857
0.0177365610722594
0.0186443787767765
0.0209801928256451
0.0180928987011352
0.0189198881686263
0.0210010002968718
0.0188382246402234
0.0170952765702965
0.0193444547246811
0.0203127391776503
0.0172789483595964
0.0198175128919312
0.0180118504712352
0.017194523148724
0.0186600922986413
0.0200876310002578
0.0194074992481516
0.0195917261222736
0.0175405355934558
0.0194132990077407
0.0183146353288471
0.0204107163596818
0.0188909945958846
0.0163813075094266
0.0160170849916355
0.0193460653234759
0.0182158023619696
0.0189262997322898
0.0175740941718958
0.0195176437051882
0.0154847276834909
0.0247290221978917
0.0175139625428076
0.0194019258897471
0.0185520045287407
0.0177680690027669
0.0188154372681579
0.0201076988163183
0.018136215874987
0.0190535174233314
0.0167223054401299
0.0182159522375614
0.0197750376456489
0.0180198475080269
0.018009285797329
0.0169202377787677
0.0183867685086137
0.0201117650988928
0.0180116539158398
0.0189652588427193
0.0189339222272516
0.0199333631612753
0.0156999029974516
0.0181576257086165
0.0163485051652102
0.0200325653937383
0.0190883681909847
0.0180185443344615
0.0172343887035832
0.0206956887915015
0.0179372912346782
0.0206389049238138
0.0172410989227077
0.0181117313477339
0.0196612902992385
0.0168769395653713
0.0191797148325505
0.0187222489738134
0.0170237042761566
0.0176626220244761
0.0193608817343488
0.0192454418398431
0.0183851921032048
0.0176680447421802
0.0193080153947547
0.0187213683981441
0.0194912861382895
0.0198849948215174
0.0177535736498242
0.0166536344082571
0.0168663452932654
0.0190457933191147
0.0176178639760843
0.0238789153409933
0.0191070256450847
0.0208391924666397
0.016588251125219
0.0188585661080818
0.0193058883498983
0.0165242137665652
0.0191552786832969
0.0203793118443846
0.02059973430599
0.0187015402483369
0.0191696569143828
0.0181310057450279
0.0190803135485872
0.0195144001602963
0.0182894835067859
0.0186714937356854
0.0184726074615137
0.0178641250320345
0.0185217498722377
0.0197182992884829
0.0214564261704951
0.0189551527490338
0.0210309285325787
0.0195668127032756
0.0212405394443202
0.0150501379383348
0.0254679231145625
0.0182093952095176
0.0195042619061495
0.0200202563336985
0.0187155950330103
0.0196233112146203
0.0195014055454842
0.0199994163750201
0.0222752379228779
0.0200102542891791
0.0193652099197963
0.0199147211155467
0.0202023135133798
0.0216996779741053
0.0181967536137744
0.0214761831701318
0.0222985163077744
0.0194852271122615
0.0205386141595936
0.0196420075355428
0.0227632086760176
0.024724796918748
0.0181206853831899
0.0217802620347233
0.0182701724306491
0.0204290719644111
0.0200691042629892
0.0216424018044831
0.019133701499277
0.0226643657702413
0.0209759890648967
0.020140940886538
0.0212873014133204
0.0210662486583767
0.0202759001037941
0.0230465745386766
0.0222610891955166
0.0219912212854776
0.0201746519599093
0.0234632051244195
0.0218479541699876
0.0244028694333236
0.0230576219343962
0.0219067713753664
0.0197144780754508
0.0246471934525565
0.0225766414448808
0.0213980783159939
0.023197992791489
0.0236152713932744
0.0203725552675615
0.0230326331483077
0.0216543876500906
0.0272352943504161
0.0202620339966193
0.0280124612577732
0.0237346431924017
0.0244488138451421
0.0276450021960974
0.0238744053267379
0.0238526310924386
0.0226686432921179
0.0253543618045069
0.0222631556894845
0.0271501155542729
0.0198872973289499
0.0278269526504188
0.0220357364854393
0.0270311004462521
0.0230107264214302
0.0268461742887948
0.0263427632256895
0.0246699809225138
0.0236253845996692
0.0282554103753105
0.0235154655364819
0.0271572624512581
0.034394137771722
0.024332550720984
0.0334519326720384
0.025873790303039
0.0252307482969931
0.032230138092963
0.0254232901985772
0.031048798984612
0.0253529631694957
0.0276914568441663
0.0253307139870658
0.0263453409393553
0.0323734797156751
0.0282298026951031
0.0303708100276637
0.0272025029878937
0.02866565852679
0.0327984621693532
0.0304877854523705
0.0302952728597607
0.0297128069864405
0.033262337239056
0.0252985511920917
0.0393504324472267
0.0304179916767841
0.034768541037122
0.0318498860110273
0.0354521648109021
0.0353925680604098
0.034405704458543
0.0358518472123818
0.0372317350776365
0.0342662741832564
0.0359520595475342
0.0325741780892375
0.0391582482629965
0.0367839230653392
0.0361601156042636
0.0365742080225825
0.0369438087630996
0.0368889976310505
0.0407863224548328
0.0394126808640127
0.040746721581465
0.0410721318136528
0.041907297178213
0.0464964805329114
0.0425105554851669
0.0426514387390931
0.0427293674369749
0.0446630162371772
0.0446192274043934
0.0436843215870601
0.0466205482816203
0.0463651914766
0.0507846512756466
0.0478070544684226
0.0504032487901935
0.046216056385466
0.0497638602492453
0.0503209402993358
0.0498369533460872
0.0574570421302627
0.0510990322768623
0.0542324038874738
0.0515232973616473
0.0545984057840823
0.0541722258761531
0.0584413654634806
0.0562657024095253
0.0584984022072609
0.0622741005307785
0.0580950988004232
0.0649941420441354
0.0663489635805741
0.0639927901856341
0.0650716925696528
0.0638858607489924
0.102361493616253
0.0686391501014698
0.0775661503456431
0.068327309676326
0.0843815350868212
0.0836449591107671
0.0867206160863973
0.0881156713194169
0.0940326331854114
0.089974622572387
0.0998545216484629
0.0994573275816891
0.10468996851417
0.106185222374489
0.110812099842628
0.111505528976396
0.124891579109476
0.122567338378277
0.129413538497599
0.125313060784866
0.133656489227609
0.135193022685565
0.142763551141981
0.140692184402162
0.151716237893313
0.148315060110096
0.157336463641207
0.162772066741378
0.163353913709142
0.16955575338925
0.17140972285745
0.181782778519156
0.176316156455286
0.192876633938326
0.191343130116328
0.196955225565076
0.193013907573886
0.201137251802063
0.206890351788699
0.20645671619881
0.214417287490062
0.214531314225252
0.224095329882027
0.221532040409125
0.224854562363001
0.232683609084319
0.235596687712159
0.22854135284218
0.234863908289146
0.238606029595736
0.243190798435969
0.265944582005189
0.238359068972973
0.239314277723689
0.242364949991673
0.242359997092073
0.246428490395675
0.237921997752363
0.259536066547482
0.241370085431576
0.245503866310017
0.242567984814489
0.243438486598226
0.245655526622116
0.24757491464162
0.248935635551074
0.240565504352276
0.253018873470049
0.234948220954798
0.255179300551672
0.251167923449339
0.241398155692258
0.236098933320722
0.235151431052634
0.236444814900465
0.238653569405357
0.233134543111598
0.234022507988623
0.230839987640566
0.229028129941325
0.228113579894883
0.223094117594092
0.230677075114289
0.220946823533715
0.218677265313101
0.221492984172548
0.211824263190274
0.212467750993
0.202426622159084
0.216397853823299
0.209937714373418
0.205047628491617
0.205756492681041
0.198443727289883
0.198362763084385
0.191781771823675
0.194323048319056
0.191491156478208
0.196696476549331
0.19086106563536
0.194387424440171
0.185586301586728
0.18853533117351
0.182665950349031
0.188066346942432
0.184999338720203
0.188476312608504
0.179507074593791
0.185478393436512
0.181834288308281
0.181659189542068
0.179037052528193
0.17699342542627
0.175512916965808
0.18091641847223
0.178567719943843
0.181734733662181
0.17791931305722
0.178291679747452
0.173842637382275
0.176768108051062
0.175497840804272
0.177836741233767
0.174757987092106
0.179433339600308
0.172970917888508
0.177307258378125
0.170549915093642
0.173009196179488
0.173079618677767
0.170206091231834
0.172169201140402
0.166774677367408
0.177717058310031
0.172307243324431
0.168801938622864
0.164972214203428
0.168206814273087
0.162558298063638
0.165212476097255
0.175586458748375
0.15943978464482
0.16488868449467
0.161044988391054
0.16148277212149
0.161660822961732
0.160400266231669
0.152637758392189
0.157317013736807
0.148471810089755
0.168462216480469
0.145030516253237
0.166535636189213
0.149880118814868
0.156511287514248
0.146705754290371
0.158473186487982
0.14967311806067
0.149665903759921
0.152614327728228
0.145565499844357
0.151886163926461
0.145751723839859
0.144080295788449
0.146645115412502
0.144710803560326
0.143400616610584
0.146191026193006
0.136583958524363
0.141730875311244
0.136699311007639
0.136050979728348
0.142965677597875
0.139897534924449
0.139078210782594
0.132380464683812
0.135180002374113
0.126376909891286
0.130396747720355
0.13412175568585
0.12461101485121
0.126067010975481
0.12132687180121
0.121743748444153
0.120854973716232
0.124275362538687
0.120356341544107
0.118799862288237
0.12529232617988
0.115517409657964
0.121158557383369
0.110703816803106
0.12012495426935
0.115322390033074
0.117136311741215
0.10698106578876
0.116433853726552
0.116542994967504
0.113052797186231
0.108438071266776
0.105981079936702
0.108149347170456
0.107318631719264
0.104278237117791
0.110007515087749
0.101922027636618
0.107203215431763
0.107805124202685
0.114560726445143
0.107582083919115
0.106737245490617
0.100717689895228
0.100412252989959
0.0996630456590645
0.103346847749305
0.0976938658724693
0.109833239543676
0.0984102159333891
0.10391907373876
0.107391542367143
0.104410286793539
0.105040971755703
0.108602047106254
0.106477381055429
0.105970826045531
0.107438978183653
0.114167946959026
0.110379048153383
0.119612093124459
0.114670089360086
0.116732227152974
0.118647065689509
0.122402183327584
0.123278481693472
0.126559652230127
0.129903092649939
0.129987725500392
0.130611500639938
0.135682023268212
0.135016207997848
0.149784235167876
0.145211047011554
0.147578681961419
0.155789709731431
0.155194448289992
0.166284355717093
0.160377622721094
0.169002983272075
0.167675563729679
0.173161524539885
0.178275585972244
0.176134330547386
0.181476400306255
0.18350013349286
0.185182266332606
0.188392983700054
0.190844581925335
0.191238744231219
0.190367051111887
0.199907794831372
0.192558394094203
0.221130471469542
0.200735875285818
0.20939224416975
0.20579505479672
0.202012385490499
0.208129455293802
0.204697850634146
0.211433900125453
0.207422069359325
0.211961823893379
0.213139299956507
0.21286037664981
0.209532841760571
0.212869417740538
0.215834928476954
0.215802170198264
0.214822862919797
0.221463526292707
0.22128906707029
0.224598250613597
0.222435962706656
0.229962090119534
0.238259896554912
0.229909534465365
0.233779706949038
0.229766867131101
0.235784158461605
0.237967881258606
0.243423563087484
0.23884600959806
0.237111967480555
0.243328631752941
0.245763094435602
0.242696666621367
0.247501308720166
0.251951013914043
0.25601656161517
0.248118187954004
0.254407744759346
0.246752092223256
0.262317322358483
0.259376330547867
0.259172131765687
0.260440094942318
0.257211847164493
0.258881391787086
0.258677665990286
0.258381516753846
0.264216310426131
0.263647437229892
0.260254486869521
0.262807140848406
0.257443521939879
0.265707039173194
0.257026104246925
0.260260134455276
0.264661904409907
0.259613268938679
0.255359813383125
0.259675533483614
0.261969193094466
0.256555324299084
0.263955569411479
0.255321523591641
0.258459546671502
0.259455307015327
0.257557895028959
0.259414336213486
0.25667668021123
0.256387876818419
0.256302220062646
0.25563626395372
0.259451429950283
0.259308383790319
0.258245459955136
0.258633666782483
0.26371512251208
0.260245964414886
0.261968651435939
0.264855818989261
0.265447516965144
0.268505722520622
0.264666188549934
0.264644314897713
0.267412168648869
0.276162999288061
0.27090063635711
0.270657438142748
0.272922014086422
0.275156486639473
0.276081618098312
0.274243689169569
0.27595411261184
0.264212781456313
0.265103053143522
0.266655739895527
0.259427339083563
0.259146707570605
0.259051621740152
0.252963803613673
0.256152212303936
0.251521378471144
0.244800428367838
0.247449993221308
0.242734868570394
0.240911539394599
0.237126883593733
0.238992080127413
0.235735379253014
0.235878876603082
0.233128810781977
0.229426976344131
0.230077544436694
0.227284333980645
0.228246655908348
0.228322506088504
0.224201528611434
0.226549477135379
0.22840346291508
0.227737019736128
0.226536894545177
0.228156913656477
0.227823526481759
0.225980742293329
0.22434458467657
0.225898668669928
0.226612113044115
0.227601631479937
0.223436159700671
0.225888852406945
0.22282821848657
0.224453403930788
0.223371681250731
0.222174672624174
0.219437868738685
0.221386390614199
0.223894742791672
0.222992007539185
0.222777952197294
0.2200851088116
0.221414931628453
0.219712276494949
0.218149938202069
0.220843340453154
0.216857232264577
0.222214197781088
0.223206639190492
0.219847775976932
0.222312062934072
0.217210905481127
0.220326586190262
0.221875006511962
0.219194557012691
0.220219095932229
0.216031847084574
0.221551261292036
0.221482773074453
0.2168686985779
0.21728488785292
0.219504658537068
0.216997760596711
0.217247524265847
0.21675775175678
0.216351073412505
0.213079000623983
0.214357644183598
0.2132220047948
0.211228397755996
0.208098630732182
0.208432539328245
0.206051975683388
0.202661191379735
0.203174611252856
0.19918697739338
0.198805759164299
0.197775360032654
0.193406688636058
0.194076749653229
0.192075260999058
0.189965542557713
0.188506020094314
0.188305749191225
0.189577392506033
0.18599048363547
0.18575301709918
0.186956848929982
0.187793040186149
0.187391638789952
0.186802545984158
0.184763411190709
0.187941361490826
0.187170655051132
0.186004826160755
0.186213878468491
0.186154440304216
0.187319602022651
0.190801743913486
0.190626856358335
0.190974471801944
0.190856299027971
0.190947238239607
0.194621123903917
0.196641108164091
0.195188777592198
0.196973766901039
0.198133712476292
0.199127265676068
0.200361208440947
0.198859801867523
0.199968019548103
0.200889590809655
0.200258639692383
0.20125821959012
0.197976779675385
0.202495462749705
0.202282460885573
0.200235206460348
0.199293486236048
0.203047897351962
0.198694512907668
0.198066830265847
0.198837098361557
0.198148224366077
0.201841418480569
0.197398185146479
0.197122156380881
0.19517658871645
0.195035477862844
0.192567456645414
0.190873353752335
0.192292238036325
0.189191458194243
0.193906331432662
0.188663514097812
0.188398132393152
0.187798049517956
0.188363908314256
0.187737879322057
0.185713994135741
0.185308532184803
0.184156454613788
0.185794389835684
0.183339984876664
0.182922353286351
0.182098826345811
0.180483579576739
0.182129909249854
0.181109509734722
0.178184370026526
0.179019053313903
0.178235341521868
0.179363322679443
0.175983366276569
0.17671892667196
0.176040430576752
0.174537404490431
0.173878162599925
0.172082759188544
0.172239648864495
0.170294282651643
0.169229561541309
0.1680074641829
0.167887532615932
0.164940056984021
0.16265738393398
0.163918122040483
0.163292087846744
0.162253041921051
0.160381369562151
0.161023417418893
0.160215532171609
0.160093072142353
0.15978373918064
0.160061564942374
0.159931104196053
0.158899589406681
0.158962669427173
0.158552763878141
0.155814215283926
0.158127596696558
0.154693065326594
0.153345029418219
0.151770989278036
0.149131683308846
0.14879558750796
0.146612939084538
0.142915757592299
0.141239493118095
0.143490535411565
0.140157784382549
0.14089870816301
0.140462301201808
0.143576890107809
0.143345996185518
0.14588032479699
0.149731047999827
0.154881551478682
0.161546569028019
0.165645138984031
0.171240316634915
0.175565012652641
0.184344111786479
0.193222265681712
0.201525698942842
0.210207716235681
0.219349271101079
0.228455286168474
0.23528774784192
0.246536703813071
0.256119156221959
0.263617556284304
0.275557878514952
0.28046440695593
0.291091852680641
0.300123564579831
0.306508570299667
0.31417553487329
0.322821405564976
0.328630430223547
0.336026611169337
0.344382066009308
0.349933688614451
0.356614729758094
0.359889864106973
0.362547763149887
0.36918835687779
0.371957198584279
0.372747263360012
0.377019575504391
0.38012404877433
0.377944479956962
0.377538314019589
0.378895537794329
0.379483473660575
0.378564302065676
0.377144785280478
0.375915872732094
0.370359629973617
0.377571776644934
0.374379891311589
0.376537135488318
0.378268284002425
0.380352591028497
0.383517712044125
0.382177817122759
0.383312002858594
0.389181781724902
0.391502945698971
0.394077279880832
0.397735542463129
0.404719531801799
0.412122407396798
0.41570184160043
0.420705575314678
0.425292497083502
0.432089560559832
0.439843539208516
0.442450222883708
0.456138550153039
0.460915193424813
0.464420116866163
0.470533229769578
0.477631740611044
0.479543960377026
0.481415623990144
0.483672505206455
0.485166820611199
0.488945034197501
0.488383256659193
0.485549665168774
0.483660170133235
0.486015703554242
0.477549667420418
0.480261232094188
0.476240170505744
0.478533227639568
0.480845088439821
0.480232098775773
0.487635530482608
0.494452662377825
0.497047564044049
0.507732924053078
0.516534328379499
0.522941898994231
0.528645952604042
0.535084297589764
0.550546839132701
0.560296277932939
0.567537527465661
0.576899738559208
0.57971287901305
0.593850884039132
0.603640941684332
0.614230866111494
0.615221936633887
0.630633615152114
0.639570582135159
0.651432159689804
0.664887867192395
0.685090155970503
0.693443832510391
0.704425565590815
0.726937588612833
0.730686741229396
0.749538262296552
0.758734575318488
0.769389126359888
0.786771274189786
0.799304141389444
0.801774241310053
0.820672403482668
0.829340125746981
0.836211448341466
0.837281172411281
0.850315492118842
0.843653834135102
0.848048404636822
0.844968045483283
0.834683428566892
0.842096807521273
0.828732363518376
0.824745107134426
0.827882128641531
0.808920767568321
0.810778710886636
0.820618899265337
0.8220102030867
0.813141782389588
0.810819782812122
0.814015448189659
0.814204340011454
0.813907730125207
0.816463389286748
0.843145455290361
0.832198154833761
0.853911338859472
0.855047697574634
0.865131386122307
0.873134555448231
0.883922493750726
0.893863291127211
0.891093315951162
0.894489868500717
0.920333477368206
0.930481527148903
0.92169402662695
0.938220532595619
0.942623885413021
0.940006028299158
0.946983777711824
0.95622840174969
0.959671572596629
0.948417596944737
0.959724449960096
0.963449180594334
0.954668357739409
0.964607158810546
0.960843905436068
0.981853990767385
0.950558333356068
0.950489553124521
0.975208169694885
0.939876291942549
0.964516754134708
0.962940035373949
0.947210843913109
0.947335157540414
0.927525162376115
0.940427465345714
0.926890782708597
0.917249131981901
0.892294856359545
0.857500594793544
0.874208181006235
0.835206734358609
0.800011285468837
0.774525351324709
0.755923611249243
0.719407704784849
0.695579302510247
0.665045652868942
0.633012999089187
0.60773329351836
0.573662729218708
0.563088860389664
0.540189053533924
0.519897110860615
0.50603989706132
0.490158098976905
0.490365391094077
0.485656133072962
0.475123978974825
0.468661714412348
0.462170948121493
0.45576475939907
0.451585941495746
0.446048018360354
0.436285307012988
0.440835813588555
0.427593798256448
0.406489646460668
0.40470199333289
0.40198816457437
0.384614668733929
0.372657271845474
0.362658331057945
0.346148846187109
0.335170496226361
0.318057673108641
0.306762715432305
0.297797750318979
0.278971929715282
0.262794897125091
0.250915524143626
0.235379723799229
0.223768864825802
0.211711714624812
0.199782948640584
0.183088473280308
0.169132864926853
0.165806700715461
0.154340644985067
0.14716454329958
0.138782359734823
0.13402440337738
0.126199583008401
0.127285887102685
0.119379604188555
0.116341996938623
0.112099365518942
0.11028484306495
0.108497628323997
0.112898192337422
0.111623034307062
0.105474240049581
0.105559738596458
0.109733389150308
0.108049929504567
0.109342370838471
0.109366316955041
0.112804249911637
0.113347604298056
0.114866876432235
0.111091733494896
0.115371588168433
0.117796977121247
0.118246887397145
0.117853526062181
0.119556029009376
0.12025606813798
0.124147577330007
0.122741079268825
0.119462248194151
0.118069384090144
0.11962342057654
0.114335439556418
0.11679078311547
0.115552192695668
0.116024411888999
0.109711560546639
0.111665293011431
0.111603025920454
0.111993506067555
0.10630894777938
0.113975817224148
0.117592783139356
0.114572436022769
0.118107554356964
0.11621871697344
0.11788018008425
0.121445321040944
0.122238066602567
0.125205869712745
0.128791941944222
0.125261303339977
0.125352754975261
0.128323995270449
0.127016171763589
0.127079310451878
0.134627948173865
0.13073245088093
0.135237831341575
0.131175700230863
0.136845232555516
0.137650272889579
0.130831797987492
0.137218959075323
0.133086876363576
0.134885236252527
0.1400482135167
0.136304894154428
0.142599035350949
0.138846966997089
0.146924732987414
0.152941325656881
0.164008036575966
0.161850557974295
0.168414880221805
0.176492112536454
0.172648331335961
0.185923855354608
0.181426262120268
0.192977286567786
0.200212736325831
0.196217414079281
0.200589182133644
0.198343097713625
0.199277895088645
0.199445636793599
0.18875851867386
0.185965248229066
0.183278022559871
0.183781899460973
0.179336458653396
0.176347619175277
0.175152193441722
0.170123778421768
0.176105941772873
0.175389608143826
0.180282738748335
0.175578622359559
0.177551111647145
0.171530411010108
0.173619005592058
0.181570332477113
0.176665616282393
0.169052737907353
0.1755303687045
0.174266447899268
0.172221956204043
0.166202355557934
0.165737607651132
0.165249941097884
0.160176837474649
0.158864823233187
0.152237020996249
0.149970786960668
0.154754458590271
0.151559284592611
0.147867519776208
0.154755768835657
0.149763484879036
0.144125585233414
0.152629463199913
0.14752382893606
0.146702441791608
0.148230199536632
0.152889788693681
0.144810136693475
0.148179997231695
0.154930704802612
0.143101193605163
0.150229778464386
0.138871669682419
0.143620142254688
0.14254274615393
0.139095281946853
0.146522600013289
0.140346078126084
0.136355022313166
0.14495942019737
0.138157295752127
0.147131063941273
0.139363163509399
0.134282702748029
0.135450910695382
0.138740466169841
0.137174840041534
0.143912004190548
0.134184847207567
0.137901387559174
0.135953750262065
0.138841132742859
0.134086420091543
0.138214665377694
0.135773386469803
0.136196938943009
0.141238204599616
0.135955080505467
0.140139176187034
0.147512493612289
0.142821220057555
0.151022974199474
0.142279114498283
0.152291565378107
0.142985490094272
0.150272322663579
0.14999545633882
0.155105997122825
0.154570572078368
0.161072057750462
0.143710380956269
0.158193944149266
0.159612070764096
0.163555622821881
0.161648393046115
0.156427566236629
0.163784452324489
0.161623865063284
0.157112825120845
0.17318482613114
0.170831514429576
0.164166203973857
0.183238609189273
0.183047474756915
0.193601481614874
0.188233819252425
0.196236663837555
0.196878901588377
0.213566514472096
0.207207227399994
0.21146117406372
0.217441609443625
0.234423510660369
0.245233263211757
0.252051375786653
0.241398627098233
0.250993963362852
0.260638918562004
0.262359298341102
0.262458703266027
0.253420695332515
0.275300195889211
0.282336294613044
0.27478899943158
0.262955701616373
0.280615624194186
0.260030372637265
0.26659892774115
0.25272091006207
0.271194025287879
0.265252134818814
0.237909083243563
0.26110889894469
0.275008810004287
0.24908194976312
0.271005394933752
0.263144138945564
0.257760383402845
0.249119087435339
0.267066488927565
0.240157877913845
0.268377351662578
0.248816481998958
0.249036567188809
0.22878455545633
0.253583459684477
0.246554577877862
0.230175951070573
0.215347981221894
0.221565560942768
0.230147336977678
0.244352510113459
0.194998370605156
0.231850563341335
0.249380152033212
0.249480031126487
0.23341273323868
0.243857421524982
0.244603412605731
0.238719948341419
0.231928411961003
0.23582276047379
0.236123357885877
0.239354394882681
0.227138671887619
0.230402392375547
0.233487794486332
0.219893915423251
0.21325892841792
0.242822457141936
0.254737399503589
0.213794931005576
0.239362136956766
0.219640722973492
0.220413962159108
0.243322854144111
0.25650378462141
0.251984865248204
0.236928258902852
0.259230855273
0.264472995083307
0.279439312660428
0.233219360564822
0.269854285565685
0.251341761368547
0.262993831934635
0.273102955770057
0.300091762495237
0.26488264445738
0.2781238840433
0.265403003058024
0.2661486513161
0.295158537310423
0.2909029955387
0.301380492062702
0.298351082514459
0.290991995017179
0.314056117654918
0.265841307318512
0.379789622027683
0.318653124709982
0.345033186935111
0.323483152625578
0.298494658403909
0.311899379595227
0.342567329131335
0.351826358203046
0.416208633700238
0.346351032217549
0.335383048985078
0.374586049205208
0.387484655768109
0.319305600714637
0.349188752552178
0.302143940059824
0.352730654874544
0.356705609390967
0.301485839851011
0.256932553441795
0.370780692239071
0.257014344641041
0.340537553832189
0.278422855940444
0.28748966742499
0.219010615465003
0.228365290073593
0.299343720949546
0.314157886126287
0.301496943208632
0.321052968982004
0.285304662268763
0.31060800331915
0.354280998790664
0.325670006289788
0.303786170806028
0.361150293369401
0.322512098183035
0.240459921866058
0.374530930974025
0.261160880423191
0.311570898094343
0.34138454873589
0.272477901185427
0.361922950873173
0.293012879848929
0.513293756812498
0.280060504217511
0.234527001760097
0.3700872547727
0.346344484539478
0.342307368491483
0.2824459109917
0.269661390458837
0.32023334991396
0.197993117465055
0.388250969863615
0.219292925892971
0.257282433458166
0.532232120954856
0.384094035078008
0.105285359281836
0.326867012327717
0.227441107436514
0.421990992208096
0.203341941446766
0.45996070130211
