3596
4000.36533379555
650.420452594757
1
2
2
0.0249387533503308
0.0354320586964254
0.0220217244353436
0.0305814265355793
0.0257943797254605
0.0357473531337033
0.0294260690575382
0.0295506292544861
0.0320962880739147
0.0333484904258241
0.0375924322242625
0.0316720068092274
0.0365199829798212
0.0279089048510782
0.0313497801436324
0.0322759492623361
0.0307419024777571
0.0335317682443993
0.0315607846015185
0.0376848522374681
0.0212714535901476
0.0380942472205469
0.0262428255605428
0.0360414408730979
0.032401555211029
0.0281863109190697
0.030973890652801
0.0376886527862465
0.0261403158364269
0.0336322756931463
0.0282060430502217
0.028190647232683
0.0271832789749417
0.0277938791611509
0.025976342232008
0.0305133367782849
0.0285403252311143
0.0314192399188563
0.0279985172916193
0.0329882258156319
0.0229883467063303
0.0359782600236615
0.035951813389641
0.0358477607121869
0.0265107347279697
0.0342931392074799
0.0376349002222794
0.0311691881454569
0.0215257182992269
0.0267967897309158
0.0350076539820457
0.0322087082207558
0.0302985624582331
0.0272545434264783
0.0327089361552092
0.0282189267733346
0.0231023609064852
0.0334640292125923
0.0365478573524316
0.0403345244985089
0.0335498718364801
0.0321140330318287
0.0246950784996073
0.0309591606054946
0.0331678411948338
0.0290770779756759
0.0328335635944601
0.0288259254009662
0.0317199795017573
0.031438658148847
0.0242362007944149
0.0319335525130936
0.0299914982343793
0.0238505197994895
0.0247768446242533
0.034666019745806
0.0244461823144664
0.0262074733652404
0.0361099602065835
0.0279153456433328
0.0246869138419984
0.0283605890249892
0.0268413642631491
0.0285421468072807
0.0259711823292466
0.0311543499232963
0.0249572319312161
0.0324468319549231
0.0358314656525407
0.0241318795285212
0.0262367986884467
0.027344279933279
0.0299737221056933
0.0285382533299182
0.0301472954867448
0.0282540662767821
0.0288746778257678
0.0207585833224108
0.0318974852725261
0.0285728603833894
0.0282684762356822
0.0439257192593364
0.0110868033311038
0.0445355003952005
0.00983050197861417
0.0211882584619023
0.0364465899778225
0.0299352259554924
0.0323192018852013
0.0167340567339048
0.0296555279386854
0.0167588650077986
0.0337661565760855
0.018987097523504
0.0341320866619845
0.0329486023805836
0.0221410857384989
0.0268979022831785
0.0235070878450066
0.0162500631882324
0.0293002200815647
0.0339138438167707
0.0217957403322564
0.0307946451789844
0.026015799344266
0.0270989547359482
0.0269274696223821
0.0387889194306949
0.0296142280145816
0.0274192589103162
0.0190216537400175
0.0255520838800172
0.0220375577184747
0.0347294590916942
0.0196955284030109
0.0279385290844164
0.0149005459906558
0.0394199017736588
0.0270490097997503
0.0214920260457397
0.026795348986687
0.0245856855836532
0.0283415241491256
0.0463178553964609
0.0253472768842412
0.0115127245190709
0.0255848249976932
0.0345892836225697
0.019900971541318
0.0212560002674
0.0172639404196303
0.0262348284149618
0.0208757184035225
0.016200579303859
0.0347465942459537
0.012901169175088
0.0158271420585948
0.0559993602811126
0.0045057363666113
0.0489441730427081
0.00940555055362933
0.0335642119309058
0.0188627954951237
0.0281522983999181
0.0244339241257102
0.0323278385681538
0.0223187680804294
0.0269327187790235
0.0261312404348448
0.0323560344095529
0.0244054861232935
0.0224273660546251
0.0423923925738927
0.0171325501093441
0.030795938186104
0.0288493290127013
0.0229939691242784
0.0314035181211567
0.016837308980291
0.0337480335993777
0.0148645382223768
0.0252081496899239
0.0204171536338423
0.0309976433873746
0.0165252192421955
0.0255313479839254
0.0234838881693921
0.0229617243854142
0.0198045532308433
0.0367643848200437
0.0220187000182326
0.0281963539325053
0.0227977103262883
0.031021695828447
0.0100141346989867
0.0397670604525208
0.0262418079969554
0.0301947173573932
0.0211858144212857
0.0204934244471464
0.0293853466338416
0.0217063663643879
0.0237093937696382
0.0335503010614582
0.0165065113040002
0.04349575352091
0.00807734253995305
0.0316871339096645
0.0173630785997837
0.0293362859613906
0.0269365443306805
0.0346581193800493
0.0156334007280609
0.0291541520658328
0.0209582525748065
0.0219597270591873
0.0311036808824348
0.0332285111361026
0.0214803262001371
0.0275055258584153
0.0188457028935265
0.0249662498471281
0.0271807993379352
0.0244849411409764
0.022275193979968
0.0180286743655259
0.0262209946763235
0.0247396012294647
0.0197741943661275
0.0222393446041232
0.030948187284393
0.0269396121320821
0.0204664960527432
0.0173166357712932
0.0238177993863553
0.0300025419742317
0.0258205639748102
0.0325853550133737
0.0184420423477155
0.0297093234054898
0.0120386771744279
0.0290783747338823
0.0245337025228016
0.0305320541881433
0.0190188443016255
0.0453487128871733
0.013133394506257
0.0357194393338345
0.0187791342194768
0.0359584825954123
0.0221418342901366
0.0309119302418465
0.0272395576013345
0.028575797821936
0.0238455321137836
0.0277721844262387
0.0291541600651771
0.0279026021082247
0.0294976788121451
0.0239972196029496
0.0257859534636628
0.0188465061562898
0.0337403394570003
0.0236895599711556
0.0530500479744896
0.0243805199605712
0.0282919924226098
0.0364849942141712
0.00707266577638885
0.0258448629610345
0.0204510236671139
0.0196788131096532
0.053800690495561
0.00524452267551384
0.0289113763057956
0.0262585453166704
0.0270209970010189
0.0162346644146705
0.0313785742507363
0.0315694097779154
0.0324963411369494
0.0325909407099077
0.031626761582778
0.0617206406842025
0.0108208414283522
0.0487851608826014
0.0212550794303857
0.027150293582157
0.0246552385803609
0.0219157131093004
0.0296457841820999
0.0405742766998713
0.0304859299408013
0.0236903280058252
0.0408078220596765
0.0292051560217321
0.0447868891730629
0.0305745798345758
0.0360961906275492
0.0305200972236731
0.0380020188586078
0.0230423626952817
0.036132637443956
0.0283082903953198
0.0353962103092002
0.0310045800692273
0.0306071075615073
0.0418736557875629
0.0245350203957826
0.0288319078782154
0.0413143729966403
0.0249908297756265
0.0366579707959121
0.0296114771830765
0.0410872275243624
0.0332845834858029
0.0378373107898762
0.0336690432792984
0.0464433259872001
0.0415413075445373
0.0358864946959777
0.0315539375062108
0.0375091479656736
0.0344775085485295
0.0396275946102817
0.0377225713556364
0.0378125574466842
0.0451415040020152
0.0357153200037131
0.0438699235274095
0.0469053815110441
0.0294799668224945
0.0501803379352339
0.050917257632195
0.0231724628435659
0.0447400196676721
0.0383390265317957
0.050706055071111
0.0419963803972919
0.0501565355381156
0.0430885928005544
0.0495570396158264
0.047882929994836
0.0569606265467662
0.0525007990508206
0.0536564331350998
0.0563972009106015
0.0698965193447244
0.0424616887471922
0.0583416313790892
0.0419558544895863
0.0725090083532759
0.0651872305384515
0.0508671429927664
0.0715886498423065
0.0526852902061161
0.0657677378247752
0.0599910509334195
0.0683184647642988
0.0562036268356857
0.0679525154538567
0.0641405269388813
0.0680502730962685
0.0745122821120258
0.0690221217616539
0.0694492156600935
0.0766511665523115
0.0952083215667539
0.0825424841490574
0.0754532126337449
0.085251364940594
0.0732986481531521
0.0887527797152651
0.0925746046749708
0.089731255799495
0.111299047610587
0.0818423984293133
0.110352576220063
0.0891119867464175
0.0950961177844036
0.0973102877178083
0.10079856522485
0.101444548343605
0.111427221748421
0.102062321032283
0.109748524526744
0.106582672261557
0.11523686267234
0.110854483166048
0.119181230574843
0.11879814569874
0.135464913167336
0.125561029554947
0.126064249159501
0.124346407229725
0.135411350973839
0.140018691563291
0.158265706750825
0.140934256820046
0.128759654155486
0.13614621850099
0.130548188063303
0.15787837587004
0.140837714765472
0.165584205416068
0.153290253983086
0.171654694779636
0.163367927377379
0.158268263589618
0.152002576555107
0.155385200562691
0.177578220284
0.171480002690675
0.165838022428758
0.193519539062766
0.177185487043501
0.17088125852087
0.187109423870906
0.21206458340085
0.178770782125852
0.206556080352935
0.176850351994469
0.19319585152023
0.184437476018926
0.208327085539491
0.196185675733623
0.206308740889473
0.219838835301719
0.225536810281981
0.210996042023693
0.219476642172613
0.21193608531078
0.226253721249804
0.235149235468293
0.222449213781172
0.232370895760411
0.227078032949916
0.241034581354437
0.253264237644076
0.247585719728246
0.271872277519547
0.241995341314693
0.264419908755712
0.244341970778995
0.271622091554354
0.257608513830206
0.281266399760059
0.273430028316009
0.279989637184432
0.265570674170943
0.28310925136324
0.274324926090397
0.282352884066669
0.278230299007279
0.301823132986397
0.30047147934303
0.301226862840368
0.307233104742194
0.302320023272861
0.307071548822834
0.326428393487213
0.31539967474266
0.346913681094217
0.320028830463672
0.346672877452158
0.305915989651957
0.341588922785903
0.338737566108021
0.351870122716287
0.333144157251808
0.35677348694491
0.357707182166962
0.358747830030597
0.359888767218306
0.380553942541476
0.375025893996648
0.374790039314248
0.36492264026972
0.399359876081525
0.370782332656065
0.402571938836212
0.388676056391978
0.409716621030104
0.376768178616885
0.429346179743128
0.40846899323005
0.409212725808459
0.415186093864962
0.440791811894763
0.411415721067348
0.439639341311402
0.415533498939106
0.453034793194704
0.438159319767497
0.4561956712426
0.434393753959198
0.481402581855826
0.451713434004834
0.479415627204394
0.464544714149352
0.466235807999231
0.465429072327635
0.499082590867503
0.477103375771612
0.513688754545859
0.464775199534378
0.521121846288985
0.475756702709798
0.536353923652654
0.49778201527557
0.540684600633433
0.487080900349467
0.528288643465321
0.506106446846775
0.551306644461753
0.518104465116626
0.549947703998195
0.52545368239763
0.572806834362733
0.539263718601327
0.552648536626299
0.55690962643151
0.570354580097113
0.563069205880289
0.577906549106652
0.569047420102199
0.599538768192025
0.595800370030419
0.623510453619529
0.566938186609408
0.592635239078409
0.562886918233328
0.620473463224882
0.612791979398895
0.657383584753699
0.608730068716857
0.631343552375575
0.587510484233477
0.642540603891653
0.603132715805573
0.647153041393879
0.627800115362158
0.678642275116351
0.648577857070563
0.697452138526588
0.670202795034423
0.689183797162461
0.669436377618465
0.681783935389448
0.661522748308406
0.730866706937977
0.679072388731646
0.712950942236053
0.704970954342737
0.759396899705299
0.703172569603247
0.719138383198941
0.678948289242549
0.712355998897548
0.732343042356348
0.772540636531892
0.706517097333104
0.769018242811196
0.742328193301433
0.763025241570641
0.719157992729544
0.763903228906767
0.744668719417825
0.762112279458844
0.770372347560851
0.812105009743804
0.76459315975027
0.788998170325399
0.736629284938617
0.833773975431781
0.769122072638276
0.852206720690918
0.781161418344292
0.815824828401773
0.836697694775214
0.856182530884192
0.776117260269177
0.91595705677593
0.785510951229555
0.845774483522546
0.852581199726037
0.846231540704257
0.818318507861428
0.891145162528032
0.837437317465605
0.911408885870819
0.856676155229304
0.87993738708151
0.862308069058588
0.933137967319269
0.901021450752687
0.892930731015581
0.85131787321938
0.944501712747496
0.867750642610871
0.906066034030257
0.893050099168499
0.916942531703717
0.892103757890275
0.973588491907798
0.865568287910782
0.973081114890404
0.918247637604157
0.957743223042819
0.879754743038207
0.951803265280799
0.971516255645766
0.988186168097402
0.940522664023703
0.991816157328805
0.908511338960254
1.06075698555296
0.993459524839397
0.977149296672977
0.886585513179472
1.03565024770187
0.958735761216589
1.02771697854639
0.982461050671136
1.0554807409209
0.933492566519266
1.02293946917584
0.942999977902645
1.03169139315893
0.965258099576633
1.0675700644736
0.925280853810017
0.980517637921011
0.979886461408899
1.1130006170636
1.04307763746047
1.13725530711741
1.01957920133163
1.08339286283849
0.966247148365139
1.11230007084501
0.992250877686323
1.06978297807707
0.993766557654475
1.11141080540013
1.04480698840297
1.09328692225841
1.08245771594783
1.19023266767383
1.00909788372108
1.05802734351701
0.963078068969705
1.12279421369579
1.12336170232837
1.11089700090536
1.06161875525218
1.11571366125614
1.06255584377067
1.16796238135871
1.06516239971996
1.11530721014594
1.12423414254913
1.14323581992004
1.04159954182484
1.19356180925906
1.09622453790324
1.20236589007237
1.06893360277432
1.12829858045479
1.12503805863621
1.16466816983106
1.09398486708659
1.16990299233931
1.1614390918106
1.11497667518342
1.01946254887216
1.17453626562978
1.11549450176591
1.14620008966689
1.12484652839923
1.21548694441282
1.14821533991798
1.28729469363275
1.1949628914823
1.21982073359085
1.08546438780352
1.18098177375827
1.20421414967507
1.16096205123536
1.09735419237464
1.21935133130761
1.00007687331434
1.22194121761887
1.20892113823321
1.24249797025328
1.08043435381841
1.1714886888174
1.07383932529363
1.2237159892352
1.09482479608576
1.26628430284471
1.14223530754202
1.22522315149197
1.09366039618373
1.24000580096615
1.15702796706938
1.24166928074338
1.13416019705283
1.17141680063507
1.16770355808202
1.17539987141167
1.17073195032
1.28672177394769
1.17957116025313
1.28375050446548
1.19844343242469
1.17447768741927
1.16854739147568
1.1953835822065
1.1119772577462
1.26457459281108
1.10096878524436
1.1834880620346
1.16339450401408
1.22936462511711
1.15958104077397
1.30734612432131
1.14410970127084
1.22834813159322
1.19326316909594
1.25057975890566
1.2065132538929
1.23688294239261
1.14365997439152
1.25823282024399
1.16823351866325
1.25720822756482
1.14650041177226
1.24730303116068
1.13715064673226
1.31129176016922
1.12294881422781
1.27325624573737
1.12186893111044
1.21721465780866
1.16551472449963
1.20875051218064
1.14411398566186
1.20252100243792
1.12582405382045
1.25806360151778
1.17368223250262
1.23031672764682
1.12351057788018
1.24274834201536
1.24824386754135
1.30087144261982
1.12030288037598
1.24140858269144
1.16339795694202
1.23816198472837
1.20198534561773
1.31928920850643
1.16406794872329
1.24844985110267
1.135310164944
1.23115930585934
1.12784915789822
1.19617800591161
1.16266654225142
1.22731942595268
1.18550056191684
1.26385251811656
1.18135796262854
1.23311638370508
1.13553243774826
1.19047883289708
1.15168419253886
1.16342925985672
1.11018942392309
1.18035364166039
1.14304131077612
1.20595657598922
1.26132677918872
1.27856206465101
1.16768887713987
1.23241803071488
1.12685692096862
1.2324892267034
1.16823230241951
1.23170366640387
1.20034085881468
1.20099929822267
1.13530986166241
1.21930272467482
1.20148640492514
1.19508911131632
1.18344724090489
1.17493659585352
1.10024222437066
1.29962040812649
1.10493023702138
1.2202609401284
1.09687184657078
1.1689516236803
1.13472481022707
1.14914674324621
1.08903182049517
1.13308026453525
1.145246066118
1.14395001768124
1.10282008513879
1.14349145653962
1.14964480925973
1.20281596795007
1.11028040903577
1.13605968540069
1.09057199216065
1.1633639331528
1.08129596577725
1.14760581444514
1.094381691833
1.14944724712279
1.08047440495336
1.15587344024293
1.06340242812739
1.13699905527035
1.03698160963004
1.14119132034874
1.03338766951276
1.09653637242061
1.04727061866954
1.12032674231981
1.110654544309
1.10685203820893
1.06428526733819
1.09701327251093
1.07592386627531
1.11637081409775
1.01574759113478
1.07639974611899
1.03683478723368
1.06598510901929
1.02399670644156
1.10108141310206
0.996226269066415
1.07533690614686
1.01234478078365
1.03370383865757
1.02096698330863
1.06881881065678
1.04568324788402
1.05301399993794
1.00405520426175
1.00887468474397
0.981108369936015
1.02507006460119
1.0659518883829
1.00854662566674
0.984479616791504
1.04000928516635
0.968390516073161
1.00544901642152
0.977975558382637
1.01741069738029
1.01136790475499
1.0221927341489
1.01651647111034
1.0164366519708
0.938152301652058
0.96024185506616
0.947551440089708
0.984191121492404
0.959158831129605
0.940894583449499
0.945887415084183
0.947366427049112
0.935588217693894
0.985418189594357
0.926624253200492
0.945612666123618
0.893611528512429
0.931267648308757
0.937287885579374
0.946250204361755
0.905455098089066
0.925234970250456
0.895252251297725
0.927129984117017
0.933141235171393
0.931538540002707
0.881950235647144
0.910125959417747
0.883785718853365
0.890911415684992
0.877239667059167
0.909342630505438
0.86020089261621
0.897439015181465
0.887095280465005
0.869335441822662
0.839743752575344
0.895262484628156
0.823833878906937
0.839717216471845
0.835715571322118
0.846220490554661
0.821257334504777
0.837426367693264
0.840418384745729
0.835177710225611
0.80957070584013
0.847014639504972
0.801549581184289
0.807701867797012
0.790928297062113
0.803198855363822
0.79468961940283
0.831473338157882
0.756606227965519
0.799842480919139
0.786188009778627
0.779120038377573
0.778762207314995
0.790242884232584
0.74091850995059
0.767504740371529
0.756801169687268
0.781258595698
0.741606871586327
0.765853266532842
0.728125339581801
0.750906746780894
0.731288587112032
0.735512805601441
0.726537499099625
0.735266469793127
0.723094994027183
0.738892939812661
0.721222999629853
0.737054609902391
0.704275072974436
0.696080422722232
0.696407728354139
0.712356365784573
0.687208934728701
0.702798286403111
0.692315213640596
0.691751658188339
0.680204651813997
0.700784966014908
0.679509995667261
0.702924108470186
0.659610206324036
0.652420421048416
0.668648727679862
0.659548305788038
0.650874547219697
0.670698283180147
0.644071200716859
0.658088630609324
0.646088068392936
0.644321695705076
0.631444476856478
0.638904813197722
0.64024029958714
0.640672544652065
0.626431091689792
0.637021094252108
0.619786336084796
0.641135474021058
0.616339881944162
0.61924365996595
0.614651741331234
0.618001975034006
0.61015378020308
0.601776592571019
0.582419665739369
0.599112377858502
0.578774391821394
0.592532780782439
0.593301076890691
0.596627093113712
0.586895893966442
0.590226515225243
0.575776306813451
0.568245047843552
0.568411344489557
0.566166263944073
0.564220537158336
0.562416842090737
0.562638029998325
0.575216089977184
0.554758243614882
0.558383103101624
0.54730124647298
0.545648798868856
0.534770263658041
0.543816541781348
0.534526264197728
0.547866999059985
0.529324712265502
0.538957060478164
0.534400583013136
0.537072829632967
0.519573562052242
0.525675079669676
0.530333416220033
0.516561078797139
0.50522941094654
0.52162825920138
0.494762922610935
0.514987610588488
0.495742929051457
0.499641428030785
0.499557718088873
0.495631636479019
0.493451947359631
0.501721169783544
0.488317462782405
0.492691122479972
0.483476304791936
0.484476971385042
0.476819200037886
0.476592662589185
0.469264353758245
0.477412256708946
0.472507150372864
0.478762070282683
0.463848827282389
0.474727265468513
0.457274589993085
0.461216085702601
0.455487913041647
0.452092444263204
0.451087107063205
0.463261235565206
0.442950273826424
0.447390769982718
0.445470024150001
0.449466991088912
0.440022532694013
0.44364188426286
0.432527416239291
0.438093295578731
0.428238188014426
0.433478619708671
0.424856959261482
0.43341340016442
0.423644757497369
0.42736096927156
0.411162105453597
0.419082338619136
0.410080713167204
0.41480047201472
0.400605652027278
0.403027104377326
0.403455293442058
0.411295422559973
0.405000261102719
0.414103610307787
0.400563427698449
0.407671031656917
0.403035322199836
0.405254267284226
0.394653523918143
0.402178175847626
0.390350191096631
0.395721448054154
0.386881154870587
0.396583552215365
0.38952803293349
0.385598719879838
0.386889785140241
0.39108831540747
0.388169193782163
0.386490832059161
0.383061072339114
0.382707432760703
0.375657906758649
0.388171546463795
0.374679579198911
0.38369766746556
0.380829328525915
0.389614038576704
0.386379130339195
0.390145710603132
0.382334124705361
0.396531951457552
0.380764809019475
0.390549432519817
0.384734609980591
0.389878178911103
0.391393108073138
0.393450329366665
0.38271271899836
0.392048318635524
0.390916406802881
0.398524644294865
0.39001977029465
0.40136730503161
0.403732487861199
0.410539265514466
0.397652016771391
0.40560046872115
0.403564471427711
0.40748876817704
0.405296888043844
0.414286000734069
0.412888789336555
0.420821447734845
0.4138842866477
0.423097576394488
0.411461849825189
0.421542888701612
0.413701457653005
0.424998977584666
0.422146952599489
0.422732180416367
0.426266219948448
0.438846012568708
0.430291432641533
0.435715377497042
0.433060627693738
0.435354670907596
0.441252015249446
0.448690262876911
0.439745115995939
0.446645145996867
0.4439889807152
0.454032336193575
0.451928996254524
0.456824737170277
0.45863912018144
0.470335296953937
0.46299668168388
0.470520588590428
0.478144584497526
0.47766881362963
0.480018858224488
0.491051219058111
0.485727254044646
0.491211631781354
0.48703150353427
0.482705260966306
0.47939061759126
0.498160670526761
0.489000328014393
0.49715108220058
0.501562223417805
0.508927835431083
0.487875579571911
0.496804751160445
0.497134684100659
0.49306085238949
0.496056614479728
0.499486362467915
0.486952555624816
0.496762114603921
0.493127584781137
0.504786946844118
0.49120073807746
0.502514347393624
0.502696327504567
0.489336539250494
0.484696601381691
0.496589412799486
0.489891985781175
0.494134488003711
0.485966644366726
0.494663093808444
0.48968056015402
0.495083422875617
0.484647457351533
0.488361150228736
0.48176429145331
0.491462831761124
0.490244025195438
0.494975247492653
0.485036294777736
0.491148186487777
0.490050538522118
0.486495866785151
0.486394617770644
0.492274736588185
0.487135767197932
0.490776829878735
0.48945576900212
0.489117582622493
0.491083331054008
0.492457817012082
0.489838320231842
0.494483585780539
0.491490607255062
0.482898114035909
0.477402309297567
0.492883323377117
0.486356246029656
0.490047289174303
0.484597205991439
0.485855191388534
0.483225880436211
0.486641832304852
0.481011254464759
0.485400849371153
0.474836162306201
0.47731967589639
0.469528636698221
0.481998228104489
0.471005038112192
0.46757906579845
0.470867012455068
0.475879910829128
0.467607640378737
0.469403144645507
0.453703054009928
0.453010853617698
0.45157521600285
0.460027817903776
0.44982354432574
0.452945567081734
0.445780386548459
0.450341694140814
0.438755133080089
0.436047260684768
0.430594499005892
0.428236267493899
0.428180838062964
0.432038925056733
0.420045344229277
0.420041265329212
0.415321330429951
0.415032584330602
0.402155293499898
0.402862166234569
0.400816622389325
0.404814366742147
0.399412464043804
0.389238721224753
0.389565454640197
0.394677147545794
0.386420208438787
0.386767170398279
0.379466209945598
0.380721516184814
0.377764791783672
0.381310183835064
0.374510272808432
0.372530847250067
0.368303060184469
0.366638687161866
0.35804439935496
0.366146360252028
0.354272631918044
0.359556787685252
0.353047073732103
0.353432011072544
0.351216311411886
0.351151503156844
0.349904221757747
0.355482625413452
0.348859514168703
0.343839743754155
0.343567729455161
0.34677822986669
0.337652558406262
0.343093588900447
0.336946009195257
0.338137529949012
0.335869554594116
0.33285987842508
0.335931877711915
0.333177420484435
0.327832950476434
0.331837176895779
0.32220797925683
0.330100046421183
0.323748905214402
0.320877408123022
0.324502477568122
0.325975551347662
0.317822306070284
0.325452365682128
0.31796930148261
0.320261217986333
0.318200418121693
0.315067501828853
0.314227179183408
0.316198388863706
0.311968343834842
0.313199764844819
0.307250870092866
0.305396135571928
0.3064417976719
0.311161536691716
0.307741229870083
0.308480404351838
0.303857005421175
0.30411213708189
0.299742966235088
0.303740195100257
0.297519337949717
0.299569833556872
0.293707842152498
0.300241202161965
0.294858181014633
0.299036907988233
0.291910357136372
0.289923959886253
0.288199547446582
0.291421681284394
0.291003463954699
0.293361727563236
0.291985908332762
0.289769704669182
0.281790214769486
0.282897505663965
0.286332792332619
0.287159759124049
0.284890961894632
0.283775007721006
0.276591219416915
0.278036961858289
0.277299167986094
0.282036876170033
0.278770683061978
0.282856113202313
0.281538243029375
0.277762800207455
0.275520877845728
0.278688327053887
0.272503076541384
0.273237983095611
0.271740326203184
0.273209377190986
0.269173070206949
0.270618586203976
0.271654301493751
0.273743925789387
0.26867209523754
0.270371954398494
0.268628716870289
0.266209328827059
0.266349531319128
0.266648990867199
0.262600283282134
0.265433447161351
0.263121754185245
0.266808753586159
0.259658817008847
0.268645087163126
0.265473916045964
0.266215196151325
0.262230853957155
0.263317749376077
0.260253781784999
0.262777766550153
0.264605338234926
0.263871425853061
0.258220439460416
0.264312054860628
0.260086754652834
0.260277205718148
0.257565801689221
0.258764398623306
0.25891160464806
0.259778435543307
0.257421732945743
0.257134154085109
0.254923201924352
0.256150558095584
0.253425797797199
0.256847170935911
0.253908841208579
0.256678352885497
0.253006444194378
0.252457321992125
0.251830616598401
0.25213919780992
0.250623396629081
0.252331955568635
0.247650222080345
0.250198595165128
0.247706713814075
0.252466160694492
0.24495563894799
0.24949668468895
0.245438844799435
0.246475980624601
0.244983815278158
0.245021653573693
0.247101881364627
0.24370207350511
0.23934301011112
0.240677438017014
0.242045061038026
0.244115513651696
0.240601724954728
0.243200063774643
0.237359850565269
0.240527182923604
0.23705179321867
0.237030426532854
0.235054784910229
0.236960363491076
0.235828189016593
0.238057510381361
0.233171398097552
0.234886939990663
0.233574447877093
0.230023703143982
0.23012204598585
0.233524082467534
0.227596930811042
0.232801349907053
0.22923059908496
0.230775444445387
0.228599935978328
0.229182898072189
0.224601161747335
0.225856496184086
0.224459733463363
0.225502583588979
0.22055117403026
0.224371185854607
0.224842184893462
0.225273807646459
0.220250587305203
0.221405926904334
0.217386086874464
0.218661788881946
0.217906733946334
0.218362378172101
0.213313229954182
0.215507401099469
0.216363945361421
0.217238267750014
0.212149602487837
0.214869405176201
0.211291551742747
0.210015582291765
0.207509148650341
0.209693935478906
0.210897533083783
0.20944085051173
0.205688223899343
0.206449176160853
0.203337647982837
0.203973598563826
0.204873076879558
0.205343486135245
0.201789377934144
0.202436650858076
0.200860753839177
0.200401176113008
0.194684894639662
0.195648890566735
0.194719802747899
0.192420564447525
0.191142023299685
0.195464410897007
0.192532842931383
0.193088795617128
0.19130093811593
0.190205476737155
0.190505665681868
0.191892826660281
0.187326793153667
0.191121279744668
0.189712853199778
0.186311334874523
0.18541861092296
0.185300816713524
0.183374626800182
0.184131003394897
0.182075867355916
0.187755125089353
0.179437489675338
0.17844000471149
0.180181368658498
0.18252276121202
0.178097142801283
0.179108013436456
0.180316651370165
0.178721081800992
0.175825041893833
0.17600200490121
0.170735639717598
0.174581033222589
0.174517640124578
0.172198050245006
0.171530522149795
0.172934542354595
0.16859701043613
0.172464165412385
0.169314354883038
0.164884422228457
0.165127515929928
0.169380443380929
0.166888478521428
0.169759345081563
0.16561402172819
0.163384052144879
0.164141899835219
0.168265520554243
0.166583812334977
0.163640984482308
0.163195442546868
0.161366646539055
0.158587376377207
0.160883833791019
0.15918920702294
0.157657789501856
0.153740135075303
0.159220203788575
0.161258232514884
0.157758646161255
0.154683427529907
0.157825524659068
0.156837575427832
0.158169028459041
0.15957152592018
0.157833438408584
0.153248566796967
0.155571806085696
0.152384146109182
0.154328758798825
0.152706757475571
0.156681779519452
0.152663202858772
0.150327475186665
0.153034527473703
0.151680993383837
0.150151059565364
0.150541519794743
0.147917618948448
0.154474274922376
0.150150104457062
0.147120717432856
0.147149234359092
0.148648259917159
0.143970954491621
0.146357017416258
0.145830797384797
0.150506191902876
0.147242821002805
0.146818971174683
0.142588783116644
0.143450116080006
0.148963447046553
0.146984588940933
0.14256069135182
0.145275562871399
0.143466846223686
0.146653698108462
0.144966507317311
0.143455248679829
0.144704075394796
0.145397219251804
0.138374476104213
0.138148896836462
0.14150883160433
0.14444289485305
0.141784225538216
0.139897336479451
0.138332226945755
0.138911292617578
0.136278849849514
0.139526432782995
0.136553133259236
0.137182103472549
0.139037943026199
0.140220367938701
0.135767854363562
0.135712783183778
0.135741484827989
0.135906792647821
0.133684644666939
0.132449663506989
0.133163638182512
0.135385758493229
0.132443460876722
0.131931555586322
0.130218677876244
0.133327394967545
0.129794251696198
0.131236332987831
0.132876439112926
0.131865632288392
0.129321128513229
0.129322068789337
0.13289472708255
0.132540344907675
0.130539671507769
0.132075696027737
0.128547712810876
0.13046789892683
0.129038167886857
0.128146888789992
0.128425939975513
0.128268273214321
0.12472576518162
0.129622996901075
0.125911978103323
0.128770018162624
0.125731203006347
0.125595899355452
0.125697313408301
0.126714796412213
0.123858987364621
0.123025983715046
0.123876915424417
0.122558606694844
0.11981307321045
0.121971776910691
0.121069922480201
0.122142040441752
0.121990417844003
0.121614926233746
0.119659522696204
0.119673709289595
0.118989060924658
0.120370657328269
0.118709884787138
0.11974166702432
0.120196795992722
0.121957336871755
0.117910364071926
0.11845421423019
0.11821070652422
0.115745244638188
0.114423998063508
0.116338344140276
0.116058421963071
0.113207467454688
0.113411748559935
0.112605987587278
0.113867260362804
0.11711319556036
0.110968985147697
0.112357804410006
0.111677437154853
0.110753368007839
0.107133921190333
0.108853092544602
0.112185920453306
0.110673770421511
0.106925673486899
0.108623787353662
0.10527848633388
0.106650652033556
0.106401225031737
0.104343103079725
0.103930201318731
0.107278428092524
0.106216913406687
0.107554963583458
0.107111180317702
0.106123975142874
0.102138713149214
0.102241329700414
0.101066585662612
0.102425941151873
0.101243594516765
0.104561634830924
0.100950106401921
0.101688169632635
0.0979017211250945
0.10008101315872
0.101272572286314
0.100153787088672
0.0974643032645185
0.097928380080354
0.0971306338680825
0.100478193117616
0.0971944675503511
0.0935280821611524
0.0954911735978296
0.0978918406970268
0.0934290365256002
0.0941860973464435
0.0948518167089311
0.0943010494552165
0.0934394913685064
0.0930004692624886
0.0915026995184192
0.0920254441987983
0.0914621800373748
0.0942406343230329
0.0910117075075562
0.0923329294686895
0.0922974860142539
0.0921338543009248
0.0892461006640736
0.0906837758423936
0.090984571325886
0.0894654475462035
0.0889143184473094
0.0862251473486162
0.0886988093157245
0.0917832212026742
0.0883412943235353
0.090197727441811
0.0877521248406284
0.0900930696205312
0.0868461659961601
0.0861895567295152
0.0858905709016018
0.0862416722271273
0.0854310300911798
0.0857228796554137
0.0818875702494993
0.0826621229907907
0.0837300116174358
0.0871690270080599
0.0826389714049138
0.0835913273925812
0.0822091767072706
0.0850780016339762
0.0814484774104454
0.0824792925399916
0.0815678687826418
0.0827885917493569
0.0813021913305865
0.0823974668314825
0.0807893420681071
0.0822819141721061
0.0801928380501257
0.0839754588345795
0.0808594441276944
0.081451508107517
0.0805944077416157
0.0827100950376181
0.0809049603451046
0.081166648181339
0.0784412830761605
0.0811290139544375
0.078651396001533
0.0815469294021164
0.0795243317785117
0.0797324270484267
0.0762910488745737
0.0804191526764285
0.0788983038432858
0.0835917247969544
0.0804697128512342
0.0826452126670336
0.0784278996623411
0.0789713266313619
0.0798665990279468
0.0793163901453147
0.0796793233244148
0.0788335349718392
0.0761148179884672
0.0808129875346109
0.0743397744784738
0.0759953896761536
0.0763084631006492
0.0780236627634333
0.0788691193368207
0.0834626878480648
0.0789508483297297
0.0789092801530728
0.0735990507360941
0.0818506104839021
0.0775489508564856
0.0823468754996742
0.0741809042469607
0.080666660792971
0.0776718116596292
0.0766036496620017
0.0763712651484721
0.0772151220163892
0.0737032618978564
0.084307579873593
0.073906632453395
0.0793638194678663
0.0730308255742649
0.0809275551888778
0.0672764467010048
0.0838316352180698
0.0771101745061749
0.0803447306935181
0.0711860716000303
0.0784101969035884
0.0583345625103664
0.084009811916258
0.0646637373559081
0.0876697225078915
0.0689162497381561
0.0872549689725355
0.0638188737562786
0.0846532511628101
0.0555941581939169
0.089222299668219
0.0583190383435921
0.0909108581164834
0.0537821553464508
0.0882534787657662
0.0601775996984482
0.0885322071218288
0.0556838313903775
0.0836471062138851
0.065604323069776
0.0828055537624388
0.067183498702573
0.0732126431030179
0.0722864787053114
0.0691396299803445
0.0770522287837158
0.0695280361815411
0.0809847984296203
0.0635136301654461
0.0793140475751292
0.0660621558979713
0.0782285004255763
0.067888721620776
0.0736274263164622
0.0705522532713096
0.0695471001315416
0.0711748071140664
0.0697223670529371
0.0703828605231864
0.0713203389220939
0.0673855239110807
0.0710354033167962
0.0693977008852364
0.0721285855856228
0.068058463426774
0.0700715726763397
0.0709527222807862
0.071678953118791
0.0678849860072637
0.0719019964741782
0.0686249660562896
0.0700320058746614
0.0691974064934332
0.0713653471749625
0.0706352681317042
0.0694702189004407
0.0672015320227523
0.0683966242508246
0.0694720402189029
0.0706456901578052
0.0709931032826808
0.0703215974735915
0.0681762162892706
0.069669269944437
0.0706258613458007
0.0699768059075645
0.0710036860439464
0.0702291075891028
0.0695900557055311
0.0710969920848326
0.071293749266395
0.0729340360308831
0.070917393339755
0.071976070585923
0.0705905794006663
0.0701578360933497
0.072904071006402
0.0719510814436393
0.0722843893584845
0.071755692927914
0.0699369962921265
0.0725915226552491
0.0693869089560562
0.0699685802131523
0.0706910985620913
0.0701812753300296
0.0729571197221793
0.0717803028343372
0.0711259207749695
0.070832376309528
0.0706207875431277
0.0713128090324543
0.0684181416014203
0.0726619353814758
0.070064832121072
0.073375136499758
0.0697534354488811
0.071726945278387
0.0720497880900637
0.0715960769324821
0.0722383092962813
0.0728176300897524
0.0707855360805512
0.0722200374478979
0.069858855892162
0.0720750032316133
0.0742307542194734
0.0739725532979649
0.0719699901746305
0.0746073331866773
0.0710316960131051
0.0706736998635078
0.0710665286979623
0.070830030684566
0.0731862629398048
0.0723208003278352
0.0739457914972292
0.0719277261511048
0.0740583916061963
0.072382168356906
0.0731907239221
0.074472979737838
0.075088487148534
0.0744027605652549
0.0738999794537443
0.0746724621508646
0.0744510818394606
0.0753266703509063
0.0740803271243365
0.0711308792221236
0.0727915262554712
0.0720674889390488
0.0752595288718785
0.0767908224827611
0.0740770370701447
0.0759154258970517
0.0736835155085123
0.0750430334900776
0.0761412929841235
0.075844679524191
0.076623590306593
0.0759371443037293
0.0751705908968464
0.0760873854711386
0.074397822415648
0.0746982123539873
0.0750214590729309
0.0753428065498564
0.0776018458091494
0.074658269552398
0.0761881597148588
0.0782223171987166
0.0768068463575826
0.0757529518738297
0.0753214569228844
0.078320916587349
0.0761244407108943
0.0775289065940013
0.0783281692891924
0.0772367799014891
0.077574283866398
0.0779276627444614
0.0764320689664468
0.0781789632112622
0.0773458133494501
0.0778669238580269
0.0770268040007396
0.0771581265102052
0.0788752891745396
0.0783891403745306
0.0781909795722354
0.0770440053491645
0.07783925217413
0.0781341007931887
0.0790677120695501
0.0793767335926331
0.078623852289305
0.0794047979024985
0.0782894885748422
0.0800393534623271
0.0822777602139015
0.0799139441371929
0.0782941257023875
0.0798187816051237
0.0783796268909786
0.0807253489969609
0.0801173806239095
0.0814786058011115
0.0808790727313018
0.0818858083891256
0.0813554441904453
0.0807678779770908
0.0801923600730216
0.080616403051338
0.0821601797098391
0.082341694804921
0.0804249571800825
0.082281037895794
0.0817945160206995
0.0815123316115916
0.0798704280284726
0.0815150220101844
0.0807427993983849
0.0830554084361288
0.0819372242104301
0.0830619295340332
0.0831914962291508
0.0814939897641897
0.0821074069672588
0.0808408937372967
0.0797797218185964
0.0821824585085135
0.0812559668522636
0.0806725608992901
0.0822458120293299
0.0803362330396865
0.0792764073343628
0.0794238954940894
0.0791959521444811
0.0801063726417595
0.0799550334278105
0.0811781008182142
0.0790967206967467
0.0786138103432986
0.0802385907511844
0.0785959081887836
0.0807924172001123
0.0804585077172629
0.0772067085541071
0.0772118764805339
0.0781137151608201
0.0781453338617879
0.0771115902804065
0.0794703016537546
0.0791605421931046
0.0790368633659546
0.0780803385246006
0.0779750323686726
0.0794512481682839
0.0800020065288555
0.0776142578461342
0.0791980142752965
0.0766548043858688
0.0772554640442604
0.0774217823210564
0.0772593620418315
0.0771465326234343
0.0768229311825094
0.0779120079265401
0.0784336164190115
0.0787604564155056
0.0798040054733934
0.0757719288265356
0.0769456444680672
0.0775008454102429
0.0775711171777204
0.0758687955405783
0.0758210418941166
0.0776408890273995
0.0775845024840035
0.074086516404134
0.0756145893770772
0.0746481354280276
0.0773330975867521
0.0766608214386076
0.0760277528047028
0.0775706390011991
0.0780882896655601
0.0745066939356424
0.0728883435297426
0.075445435363364
0.0761312251869274
0.0751459178135998
0.0746727722283557
0.0757209899727238
0.0740065385999021
0.0758863729711502
0.0755563810345787
0.075699193940999
0.0763983589778524
0.0751212573269666
0.0759448209571613
0.073790584162401
0.0741943241745514
0.0741135274173451
0.0750430217236557
0.0755996116548748
0.0756986100556917
0.075038864545463
0.0761023420623873
0.0724070264135405
0.0739377220031915
0.0748617596531023
0.0723168225896246
0.0750452195113787
0.0729409765613367
0.0728427775376979
0.0749436448527532
0.0742202423017906
0.0726657650635966
0.0733851197676109
0.0761712279900914
0.0726368439235695
0.0717186991507667
0.0739848024608923
0.0739397564381872
0.0730303575241855
0.0714767825219482
0.0700286902828116
0.0735292851892663
0.070332942444298
0.071396958427042
0.0711496720807922
0.0725434497973007
0.0707670837403804
0.0733615273311077
0.0702942397806007
0.0738715906310348
0.0720508376269942
0.0695786672958441
0.071127320742481
0.0717070552501346
0.0715331620232637
0.0712462325936574
0.0694824434122282
0.0689598737363905
0.07079155937521
0.0675455920168454
0.071217673231513
0.0704460721505508
0.0690479459328605
0.0685339179065338
0.0670245056133393
0.0672590813437667
0.0701807136203142
0.0676453350195374
0.0669985741524432
0.0665848949108779
0.0683198007761471
0.0669101590698594
0.0660302644801921
0.0685374855715297
0.0652766382661149
0.0673763498751545
0.0638004015387528
0.0670503786614901
0.0648986508358934
0.0656863048782568
0.0648131570017748
0.0655073957834632
0.0656760963355484
0.0651196938635868
0.0663512165079545
0.0640984464884353
0.0642406473309672
0.0644614723985697
0.0612562305287079
0.0642391711567691
0.0607831300190354
0.0623453308956688
0.0625099865600376
0.0642089627909053
0.0623723324053654
0.0628134750170423
0.0628918017937686
0.0626997250114665
0.0627220168576169
0.0597547193477872
0.0602670745272047
0.0620341556300578
0.0648197020556338
0.0618490652280325
0.0598733491196733
0.0604675163658073
0.0607605505394516
0.0621908045643279
0.0616720100853256
0.0621607603333776
0.0609706050843209
0.0612422867506042
0.0592091077051737
0.0591098037388425
0.0604615140245235
0.0611928337208835
0.0599316169081864
0.0608303039915937
0.0610247713315401
0.0595877005071575
0.0583666874838591
0.0598844906436581
0.0603726961226885
0.0608841186227202
0.0607000786509338
0.0584482050579673
0.0584200272595094
0.0592417714627213
0.0609349573135736
0.060159401694869
0.0578067213436789
0.0593131439709549
0.0579275475226147
0.0583220333344257
0.0596187874465864
0.0584934928585583
0.0600749920566515
0.0566232250431476
0.0546341958368193
0.0577280955460669
0.0575834687263054
0.0558120142527111
0.05527500410173
0.0573927220394752
0.0574829250962003
0.0583640786543669
0.0585947504880657
0.0560255703947879
0.0555081518684497
0.0579466498049494
0.0567180490752585
0.0574259508787665
0.0587933888076771
0.0577672797640609
0.0537361953772653
0.0589260570738244
0.0554898387751586
0.0596365688108639
0.0538000442929211
0.0577010077584556
0.0561186355150534
0.0557322127159606
0.0558993005047483
0.0558626543772217
0.0530203243710302
0.0556843586890737
0.0551666013202681
0.0564627991555591
0.0549874256730453
0.0562741012635588
0.0541506379559045
0.0558156839823965
0.0540039747912096
0.0571579686393043
0.0557976509486661
0.0568413633425735
0.0566416756108279
0.0584554017498752
0.0530549874484829
0.0562340380612896
0.0542063465804455
0.0612896216758925
0.0570214041468322
0.0541864780232554
0.058887210006308
0.0543308992589667
0.055954618147035
0.0535359144307825
0.0563569073104818
0.055119591609229
0.0564794940598234
0.0514313782058939
0.0548385136060568
0.053317406110575
0.0554312149157478
0.055858635289473
0.0538357530881547
0.0547252872682815
0.0570388943759641
0.056141326391009
0.0547648200298137
0.0542083379360748
0.0543833364444146
0.0541849441997442
0.0547539469070647
0.0560804468282658
0.0573827868945772
0.0528343417064536
0.0560233860875522
0.0553205335209047
0.0554938414792049
0.0539963891998875
0.0582473380812784
0.0536128442549885
0.0583887134056127
0.0540512217265609
0.0565556810935771
0.0548305239131963
0.0558568918444428
0.0556516235449676
0.0521540617377006
0.054823505974441
0.0557761426879869
0.0563565960962127
0.0551464706320176
0.0541168826185224
0.0551932712316579
0.0545010529004459
0.0548389911569402
0.0564759839786054
0.0538601540969193
0.0563947001919586
0.054465908656591
0.0565684389098607
0.0579660995223787
0.0562395123101487
0.0582373430518219
0.0533113805157302
0.0570923339460526
0.0522055967607602
0.0593840019003468
0.0540054187604929
0.0580200346738509
0.0558384211154948
0.0563650222193823
0.0540759210712306
0.0570755727747739
0.054598012648192
0.0588220844927444
0.0520742809969482
0.0567186086890986
0.0546848515026649
0.0583674043964267
0.0541895287029913
0.0570176432122849
0.054495938271709
0.0583047934878213
0.0566115818876182
0.0599120241486519
0.0563051043684389
0.0586792092521625
0.0707170733258317
0.0537949541238727
0.0608094848501066
0.0513901136280183
0.0604121141153239
0.0559191251812635
0.0575089470278382
0.0591631392353436
0.0579876709278108
0.0552304769499138
0.0587335966149273
0.053122845459052
0.0604121861313455
0.0551323696396021
0.058217296180218
0.064580439014654
0.0613675625064564
0.059417466173318
0.0588718655416058
0.0553654645535397
0.0684406870698594
0.0553223536780947
0.0594251694876653
0.0596147803321579
0.0590876230044798
0.0620006158822791
0.0586397042876461
0.0597977056634607
0.061867363016644
0.0616437765415744
0.0589875209755096
0.0622955728144032
0.0584029555134863
0.0601889366650823
0.0607112825842725
0.0603678012693383
0.0627884955073085
0.0608741396177701
0.0612103913999179
0.0631515589765374
0.0600358338597655
0.0643290430136172
0.061203107665069
0.0637483191556402
0.06266701181288
0.0659242835843478
0.0617710807225481
0.0648063444096341
0.0649613740130132
0.0595412794234662
0.063477220738831
0.064862228340796
0.0638653466622862
0.0653300714524134
0.059748532090564
0.0770683285351903
0.0577485394843152
0.0783444052855752
0.0631439442940594
0.067041869607924
0.0649706110432729
0.0693501307672352
0.062138670463421
0.0679453039032847
0.0699628578061236
0.0650427656024264
0.0676197257685736
0.0634345065246639
0.0727613094417857
0.0640166812413107
0.0721850793588754
0.0654903570936737
0.0701259118675888
0.0711653427751395
0.0779114859102246
0.0649006379700229
0.0804509886354678
0.0683270353813281
0.068884143300945
0.0784101558779372
0.0669417951082069
0.0773757742886743
0.0745158745368257
0.070598705841464
0.0756663560687021
0.0727854197276096
0.0763297284341092
0.0674970625558639
0.0816868809895812
0.0780796020644774
0.0738679354135362
0.0791662556585994
0.0740109577368045
0.0806961809030076
0.0845406101205033
0.0772696336736506
0.0800697441119746
0.0801600607268081
0.0805445905760045
0.0835684326766499
0.0973029448720126
0.0759423253172143
0.0967980438005078
0.0812222039027929
0.0898978161176604
0.0849228722564795
0.0922360168008153
0.0849952784673079
0.0928938265709229
0.0898706814341267
0.090277855070307
0.0853072187317775
0.103948737106412
0.0870710163647821
0.0976235020245698
0.0930197496165726
0.0946838827688479
0.0998482459004756
0.105368472649091
0.0949339557884444
0.105032829227644
0.098789963776052
0.104982906888697
0.105609107113966
0.10572242290087
0.107014372358921
0.106688298674716
0.105244007763288
0.108940513710426
0.106655861272614
0.111104734553066
0.111258543256708
0.119324568069829
0.112102034782033
0.120114640732769
0.118578332364622
0.13023483470802
0.119754063130173
0.128277217227761
0.128499779587279
0.125833669669899
0.130084857626198
0.126838417119181
0.131264851669945
0.131228947284797
0.13355039973772
0.134662227744796
0.138356556317236
0.150020150001208
0.138674630134035
0.157240690167086
0.140931357474377
0.156543195547293
0.153206732236391
0.169286048733074
0.173189179927284
0.16094477203395
0.172637905914236
0.168296695143107
0.200913498638334
0.180329267872472
0.192992649561303
0.197959987009154
0.199681560514487
0.207436944237264
0.218061360283167
0.219254423269313
0.226379467024551
0.233657653597953
0.239286937993413
0.24733076377329
0.258740839748691
0.257955379198311
0.274809778932096
0.269265794915212
0.279353265268199
0.287149062903472
0.300658537742583
0.300288560408126
0.315371499086229
0.309932854996357
0.335218888512159
0.338359090850142
0.339868816027654
0.337519655274086
0.362539582563812
0.372561391634756
0.370004433662318
0.399353981345537
0.385263294762782
0.404094331688974
0.395494301499747
0.415081551853822
0.414901220428193
0.427515235295984
0.432608928262921
0.442231724855305
0.43662825824318
0.450388170835261
0.459993060904849
0.465639706532786
0.470878579024263
0.476740841652806
0.480383501032301
0.497365444572335
0.486030886684605
0.573101950832254
0.484116253092025
0.50262999823375
0.492063029493772
0.498228947282325
0.516628570089437
0.501564953934564
0.522359293409371
0.503872522991043
0.505002627430765
0.510841651641797
0.508300456092085
0.515243702176428
0.50859529937703
0.510700183716368
0.512667973449865
0.521994756626343
0.506932198322674
0.538420272554472
0.521279464101782
0.509444121460628
0.505456999538432
0.510088580824427
0.498019079309692
0.504123369554761
0.501404522937413
0.506207224374185
0.492861157694565
0.491625074959979
0.479907172514489
0.490639647259291
0.496484405107282
0.479565526424988
0.480025424954817
0.46911150149474
0.458779619392242
0.464095805042783
0.442424559132346
0.469473660854356
0.45641592201935
0.446197506258851
0.435523592026625
0.436214126883726
0.431239657930934
0.426118142598471
0.418009193529224
0.420448797795725
0.421391824603264
0.415294535628623
0.415107702705894
0.405114464492484
0.402814029972961
0.401699811600031
0.409604595732263
0.398409425377579
0.404537860814567
0.403874412997086
0.39406770682093
0.399272119563448
0.389523219194818
0.400841877593765
0.392260423418018
0.396108956825091
0.388986747698352
0.394006775792902
0.390812201053461
0.391084847393087
0.393748694306863
0.388738964035934
0.388639059287137
0.386635939651796
0.385135743340753
0.387032510380063
0.388847448787482
0.390584807961079
0.384761302006032
0.383622734765529
0.382259630937291
0.381843958788828
0.38236494861049
0.378290744524024
0.375809257808891
0.396627388680404
0.374713375600346
0.379615727907672
0.370485922059297
0.38136789404536
0.367135678202633
0.368275429944346
0.385488375594066
0.363748857750253
0.37042637815081
0.364456496898101
0.361018683748
0.363781429499488
0.357407752321547
0.356490806546975
0.356886753861328
0.347379706699722
0.37281237178874
0.356402519906444
0.394670740932348
0.358466193228191
0.350969422146175
0.340677766508991
0.359898394311316
0.349346548690436
0.342414213074215
0.344713522538607
0.333620160059919
0.356231566625408
0.340680193859623
0.342981862471208
0.336583017170141
0.336989209545238
0.345389789263935
0.336181201701076
0.325225384542683
0.344374523956253
0.335008130676558
0.33178771088023
0.353435238655957
0.330624887100489
0.31592935254939
0.309444976883649
0.30978303879456
0.307479102869512
0.311630625204124
0.315482683958212
0.299507967010156
0.30602399466298
0.293298292381271
0.294214328526255
0.28982195503228
0.298012596148914
0.282069512800658
0.287784704457307
0.288520956312603
0.275460944281331
0.28676534930704
0.272380327885076
0.284959231085049
0.273529451799226
0.272554300038484
0.263373189915224
0.285517158623972
0.276057381416647
0.265931465889015
0.264442286732859
0.257717238088529
0.260516220822937
0.252948089227689
0.244604760625111
0.255790021880237
0.247245308134518
0.246147320398543
0.252328189152909
0.245948218329061
0.244990327317416
0.238199627721711
0.236297269547995
0.235528734527679
0.234585084419547
0.237227040206546
0.229661935296011
0.252431919521957
0.227520513995282
0.236826031121555
0.242770871931649
0.234746298034166
0.238178050308184
0.235571186882649
0.237608562967056
0.242028915214434
0.248003828291373
0.254287546586747
0.245073906233763
0.256546648548225
0.255809173759018
0.253592600829564
0.254175297829088
0.26193792121859
0.262714699175415
0.262839931836488
0.276375047744594
0.277638845128117
0.280827470083276
0.286986015432889
0.283796360590898
0.302447538215928
0.301194877999999
0.305667173987221
0.327784439094794
0.313886121746111
0.344243840646112
0.328952100513743
0.33976449578184
0.33766200422325
0.34455164724907
0.352998595822166
0.355649554561194
0.362973138636923
0.372280869378311
0.365438637901072
0.380514041865905
0.375761438320791
0.387011889076527
0.382310733756835
0.399090918703825
0.38498515260192
0.420136274886338
0.404939404884354
0.412472594304511
0.402419121248102
0.408308049667487
0.410831121366626
0.413091241788618
0.410983683229376
0.414235459794045
0.420815575158161
0.429115962421312
0.416458694731759
0.423878105212868
0.422499776348237
0.428036695617702
0.42597200450512
0.433851965726219
0.43313695498125
0.43743360229146
0.444342723197223
0.439303506774554
0.440838091831393
0.487346769202805
0.450325078556356
0.462129556617902
0.44929125459563
0.463434567200636
0.458721116358355
0.466512517503515
0.474015209790438
0.477851008788451
0.473375312625939
0.484612759080182
0.480163520673548
0.488498508181587
0.48741915946118
0.495579931333639
0.487314206983302
0.506347964951817
0.489927089132802
0.514788744337072
0.510691900961125
0.50987016981001
0.50690572981902
0.513407161626889
0.513825351508181
0.512055691838932
0.51494520224454
0.517957769156577
0.519278914230221
0.517994163727005
0.523893723453206
0.521907890675893
0.523914476649825
0.526165215372508
0.521998870878941
0.521421244565423
0.52176267501714
0.519330350163227
0.511870525574058
0.525552670432133
0.514637617177516
0.536076135312436
0.523714828907298
0.517950403568451
0.518174835052392
0.523278876994361
0.51665559439926
0.523388263211015
0.520699238153239
0.52208113182274
0.517064218142003
0.523218964246585
0.514962537792714
0.526210309689697
0.537397135438286
0.527789248824288
0.526799084261054
0.531240520237621
0.530597179866141
0.532968294597967
0.532051284333059
0.537772833582057
0.53840665256009
0.540711267708929
0.541115665396634
0.545188683790679
0.542167345231398
0.550067798373558
0.545507848752806
0.545609594871366
0.539263514241031
0.54829703032142
0.545384088296818
0.541312784636306
0.534791700474156
0.538551615203628
0.525087733128516
0.528130198089711
0.522331674946135
0.516647210874033
0.518584481278571
0.511983660722091
0.511999511304874
0.50443586681868
0.498267131018962
0.494745705551719
0.494705616186516
0.491560011346656
0.482673456948343
0.486108526283415
0.484662526450269
0.483064586629746
0.475724928436095
0.480076508466518
0.475619052420249
0.470335033471961
0.472820342544449
0.473427893662835
0.473985983715651
0.46893448154832
0.466022371611645
0.468946869469204
0.470913127704512
0.469935346563389
0.471657731802317
0.471307518761003
0.470287642639917
0.46672256112006
0.467242003371888
0.470763241975175
0.46552082169234
0.465207410933872
0.466057240474226
0.46232450808476
0.464759331467676
0.465506495971237
0.460255947876247
0.462852502207969
0.459374861548776
0.462680499606306
0.461529371000761
0.459847420758524
0.458617431255557
0.463920349662431
0.457557620036262
0.461395230818277
0.456918449513538
0.459859328384766
0.458873585182277
0.461726425164538
0.459194405710001
0.4583879902919
0.461530135113677
0.459199683238499
0.460800100734799
0.460365390533171
0.460949811789894
0.45768103613206
0.45513844677875
0.460446588072576
0.45816491171826
0.455330878478356
0.457905515519339
0.452863251975676
0.452152917796946
0.445487825913988
0.446066601958113
0.444041038264471
0.440330037790276
0.432291518971354
0.435904015950186
0.435233890486032
0.432278424912472
0.428379468601736
0.419808103711735
0.420060964148589
0.417858553182024
0.412168691445341
0.415034015064145
0.406221027138482
0.407731092169652
0.405442469698424
0.403703616760413
0.404331674696081
0.400564897727482
0.400461076158869
0.399432965882765
0.401934097425199
0.402238076766014
0.39720949120307
0.397757825907901
0.402751593658555
0.401469361328281
0.402489321817259
0.401816935065267
0.405316986035939
0.407012736173334
0.40478111987259
0.406108862959748
0.40755634873125
0.411157479532935
0.411989577925816
0.413956789009402
0.413417743729448
0.418623940112881
0.417257556510491
0.418846524399704
0.421550049172417
0.420449978439587
0.421291229600371
0.424281237477736
0.423222304217376
0.421749856181126
0.423532679780813
0.420951996560651
0.426627586617037
0.419936259760553
0.422559401297463
0.419382060102536
0.422001557502577
0.418722823948979
0.415525241040776
0.413073093495951
0.418072254487442
0.417231289351968
0.416102965986797
0.416194157054476
0.414015650635962
0.409137311468979
0.40655714169478
0.407817382514984
0.406291250481526
0.403616404956991
0.403055006016662
0.402424577147715
0.398464173818279
0.399002046805221
0.395923114985479
0.399108742573588
0.396542745896984
0.39260171240968
0.395654000224156
0.389512007516535
0.389654107233657
0.387434192332499
0.386953872337373
0.388072805655778
0.38319632120236
0.383003898045755
0.380602486785497
0.380864292120275
0.380807539245728
0.378390591161866
0.375588683006324
0.373669943543374
0.371119231560393
0.367591359278909
0.36820668187045
0.364913053712974
0.360929582651268
0.35965316795376
0.356575736059768
0.35424318810641
0.351932767834166
0.349724289083245
0.345817812056313
0.342650483111806
0.342227517114397
0.344388199984733
0.340686087152849
0.339910988486288
0.338825811118167
0.336584891201576
0.338020614249345
0.334586779454007
0.334520378688623
0.333843730357868
0.331225289435919
0.326694305168755
0.325283575086302
0.325372513467266
0.32102070620493
0.319225605611576
0.314135109324885
0.306655955531703
0.304476448979998
0.302206307210502
0.295802319164235
0.294566012142684
0.2953876200827
0.293848312215712
0.294460426475604
0.297151293875052
0.302804678504767
0.305769749491672
0.310209949175745
0.315299773292087
0.323588804358042
0.332934887957105
0.345275275946987
0.357002012632283
0.37096389095251
0.383451524851159
0.395729460674887
0.413094512750248
0.427110212906682
0.442216569829688
0.453613909823788
0.466753974345181
0.481204635207879
0.498917684932739
0.511468786227029
0.526473401757963
0.541406928164283
0.555192593129707
0.568192090161706
0.576954369475721
0.58773294142993
0.603322491594085
0.612841304029699
0.621009344582658
0.632080105272851
0.638122728038911
0.651472527633506
0.65763440832341
0.667792314438759
0.674355873859529
0.67042861383412
0.672179861617866
0.680529913228249
0.681120458635692
0.679927370310533
0.67647188680879
0.669299207136298
0.677430171182865
0.684852889954393
0.678256193621921
0.678536256083886
0.681751466591171
0.681509630724671
0.683122808288889
0.686746745430183
0.688776008048099
0.690735008157081
0.700779329658613
0.702893243906122
0.709281272593986
0.711557485849092
0.721743227106293
0.721574497140855
0.728927633021735
0.735082165787852
0.745800713230456
0.758684202572308
0.769943060295901
0.777601877766651
0.782105799364592
0.79340194333495
0.801116878675947
0.814413142448008
0.832481264771063
0.838790465307891
0.842438485517619
0.843880841372372
0.862894937197867
0.862813435305892
0.861642060168822
0.860313670156989
0.858412035521591
0.866488402619399
0.863660977877571
0.855469507296589
0.857505824103039
0.848485970014257
0.848705564263361
0.849548027600854
0.853742082324723
0.857518742864126
0.85843860533344
0.872027396016371
0.880384594681847
0.885412981006514
0.899783680369198
0.911971047257232
0.927159073951947
0.932454409649952
0.956830934070808
0.96650996922302
0.984171666230124
1.00971776186255
1.015166197179
1.02891382673547
1.04507561180931
1.05486529688436
1.07190417321997
1.07269566475265
1.09969329343049
1.11561848948265
1.12420384601915
1.15186698579684
1.18041590860658
1.20073969599196
1.2229975246671
1.23851912180797
1.2460213090663
1.26632694308996
1.31504370929426
1.31870447612124
1.3132585033287
1.34381646079841
1.37892837574085
1.38771558809008
1.38435953550839
1.40249351083474
1.41612784341624
1.39020984688352
1.42892129765577
1.43082018509115
1.40803072908564
1.45403205001128
1.4321869344053
1.44779997479641
1.44590780545134
1.41266940743637
1.45804533075096
1.43347968001117
1.41684591350332
1.39064778159797
1.39902043097153
1.41253630308749
1.4364433768806
1.42721492563198
1.40230413906896
1.42836957538315
1.470974679873
1.45967022074834
1.48246060260884
1.52193576968423
1.5527813603586
1.50094451672157
1.49090169804844
1.53619662570482
1.55154705252038
1.60197489364414
1.64240845422775
1.56115855288341
1.62048986922911
1.6883784765167
1.67163310442385
1.60935619782993
1.65478245042622
1.70754904843167
1.69905550718183
1.68765689661399
1.71369731786831
1.63892753131017
1.72506560637122
1.76927483266591
1.72785027603636
1.77038949771594
1.76341769815842
1.69102283953749
1.75932811107598
1.74537257536645
1.7279446338368
1.73011512276999
1.76231033476072
1.72987026675237
1.73032773120892
1.83765116229398
1.79632646933051
1.80846618539783
1.77965821793587
1.66461436748101
1.7425007673625
1.67907589658943
1.65216638877611
1.66931248080848
1.61456196348455
1.50943600720535
1.52038651323059
1.46161876306921
1.40768006600858
1.39226343835359
1.35281778304648
1.28761751718106
1.27111818014849
1.24526594440133
1.22754493888856
1.19711212227761
1.16034412513112
1.16360221876232
1.1948635200651
1.15756309228723
1.15643431472615
1.16097490865414
1.11821344919574
1.10417004592418
1.1103557083845
1.08607913654764
1.08399059904923
1.06122240947796
1.05178809159072
1.0264290038965
1.00540634907169
0.999964577285813
0.971119282515647
0.935049513611913
0.900854922343847
0.879604863086012
0.873829775064295
0.838608472981413
0.807002553350683
0.778282041689295
0.749951849571639
0.714616770567394
0.684053014691152
0.65988395571289
0.627157860588498
0.601618620277978
0.577971978922189
0.555255630797941
0.537794952715992
0.515075038073424
0.501732497816539
0.489719378327588
0.471837270216081
0.458036300090019
0.447057698023933
0.438183998342404
0.431410302551369
0.421677065656544
0.416016694969694
0.408526428601639
0.402228935221077
0.40271808502499
0.400276555033662
0.400861349737557
0.395658129065632
0.390263820973153
0.393610194982845
0.399099768130825
0.400224283720447
0.400470675303659
0.405112816324301
0.405959591444132
0.402276563503642
0.399422730762959
0.404768110932995
0.402098799690005
0.402274812692034
0.397560470346496
0.393142198312785
0.390171358611186
0.389750117369151
0.389071821202034
0.382418040110098
0.376436111022314
0.374974653598857
0.37039482441746
0.370840047951774
0.372761061655752
0.37088819092153
0.376626282679094
0.37669640576255
0.376012983516517
0.375526196147352
0.378471599060393
0.382359740224741
0.381925176302635
0.386982303024186
0.391670083027727
0.3924352569278
0.389962609445428
0.397627688546062
0.400644576910154
0.402634017467164
0.400425864501164
0.40243255280325
0.403999812324584
0.403142652227496
0.404798909925145
0.405218535636266
0.40698490066244
0.412310490749723
0.408829361571211
0.403887878049433
0.407550325509035
0.412234472829702
0.416443700271022
0.419164829533842
0.421538423764469
0.428465318238398
0.429792956589445
0.445141631895382
0.450400598556146
0.4564831962562
0.472996853144833
0.478668675685834
0.49392611401564
0.51110605282895
0.512324993012896
0.524253458838163
0.536744584580316
0.534511874836331
0.526644086367582
0.534097242143928
0.53448660797539
0.529594887559128
0.519136137460715
0.516906172455805
0.512436496885242
0.500362363737655
0.498965356525397
0.483463446272461
0.482173993141924
0.487563345503272
0.484316713692851
0.48353283048257
0.487027004962115
0.487192215090104
0.486197447246513
0.491348376597551
0.491673687195825
0.489362713270482
0.481207147174264
0.485326861853609
0.483523416087417
0.471844957489296
0.463110250467364
0.461595348222939
0.465261281358097
0.455562688975664
0.453796638880616
0.455118107982593
0.44989663864405
0.450409899616198
0.450995393806205
0.44524283526535
0.435851007772095
0.439383179996062
0.437906075854848
0.427406874820464
0.434558421749687
0.439531904034816
0.429299895749056
0.43787288247599
0.43711876691064
0.422078505895802
0.421177501465872
0.429312837542379
0.431280183737113
0.426328125045587
0.42226278671804
0.427974045282032
0.423761684261525
0.423357005398704
0.424979338448882
0.426703938573938
0.425598238489116
0.414672258936525
0.416981641028092
0.410060159373648
0.410223702739517
0.410679625441451
0.402563284195371
0.408068770506431
0.414462598816567
0.406992588443242
0.402769461029589
0.408800281375985
0.397802058071743
0.404937988498719
0.410265287487004
0.400864954648217
0.406156582503304
0.403168955401361
0.396922040382467
0.404493463995229
0.408595102456601
0.41025838380806
0.406866676620057
0.408139650563617
0.413131139001055
0.425556739653474
0.424587152003845
0.425889925571113
0.423551743092106
0.418050370190671
0.430082609192769
0.422254515578464
0.412946998960924
0.418721564518494
0.429527576347286
0.447982794649094
0.455877696772609
0.445836896413424
0.442461601782514
0.442840645398446
0.460213664667238
0.466852142127225
0.463554175814385
0.46476640601045
0.471183097206474
0.487364459049913
0.485094520593838
0.509326471243226
0.504362256627025
0.510764869603098
0.531384573347262
0.540388067251455
0.565260097055293
0.56742068760897
0.593312976188964
0.615442495666642
0.624995846468712
0.623241547837453
0.628705355296974
0.651789338780524
0.675383753076636
0.674051401986748
0.672767790837396
0.69038279188693
0.649855043548428
0.652908897870256
0.700863033229426
0.695683910290669
0.670634461730988
0.674471196967295
0.669857591073472
0.657677281974966
0.653831137020463
0.645117983595691
0.665271284726416
0.658615034156148
0.66323995768404
0.670215683335753
0.656984805920874
0.633708035339166
0.642088717092181
0.670177411487864
0.663981454881348
0.621279060034762
0.622989980922823
0.641290761122661
0.636919861168192
0.624086676469095
0.671110881319377
0.660612375917251
0.640528983433815
0.634593574242445
0.620665770332603
0.625589208663945
0.623005803523727
0.597755872036026
0.621078156980758
0.630248640036779
0.610431520849162
0.608110304869735
0.609549253199019
0.589962144491706
0.60559242681173
0.618160520645994
0.632013100221211
0.620326286492867
0.658384673206942
0.611159988715955
0.6231479688622
0.641692985975406
0.648657131463089
0.630587881202327
0.622737205933218
0.637408800571338
0.609126092638993
0.665688586278048
0.674639770691291
0.632910522462166
0.667054239196595
0.63759539461506
0.678821870953099
0.69031866181141
0.729450439552232
0.691495351994196
0.565121399647011
0.639301154559497
0.717773209649125
0.682611840824916
0.676109265824602
0.715761703798117
0.720467465089992
0.63155274337883
0.73356731971825
0.725130756887504
0.699998930760412
0.724133554206847
0.756896227874916
0.730707492577312
0.857533925610495
0.830458152448255
0.767133261574159
0.794404829565137
0.816257980134241
0.830460248008073
0.804651952561134
0.833178211147397
0.984333173024104
0.844465029875708
0.796786385168773
0.793035737129114
0.864693015878726
0.748750389614046
0.836260723511977
0.782729969445248
0.842802895750266
0.873606985238705
0.862292842482911
0.792406688948476
0.73797930134763
0.877243728241919
0.816224553323104
0.759463434573647
0.926228859196513
0.743766519175584
0.675610250992532
0.698506429696296
0.884946530539968
0.92826060444865
0.729786457300615
0.782961190177301
0.90790411214612
0.67966510742853
0.767480895050523
0.874484694292627
1.08742152919585
0.875388381961234
0.804582035953891
0.74902384618585
0.640080201494093
0.663088123358583
0.906321646204127
0.796653633337689
0.850961234283608
1.04557083343671
1.05184435668989
0.7002540225058
0.896367404136043
5
0.934107411103049
0.974108805550267
1.26247694338415
1.04496953067739
0.876144637049755
0.728116339545652
0.696783819702729
0.675829644732327
0.757950901498983
0.574975140757782
0.894566553660458
0.870731451192995
0.867972454770706
0.745277882223506
1.10416764158502
0.915595520210293
0.579629305925071
0.569345328159557
1.47928061437217
