3596
4000.36533379555
650.420452594757
1
2
2
0.0379215692976417
0.0381227124022261
0.0166974321060043
0.0398207724052103
0.0313551702232454
0.0351270580478597
0.0314299289609138
0.0384877733101209
0.0399361497993585
0.0410206320815044
0.0344352009817962
0.0313281028472657
0.0445574466554024
0.0406379948375507
0.0439053252408028
0.0382730948327926
0.0358205045165845
0.036086934970549
0.026741739908522
0.0422933209787397
0.0346550830790317
0.0406901963981546
0.0315689268476892
0.0415751564319078
0.0362454521118842
0.0343438195832616
0.0361940250912313
0.0411223361591566
0.0295480984813789
0.0392434293736326
0.0363061748582335
0.0353910009768432
0.0320680097293815
0.0346308162260907
0.0271515189729319
0.0350892589702101
0.0354244360324019
0.0374307413329567
0.030051460654159
0.0371946474155438
0.0312572693752499
0.0382464503924809
0.0335818243262596
0.0392221662794675
0.0372541721351733
0.0332151238839766
0.0359420609530379
0.0396382762822228
0.0311021186023642
0.0348795547545743
0.0312909167524116
0.0353335703565377
0.0392399229952994
0.037950048634275
0.0357424142893115
0.0409161108769854
0.034529857695424
0.0374798142085952
0.041751814687522
0.0439246551921831
0.0345604732748118
0.0434090482492518
0.0313772060320626
0.037676790208444
0.0319764544861925
0.0313832889224531
0.0365891378692088
0.0338117305690407
0.0367020240923346
0.0420831874573406
0.0319187496830402
0.034690803558973
0.0476200047292855
0.0327641316045222
0.0327030090580769
0.0411987937557897
0.0304397203292522
0.0298933407578949
0.0434147659121205
0.0364476607023839
0.0355617777093551
0.0372815293959244
0.0321695406050125
0.0334822514126022
0.0327336895228941
0.0364750610255176
0.0316424362779422
0.0340822295847642
0.0376834686133812
0.0303394554048518
0.0362461429289291
0.0368917133140972
0.0346616095646772
0.0355329186255767
0.0387309164888072
0.0328934617431784
0.0298418778488082
0.0328873902863949
0.0412585393221333
0.0301023389091995
0.0345585816516895
0.0443021225740226
0.0223095008642664
0.0485995533037459
0.0163473559425404
0.0327415955875026
0.0292150901476972
0.0330349515926454
0.0422489935739306
0.0281585358779281
0.0337214351458315
0.0266997483036162
0.0364100443087646
0.024272694406842
0.041709434871492
0.0366930231470564
0.0351981224854768
0.0311222014374249
0.0264048791539254
0.0210276458545549
0.0422590675753302
0.0323465955236659
0.0229995166851949
0.0345492267389259
0.0356306077553869
0.0293002664444597
0.0397135742408526
0.0357359177799541
0.0300604556161931
0.0346839295809775
0.0249680417277504
0.033797685290596
0.0290110567222987
0.0363125195327845
0.0256167192757981
0.0358687147550179
0.0175622053769458
0.0405688360873602
0.0262210150123885
0.0239531573358038
0.0377070341618355
0.03113089628762
0.0328047671282847
0.0401743895190383
0.0293971791577687
0.0252764299066056
0.0276477207917054
0.0371253630401008
0.0335692761395548
0.0342269602030035
0.0246127865113701
0.0310392322141571
0.0258261749144618
0.0252837269657924
0.0470359041961407
0.0185763785543732
0.0231041108303201
0.0571276638666839
0.0137148380849444
0.0497768763003072
0.0168753940514577
0.0436292413805835
0.0182320507995721
0.0328289792124156
0.0293978577564086
0.039581576943925
0.0282963864020094
0.0352082972873766
0.0320215034600063
0.0442862687718043
0.0332969287125275
0.0271295354086174
0.0504574341039582
0.0210201619755162
0.0358344234888599
0.0373844338085461
0.0299383991058408
0.0409390600082259
0.0282505575320124
0.0356861412934268
0.0188334360026414
0.0380125852405419
0.0241162331522935
0.0399031524832817
0.0247109191915648
0.0309419546949911
0.0319781231985721
0.0307167796212326
0.0304795833128154
0.0368303893480101
0.0294959993411646
0.0410210588279772
0.0241780895170653
0.0351471210250494
0.0198307647974308
0.0522181512102806
0.0231772315139712
0.0402485246918287
0.0340416245319296
0.0257400737324843
0.0334393574692486
0.0307591915875535
0.0283751052251782
0.0357797321216468
0.022171866765424
0.0480996211938429
0.0241896743254859
0.0468609592887906
0.0197721448450555
0.0306498773344945
0.0315797064186931
0.0471471627998947
0.0302455184999002
0.0444144081465331
0.0335961634870924
0.0317095780103527
0.0396093942217299
0.0446379509576822
0.0299256869372816
0.035974978456912
0.0274043614627702
0.0315851676109648
0.0385369831615951
0.0361189429763703
0.0392342605405906
0.0335430112593719
0.0333906914074763
0.0356523314342739
0.0272768193218497
0.0362805452221998
0.0410811648148019
0.0367470073613123
0.0331418782028629
0.0296055184702832
0.0340695069429669
0.0372621938255085
0.0304047846647071
0.0422133943147213
0.0300815465822764
0.0403942743431374
0.026376139704417
0.0412179040676193
0.0340825362327226
0.0434132908360347
0.0283070317680369
0.0644911176472902
0.020422077596604
0.0432807944354898
0.0260506094350052
0.0489606841571186
0.0265356814415826
0.0415543338849345
0.0369110987172734
0.0403502123668984
0.0316715521800366
0.0379059216993636
0.0335356165040403
0.0339032258887186
0.0342373619933964
0.0385597297974846
0.0309880238653534
0.0361080600851277
0.0450502176530876
0.03667672642228
0.0601662551880229
0.0280214830450502
0.0397659975997912
0.05147560106442
0.0189339764836574
0.0470313735793772
0.0372800238296448
0.0320491897217856
0.0626347141101454
0.014241206221058
0.0467391926297105
0.0401533112264968
0.0444993062371388
0.0322208189152201
0.0414566668609166
0.0369716102456977
0.0483299235852554
0.0491635064399916
0.0438606924849001
0.0807413243156431
0.0172532278142491
0.0642350558891715
0.0361793915158984
0.045794716669915
0.0383518482772071
0.0385757199610045
0.0456460714883092
0.0521559954541931
0.0406803836075639
0.0462348068061786
0.049770479020035
0.0399951728756894
0.0582846760599315
0.0384562871509373
0.0580938047397597
0.051954479551922
0.0532517890178847
0.0364894880696376
0.0537857930908794
0.0402275945660319
0.0500411175795553
0.049158508600798
0.0468194214521446
0.0580910734437037
0.0412783296090922
0.04970715469627
0.051635709011016
0.0436456236112006
0.0549310337335797
0.0458601898279015
0.0544632362675129
0.0509232501465791
0.053554692821676
0.0461919513158923
0.0659126726524883
0.0584122755334432
0.055375005279846
0.0505993557637278
0.0520092121709346
0.0568775889901486
0.0659956296207317
0.0573134931424456
0.0541404337253143
0.0656622098581126
0.0584742634918198
0.0635669657963041
0.0722065767679733
0.0485364355438964
0.0766958816093999
0.09009505691099
0.0551493765989818
0.0669369842194264
0.061052609493809
0.0723820125650375
0.0655022999941145
0.0774070903467015
0.0668142932955376
0.0766989850348217
0.0829390121243267
0.082649101430576
0.0777474866782183
0.0898024492162746
0.0891552611367659
0.108767447138766
0.0750537643942504
0.0894599846509931
0.0733702786601638
0.10352146518545
0.104991619097996
0.082496175301015
0.1049959125117
0.083305800319097
0.0994576320160831
0.0951077184704616
0.104056459621329
0.0930087802377042
0.0987603172063464
0.101581910856377
0.107362469739102
0.103025273572681
0.109444569783747
0.11232369138766
0.119791465105781
0.131251920488601
0.124332952578579
0.122969864113453
0.127832023081807
0.121229107392641
0.146091852951213
0.14468155752128
0.137752315639602
0.159030808627796
0.136273637749853
0.16196014801304
0.132560679252887
0.153482941296881
0.144241797331777
0.16056459482866
0.161077995996284
0.165232411954706
0.160710147698599
0.165892646516808
0.167538710058781
0.175726610833143
0.166790572655242
0.184371461207588
0.179097793525832
0.193291396441427
0.184534889410185
0.189504480278609
0.182409600699273
0.212627051494813
0.209709586113525
0.223988825446896
0.211900207020475
0.212543948386709
0.20573144227031
0.203424297997933
0.222444972360385
0.218678382263214
0.234980870973391
0.221580056606413
0.24893083901704
0.241454814430343
0.241413320820445
0.239280923673512
0.241846396559315
0.252493685826616
0.250091064276216
0.254403489937933
0.270101438785168
0.254899174371101
0.268404770897759
0.279085026442163
0.303641228326203
0.258950677901792
0.300147564849516
0.264336074123
0.30230956201472
0.285308205567092
0.302048802152528
0.288471505427273
0.320039358310513
0.317308219225028
0.324261039827691
0.31401150906139
0.321710813368619
0.330072544522234
0.33732883133413
0.333361035554698
0.337826666797231
0.333655937522283
0.338647770910547
0.355597585729561
0.348028529871022
0.359978416310989
0.370955091908224
0.351049633151998
0.393867579596045
0.36028550145837
0.377287724920637
0.364884514326662
0.405568831870513
0.375700661720677
0.39751043089474
0.404624668106854
0.409211805657617
0.39854133609556
0.420307804908613
0.412650454824305
0.42418024944768
0.420578314767217
0.44882530650892
0.448866046505316
0.449847889015514
0.444582504769346
0.454287924246748
0.459398283034477
0.489537390944842
0.476205096896587
0.509440406116997
0.465611336442749
0.490441941343103
0.457126755536392
0.520808394872075
0.469536629898324
0.499004853202803
0.503151816212755
0.523869466159454
0.509789534208583
0.550694997078964
0.521684904683009
0.567128744772265
0.505764018038319
0.552173731816868
0.562216493387933
0.553370693271027
0.517397726908403
0.567367605536678
0.545364115392255
0.595850927356858
0.56147488250667
0.584521090796924
0.56613100701372
0.621033341486666
0.566382762111621
0.612678883781796
0.599125757255405
0.620911338283462
0.571562771207052
0.589020509276212
0.609628835947214
0.644195964682153
0.615697198089451
0.66744508156236
0.611625627573114
0.656525906426013
0.634106968656268
0.656249800899418
0.654504994182131
0.674211052514014
0.657647330617536
0.710716713903023
0.680716724803876
0.680264328872711
0.658593482240772
0.729116884892177
0.674647934608116
0.720469774746542
0.686916079681217
0.751094983717573
0.713241205651614
0.764403668792141
0.714878040866094
0.763833204200227
0.741815493739156
0.749983175174644
0.709530292646536
0.75978310881856
0.734814566127491
0.754742482687441
0.717755100718486
0.813312197262864
0.704044702061705
0.81243250688513
0.809313466179876
0.83922181439058
0.759105713988163
0.793393855293562
0.786024153825077
0.848544794702823
0.793057126297599
0.919655107880418
0.794841327634725
0.852600316038256
0.820831951442675
0.827066808070708
0.842751022966768
0.891116738265128
0.8569615993869
0.889891232680903
0.820697110101218
0.884110183961887
0.869916456263941
0.900782128504185
0.848256100981121
0.956605710561885
0.878400829658729
0.905666039153258
0.901640706535414
0.974387379146845
0.893713112847638
0.978520753982003
0.890280765701894
1.09219182482842
0.922782570778225
0.962963420492198
0.934434921373803
0.954329799609936
0.899240229192033
1.02792588736234
0.931952001266124
0.970219570732689
1.00786424130464
0.96436095518774
0.957941954415904
1.02727203966301
0.979385957714613
1.07773089027851
1.01598897560207
1.07954446552173
1.03337803007801
1.12014396229025
0.930200209727823
1.08807603032215
1.03272979327051
1.17242635843912
1.01059117349593
1.1238300754458
1.01521208208706
1.20182841389638
1.06743253100586
1.18283778965796
1.06371469813086
1.14388102160725
1.04512647252921
1.13390251130627
1.02628978316548
1.1274157671692
1.00445691415615
1.19953308035327
1.0928089417595
1.12890300472282
1.14071617254842
1.28830945128221
1.08752627077117
1.0893332888828
1.13823003656606
1.23135197164804
1.08592857362656
1.25265923197742
1.11778023063399
1.18867786974777
1.17408734507789
1.42228035149792
1.17398710759782
1.23885026385853
1.16654285756067
1.30407625035815
1.17874880691824
1.27813173117129
1.23895061363544
1.24146753927277
1.21816700404046
1.28778457815573
1.19539803853388
1.31883615717987
1.20165057352216
1.34390050637177
1.12124442571353
1.44382019166579
1.14781221087562
1.4554046056177
1.15653631190422
1.3151034766594
1.25324113512638
1.40647553920724
1.17689335217834
1.40145459042124
1.22893617190665
1.42413353574049
1.27449145068768
1.32664842181396
1.25923232431831
1.33795562711194
1.31491244921441
1.33385976300209
1.24625885348867
1.33248999796946
1.13899530107552
1.50501371759916
1.41051013739365
1.46934503806243
1.38703589730786
1.46403514455766
1.23634175384506
1.3510425097459
1.30292377929254
1.49455116926518
1.45435850508213
1.42990139449069
1.35015636467588
1.64508794344844
1.282256921169
1.44666127045419
1.31004463392725
1.58846698932872
1.37734786246563
1.5071767376295
1.36724464402041
1.54441357846134
1.27424060512324
1.40364928639488
1.34678721486907
1.44384604968583
1.29601824472879
1.48513139065962
1.28724019928669
1.55593645163917
1.38151630561163
1.48472783762983
1.3106588456323
1.52794275888503
1.39547759814196
1.54657086892476
1.38015283921008
1.64935380944567
1.46000956543971
1.55519698820914
1.38009278562227
1.55393194002308
1.45438703042165
1.51707379110919
1.56467940549747
1.63670768642792
1.39905557191001
1.56089760636222
1.37766529896403
1.54232480958145
1.37549505316197
1.41346848612221
1.29522923509361
1.56318560841239
1.47622977721336
1.70166657714051
1.49046084159032
1.64496565400242
1.40495733460634
1.61654063602569
1.54543682935925
1.57637846419786
1.34623472283617
1.44992772715425
1.43227468776568
1.4692329938205
1.3618094801695
1.63269334962834
1.44497523905798
1.65824144348436
1.462251801027
1.47540740557406
1.50935517016409
1.58059810567193
1.42604318357448
1.96261892964126
1.33164598297773
1.58484373025338
1.50998921596693
1.62970486110459
1.51957115230206
1.66352753043539
1.42344496229375
1.70751339358896
1.50518562235048
1.43687666419279
1.49470503803266
1.59190169907166
1.45204359889353
1.71084725259282
1.45553765451693
1.56808015957024
1.58881438608311
1.69319386262602
1.374461011564
1.54243163265179
1.51889898322314
1.52246051997296
1.42305636130516
1.55978205571016
1.44640858886204
1.51927215260748
1.40596601482995
1.72534025435355
1.52327804240187
1.54393953935788
1.36348998476756
1.50909608665268
1.3994711374745
1.68058693066243
1.39021891266845
1.52015617396233
1.54513691183905
1.51966179743039
1.51392691255568
1.53607959739507
1.45016986559683
1.50087468799222
1.47428957010888
1.71014741237578
1.40767514832578
1.66219773184574
1.33591419499412
1.5401712037209
1.39918345184095
1.54607269347217
1.38846947057058
1.60155539477425
1.38581930469031
1.50174263828392
1.37701818766433
1.49751256372459
1.45113896971297
1.80538502045405
1.53886380828952
1.52089763835884
1.44718375954393
1.52134904479973
1.44493504038062
1.56980814510729
1.48058192634706
1.61055830655745
1.47279806100888
1.48746484656014
1.39666690700898
1.66903658966514
1.50576754528947
1.65509220526711
1.50560471981904
1.6723565250683
1.48372232305558
1.50570864230929
1.43196363268708
1.56352065652115
1.34914505601114
1.54111683522758
1.49046115310843
1.50872876570962
1.48561722683171
1.54567834326529
1.45038184448042
1.6004116705172
1.38776327989721
1.57094091783013
1.39005248892558
1.56843874652035
1.46637053227538
1.72360571103297
1.39446646866095
1.40610413028843
1.46401856463822
1.66219938442866
1.48324760839408
1.51239780465422
1.48969523386505
1.48009299962218
1.45155317517683
1.43081972559271
1.38250999032634
1.45191437123659
1.48731196518642
1.46794905365247
1.47049542842561
1.49119250074005
1.41959527554595
1.46520128267187
1.39656899219682
1.42616238686481
1.40533496213779
1.52454532747127
1.36931059914206
1.43803857069444
1.40499255526265
1.40776133684082
1.3587394178881
1.52238242964065
1.26727287335863
1.45556837121764
1.37748849434924
1.44816126650686
1.34626067371604
1.41122768440147
1.31944965809967
1.43165859479028
1.32225043556328
1.40710790185192
1.34594786381064
1.42283033748787
1.29611665011151
1.37185381033585
1.3055692780953
1.38029693008564
1.27231777442044
1.3496954883931
1.3102881855961
1.38401044571356
1.27858750252313
1.39717604592829
1.32136587903512
1.28423693289972
1.38219326611877
1.29488900823682
1.28024606541656
1.28455235706912
1.23140329752618
1.36669982542007
1.2376222667772
1.26758296669959
1.2302958163663
1.31761364745479
1.22397389304483
1.29558178514521
1.22566273612465
1.25693038534731
1.22247620492471
1.27555522585566
1.2442644363698
1.26514504543687
1.20721745620396
1.21364999836648
1.18261243732271
1.26420160902475
1.19768848681218
1.19460938414768
1.18853007170921
1.27616682217176
1.14599298279737
1.25920970095411
1.15250895700206
1.19093348609226
1.15383999305681
1.13944726599036
1.12205052513317
1.18454919771324
1.16433219473564
1.16836253615203
1.17435548712425
1.10358183400048
1.13272746423181
1.20785720711321
1.06111041557096
1.08133631347046
1.11677157221472
1.16465654691833
1.06881031509606
1.05304703964274
1.09470589538116
1.0745318422818
1.06661225161099
1.04758046970279
1.04998107183263
1.05596781568734
1.04356104935404
1.09754316424724
1.04147876360682
1.06185260559267
1.01668453778585
1.04810297896853
1.00767766410923
1.06456129999682
1.01451349617716
1.05950826059435
1.01762095176626
1.03564159533073
0.9747797076918
1.03693754100926
1.00227086170787
0.994635138198264
0.951787917961397
0.999939132759467
0.989442710142361
0.954716939582052
0.981956920448473
0.979441019764882
0.952724374970845
0.962107942708614
0.938907329435983
0.977330559487153
0.956532374446017
0.927160394350016
0.922343173821814
0.935357590913579
0.933007151741703
0.905371250231901
0.914999413772932
0.914368959773155
0.868589803662042
0.91961517468464
0.864777547817464
0.88486859175064
0.884804374894803
0.884704382033155
0.857298744850031
0.873599624391211
0.846812831407024
0.892825478966891
0.849573665853036
0.844661433570966
0.843061904838706
0.845631632168932
0.828315172015141
0.837790108442155
0.820227431041522
0.843936200978678
0.809976076006804
0.805681369429431
0.803011332051843
0.823991874459113
0.798624643399032
0.807691862751289
0.810046164272683
0.793386894577732
0.780503975515242
0.795914472204058
0.775879960993557
0.797940932790747
0.772523137626992
0.760002110648097
0.752463618987477
0.781095040733486
0.755635449713224
0.7776377258912
0.745007445075302
0.748316477521309
0.754187323235232
0.74153565175328
0.739969755160612
0.746495543881784
0.728724431924147
0.717436906765697
0.701895070479651
0.720954608522888
0.713847248015179
0.709738631823985
0.694692787937783
0.689398781889529
0.689214335017061
0.694589593678644
0.691755153611528
0.707763490132169
0.679006601670231
0.690912035632137
0.667157350188644
0.674787804852897
0.66552688013065
0.659539290467945
0.667034580701164
0.66556411154757
0.663318434362976
0.654671095635117
0.640804834609724
0.651492159548169
0.645970456547302
0.64578847472816
0.632058790785183
0.632780394004639
0.625696513049127
0.623711455871828
0.622927726426453
0.630740865828738
0.608447676116475
0.610727879369472
0.596498853134995
0.605694695959038
0.603232025099052
0.611762283705317
0.586727026561894
0.591393402944855
0.592937225962261
0.599222403057456
0.57288884351527
0.576684511598115
0.581322895862453
0.587245716437535
0.566392137944971
0.571725071857778
0.562951819142614
0.578173997265157
0.553997447199684
0.559152595288667
0.551482306207242
0.561939553811789
0.540377957399404
0.546311864741336
0.544512933819102
0.538376438795167
0.530683226851757
0.540298164835634
0.535693492994505
0.532269358942399
0.528849768807264
0.52201643284455
0.518484347908645
0.527550109278229
0.507100501637618
0.509775287937215
0.508283480895294
0.520652355634232
0.507991788169338
0.510840637058319
0.499496107547451
0.50131923678359
0.502186749139603
0.500623563348632
0.489234679602575
0.494449227035526
0.485454388214399
0.488902281997334
0.488817897384328
0.49386575742763
0.483132715953964
0.497222623536027
0.480241525643003
0.485475780226614
0.476427849686162
0.486480578677453
0.467028396002131
0.477255628956677
0.478773761694795
0.4862865403454
0.479205907328864
0.490324730330068
0.478985191555014
0.483548055823294
0.474740814991072
0.480542514093842
0.465153196589776
0.478179843972872
0.471468103493778
0.480055662343091
0.482878054597762
0.483428198521177
0.489264129731517
0.499370635543682
0.493301325505626
0.490052087462884
0.485574358800841
0.496308889140985
0.489960070235283
0.508944322309195
0.486762159582102
0.497845113057278
0.493427130534622
0.499604131866051
0.504208064974219
0.511297690629074
0.509311175274317
0.510455897733728
0.500422287883856
0.515523015230014
0.505419087154003
0.521044954453552
0.506577937494831
0.530542990734449
0.511289760416665
0.527492249717867
0.51626846732419
0.533703009671894
0.533757584354209
0.533791493528672
0.535378891215421
0.527977451914398
0.531627782058406
0.538954533258776
0.532439928852334
0.544168056033322
0.539059872674516
0.553715156973377
0.540629306240112
0.543322768572173
0.559989210287786
0.569582467568248
0.56301682743026
0.580195762851907
0.57229583547588
0.577094315960079
0.578822106510715
0.594684631635226
0.570081464379048
0.593328475259498
0.582856312038203
0.588870518907067
0.579026700008573
0.604651628039725
0.58762413846211
0.60243858388786
0.591923549623436
0.603102533275806
0.604018039710507
0.598291404105326
0.58944887067735
0.601734323918286
0.59194326411157
0.598233243454853
0.59596116712368
0.59992814633405
0.589501554603597
0.592526544703637
0.595447020144828
0.596789602134973
0.593131284269228
0.596671342035653
0.581707220889634
0.580249161704324
0.586251462107598
0.600265528734254
0.583393445918657
0.592385751525665
0.578605478629718
0.584135851688499
0.581307225717769
0.582043868686334
0.581260927076507
0.586631618582348
0.577384077474749
0.595957958866561
0.588417442346127
0.590530391734392
0.571075728251997
0.589605095725109
0.587501217021172
0.584151819714356
0.572987653248221
0.58008871199398
0.576208539379492
0.582032604330162
0.57328669661487
0.583645466220139
0.578821429516031
0.582347994712093
0.571203279338228
0.583516382577232
0.573756339770755
0.570252634215838
0.567657456812962
0.601739480980786
0.57656709986924
0.572696725892957
0.564012206859659
0.572208486316201
0.563250434451012
0.576348372978663
0.577251421749734
0.580680294472423
0.56069356189842
0.562426925860344
0.555010072671727
0.559692452957445
0.554246469910892
0.555839550871705
0.556303046036019
0.548951466145364
0.540105721516088
0.543743746364411
0.53785140962928
0.534222169436801
0.529462197068
0.533699408673044
0.526705555508571
0.526794590045865
0.515803419783513
0.515748622597295
0.518185948105163
0.512790013022218
0.493331671424796
0.503427725954064
0.490728141966047
0.491723056145833
0.47878502335349
0.486548647600852
0.48506098336267
0.482580585550523
0.472357474766645
0.476856650039741
0.469479507134412
0.461083298784698
0.454269598399251
0.466099858071118
0.456213939020153
0.45346970258685
0.44726461136085
0.454064844092446
0.443698706270349
0.441920521876671
0.432495359203273
0.43061720044571
0.430297355972999
0.438061362120693
0.425462675614824
0.432032405727846
0.416203209862466
0.410507427403095
0.407082362668267
0.412812294905376
0.408968546856288
0.410770905452087
0.405985851393344
0.403090970392765
0.404584659301696
0.397602544142027
0.39412722857061
0.401970757060126
0.390120206284798
0.394925795863013
0.393746144892249
0.395876704683299
0.382620736763994
0.387599065185415
0.378712719943007
0.385478710330209
0.375899356396437
0.375102285593665
0.377836743732115
0.384881902808749
0.370673733797274
0.370707579068594
0.37224209938641
0.377308642770107
0.37642682029888
0.370863686466906
0.363362021657484
0.365387308832358
0.357692834732772
0.360255060793669
0.352066985337988
0.361673998214062
0.35212184235747
0.356879078583789
0.351853054401285
0.356059508819337
0.353443677194256
0.351660488507046
0.350317850442504
0.349812513203341
0.341451718669089
0.34790271252228
0.343473344703564
0.340533661066821
0.335891137590482
0.33871535815358
0.332806087154911
0.331966180497491
0.332622508687252
0.335948131407145
0.32981712733648
0.329540388108752
0.32776389640492
0.334814052016116
0.328930350820533
0.33286618984748
0.327393112810435
0.326569597866879
0.319030218624305
0.32622849346325
0.32399848602253
0.321662053252732
0.319626772137282
0.317166363302239
0.314455497866907
0.316294706372284
0.310237727042934
0.316208768835798
0.315138775942335
0.314744782501367
0.316620475773368
0.310400995782288
0.305311280788619
0.312590701744365
0.305190643151059
0.306486965626378
0.305889813822802
0.309253678300707
0.303687067517944
0.299808643239849
0.301521441876111
0.306315018930976
0.300570256505762
0.300428162654439
0.296462911351627
0.295039205249203
0.296720868084542
0.298701235622752
0.297586107441298
0.298385570984291
0.291704665962592
0.298216660519854
0.29324535247151
0.292872124089394
0.289043542217108
0.294928059693267
0.289021884142405
0.295548614584504
0.290485531299852
0.292878331420442
0.289572038105658
0.292082469903181
0.287805056272443
0.292954149939555
0.292419958219497
0.290009785715988
0.290305570820183
0.292402549697332
0.286460825850922
0.288141682879727
0.286910359074332
0.28805847638575
0.2855379006853
0.287487771753897
0.279031944029426
0.284206745104258
0.281641041132531
0.281447981753186
0.27824712950674
0.282498576596047
0.278343636897766
0.277906076305511
0.279122034469144
0.276600687708663
0.271647344607878
0.279940070950284
0.274777666766783
0.273203392339089
0.274880062285788
0.279267542721717
0.275571430835108
0.274233363118643
0.269374074289432
0.272967714976455
0.271205112623955
0.26876051750741
0.264147843188089
0.267333495330367
0.265351877343673
0.264778418026085
0.261676177759639
0.264613388121923
0.261189465114348
0.261550911157998
0.26321264974866
0.26416490724863
0.255769869023811
0.260431262278367
0.259941192411812
0.258412443414612
0.25414489766151
0.252287792621318
0.250668404093884
0.249880112985416
0.251277000228989
0.253196515828374
0.249205899884847
0.256873262626168
0.249878176739482
0.250611164124243
0.249642438956059
0.252829577151791
0.245687919004745
0.245662718622945
0.241781475394263
0.243151651708013
0.243096428878553
0.242984296879709
0.239545223775799
0.24342979491748
0.236449835179539
0.235531070500509
0.235331057432394
0.239577773340539
0.23331926130659
0.232276532775151
0.231179190283199
0.236996939246448
0.233536932802534
0.229374524786802
0.224670337477474
0.229199894835231
0.225616344271176
0.229067159968727
0.224576838681059
0.224194884306824
0.222866614239001
0.220833370436255
0.21844158409324
0.222266745818006
0.219525088657545
0.217130540813824
0.215795671372554
0.21749104685915
0.212858189220197
0.21575037440374
0.213989285586596
0.210443811663837
0.211677264740469
0.211855720718692
0.206245103552575
0.209976160473648
0.206682291610005
0.207759167290578
0.209178514448783
0.206178289566032
0.203263624461126
0.203479094562628
0.200857140519499
0.202943585526057
0.198882097155062
0.199063947570607
0.193626388999977
0.194973523708969
0.195007701428611
0.197698188163928
0.193093601323288
0.19474554858696
0.192809869447225
0.19520958177701
0.187680914597871
0.189836748879994
0.190882453675514
0.190377819276274
0.185795857033758
0.189628637099328
0.186821905366247
0.187361505592108
0.186590991201926
0.187825829390657
0.182698405183508
0.185256825100916
0.181196803908768
0.180308158356052
0.180995025187049
0.182864960675324
0.179025614548916
0.176755919942381
0.174977965066434
0.175208967146548
0.173615970099423
0.178245427586355
0.175586554774779
0.178089711251966
0.178852747237016
0.175788521580371
0.171997453270489
0.175451900233625
0.173503380666901
0.171741182081624
0.170752214812225
0.169757909556322
0.168735799481464
0.172300811690015
0.168159777832233
0.166095424595239
0.162343163794738
0.168481425644421
0.166701315982792
0.166297645258653
0.165958115654243
0.169456589137637
0.168091307263495
0.166011769145981
0.166155302911161
0.167092114029715
0.162913068688997
0.167468132328844
0.164706307968229
0.163023470095213
0.161968930976702
0.161318211406455
0.159662069144243
0.162220638972203
0.162180834886604
0.160443263428378
0.161644617979829
0.166817436599378
0.158354624305663
0.157494495114969
0.157683213488946
0.157596331840113
0.157172029042237
0.159264926702983
0.152717402528585
0.156265478780701
0.155641198997798
0.159521906829361
0.154544882454443
0.156390201463174
0.155216984628895
0.153862911654671
0.155489652791006
0.156485929646388
0.153510358084708
0.156893872276968
0.152698325011597
0.152617211704438
0.151836818629238
0.154562844848796
0.150256002878152
0.150647149915002
0.14912723810237
0.14889573286307
0.147190786660184
0.149034122737159
0.149097273519326
0.149080450743809
0.147970652737149
0.149597766843627
0.148077747046303
0.149480250625517
0.147807964724876
0.148926548363217
0.1461790311052
0.148232573009134
0.145614801553419
0.14817813108843
0.146329944775167
0.145603834568013
0.145228079480896
0.145817612826494
0.142378294105457
0.144765515072357
0.144580262398001
0.142683524882486
0.139769563811988
0.14226275297465
0.141285642476434
0.143083541280308
0.141394524864433
0.144354446594207
0.142312948994887
0.138192777307189
0.143257835420384
0.144924250974086
0.14161397390743
0.141237885146061
0.135312871111501
0.138778979531341
0.13676089674935
0.136866386536174
0.137015336072269
0.138957240166231
0.136271661212975
0.137154762748843
0.133483732869858
0.137227752264528
0.136740530081823
0.13828461327426
0.134767312024365
0.136827082215413
0.136342768732133
0.134803295891375
0.133128543094392
0.1328373520683
0.130170850760576
0.133712981806643
0.13291338241808
0.131077688257581
0.129745259052281
0.131351176327162
0.131494702080975
0.130259549614817
0.129708068145654
0.131133073895773
0.128777455885218
0.13247129824252
0.130269907084346
0.131784342594197
0.129530053805928
0.129784021620654
0.126739428074938
0.127898815369871
0.127657936829579
0.126332715174335
0.126206386025824
0.124460972066393
0.124570265569052
0.121331869400608
0.122156278761627
0.127576070993017
0.121323404088241
0.122365052879269
0.120376655135258
0.119396349174785
0.119517667892735
0.119825391273485
0.119522577207053
0.118631767053653
0.115197131094991
0.118821846910182
0.118008765043032
0.11659220142538
0.116152371870691
0.117376595551668
0.114386430462384
0.115911515050905
0.116517606274777
0.116214303556107
0.115998078859096
0.115500491650662
0.112333455464308
0.113471608578419
0.110982012104728
0.112842474428976
0.109911411131806
0.113664132027193
0.112337104491572
0.114410783049345
0.111467075997804
0.113255034046238
0.111575803862474
0.108950689624617
0.11138627022822
0.109526452247607
0.106679386668682
0.110528737773414
0.1076926929374
0.107491211454622
0.106497809532121
0.107523400101745
0.105376509483817
0.107043992309391
0.104386503016151
0.106422537035356
0.105072822247466
0.105607338728371
0.105515649618204
0.106187668347064
0.104010303699481
0.103404752330312
0.100170306513612
0.103183512647357
0.103455805655659
0.104241425809209
0.103921805263018
0.102445012897704
0.10356283143109
0.103278571675135
0.100836100938364
0.103228717043584
0.103477877957361
0.105877068188328
0.100507988601398
0.101585840193764
0.100841573828845
0.100173899972334
0.097699171698062
0.0984308786171879
0.0976157790215676
0.0992934484160937
0.0962176731219236
0.0977478711722072
0.0954380991723671
0.0963106423942717
0.0976654821977798
0.0990808764980577
0.0974176513426303
0.0976508225485339
0.0949485582934266
0.0956501812859121
0.0950872858267968
0.0974450970850118
0.0945374514644034
0.095542800269954
0.094951754402054
0.0962688321075302
0.0952246994420207
0.0967955296070317
0.0933225198812568
0.0967631419026092
0.0962511297636859
0.0947966129107947
0.0921425775843704
0.0963757924180351
0.0938153186157652
0.0937870597050437
0.0922159165102716
0.0958110962831435
0.0938762140039005
0.09790983388329
0.0951444092053935
0.0936714148791069
0.0923754900383464
0.0958590048939602
0.0903072423879348
0.0966282105382554
0.0961075147676579
0.0920994547319526
0.0895074166523691
0.0941322834238203
0.0922692435637945
0.0958682810973833
0.0962220699855709
0.0928376284976775
0.0881844776660909
0.0928790839727627
0.0908225455926868
0.0946867600436974
0.0921010216411779
0.0940880229844373
0.0930448222712926
0.0968662321620763
0.0898325526333494
0.0936993521317876
0.0914894330871589
0.0985072276288837
0.0915247357663427
0.0972953245270479
0.0883972060690584
0.0950870809262532
0.0931711396169389
0.0894127275476494
0.0892323953708043
0.0944602250874064
0.090409935789872
0.0955075519310648
0.0870056193030132
0.0958379850544637
0.089489406189839
0.0962786799866479
0.0842045339938783
0.097804421772853
0.092489420516226
0.100905078071475
0.0878680608809709
0.0973588241465844
0.0756804525744494
0.0991396474154721
0.0803037137985289
0.105114817012835
0.0852738795510881
0.103694024662239
0.0799915495532077
0.101744194523706
0.0672503133911039
0.11139059883567
0.0772418478705523
0.111046992448174
0.0646603244670256
0.109262715173989
0.0711924231125828
0.107446716511711
0.0694610977959373
0.104857903296644
0.0770251323881629
0.103591428693292
0.0801063880426868
0.0953272956219488
0.0869533489195139
0.0874933335643262
0.0940203993100676
0.0841472792337579
0.0941221427970247
0.0825856162185254
0.0987947590123023
0.0817193757055495
0.0970254749958143
0.0874684020259714
0.0917195831420266
0.0869368549709586
0.0880961050540409
0.0899588873410581
0.0883966237657236
0.0893072113485759
0.0875943010213727
0.0892027760332432
0.0925210732677772
0.0873223882675052
0.0915911146289456
0.0892487158327443
0.0903133315387505
0.089621589420298
0.0924255742634654
0.0885851197930046
0.0892471821720913
0.0882651361555438
0.0889535499851385
0.0898653313503099
0.0917289294206648
0.0914650746802266
0.0885675880052334
0.0882515951154747
0.0890102166203968
0.0898798922019247
0.0891698520886712
0.0896022756379679
0.0905509641697321
0.0912359672211997
0.0907630703489308
0.0900968773664433
0.0918776369841773
0.0933280626405505
0.0918351538530466
0.0903505297397258
0.0919742535132835
0.0933124519641818
0.0927784482656838
0.0928712655689956
0.0925085892786727
0.0923890239319
0.0924712730482992
0.0928859267133001
0.092186646237218
0.0925884368284916
0.0932305754869762
0.0911614565662741
0.094975822361732
0.0926012018820326
0.0922358287145719
0.0922133043655812
0.0941862321779392
0.0947311472123986
0.0945623288090984
0.0936653446153496
0.0947168762760805
0.0923978269510803
0.0943742311430376
0.0922838944525791
0.0939083647120802
0.093625873720342
0.0944236465844584
0.0923675351539027
0.0938755230301918
0.0946795909855578
0.0938617550571655
0.0955524424723147
0.0953766048265961
0.0930988221824134
0.0956890672754008
0.0943093389195276
0.0957503516591028
0.0962828485615134
0.0989517597576561
0.0957036937180763
0.098760011966481
0.0960729364666202
0.0960769966691374
0.0968761166915159
0.0967924864916603
0.0985071784630632
0.0969509172443476
0.0973136350541594
0.095997086761122
0.0986757803943544
0.0975158533820583
0.0965905978482285
0.097323050022375
0.100203014780271
0.100457038733965
0.0989261299474772
0.0987845202109315
0.0960977847656538
0.101310916903421
0.1000325804666
0.0977083095848121
0.0982715719113558
0.100372888964227
0.103023121617266
0.101037593255214
0.101268062590368
0.102523263430341
0.100354884261706
0.101251258689941
0.102500092518508
0.100861211724676
0.10264591583216
0.0994711055948493
0.100558042092121
0.101880364340996
0.10184956351145
0.101403221571502
0.102184725380345
0.101944237973765
0.103792372288745
0.100325798803762
0.102437467075558
0.10356567357731
0.104944380149371
0.103076860535862
0.101751731813891
0.106804492513175
0.106300137102442
0.105270719138448
0.10595111266275
0.105043502683242
0.10407194975521
0.106354400676778
0.105568688009671
0.106415212203205
0.104970273322074
0.103771115641012
0.104238817004024
0.105783800269281
0.10462010311421
0.107326987215509
0.106903611487028
0.106114557153374
0.10890982166778
0.107805009053156
0.107300588684361
0.108280886500398
0.108388399990253
0.107551243886534
0.109281133607648
0.109510394050703
0.109621684495117
0.110040867265023
0.110966048695991
0.109158248542719
0.107795572512813
0.110786966690822
0.109991356782386
0.11157516004017
0.108842377158238
0.110573103907764
0.111615225993023
0.110172258552586
0.111126592356187
0.1100717925951
0.112493021051445
0.110913093113578
0.110796574200835
0.111361285898498
0.110881766504172
0.110804303936442
0.108124798465805
0.112188673250083
0.109838364516877
0.111732046789881
0.112435574887857
0.112912642694968
0.112862917019822
0.110648297993628
0.113058557047092
0.110897230546407
0.11255329855538
0.111234190419476
0.111359051466288
0.11009514078114
0.112171410949856
0.11148359292735
0.111232551232978
0.110270178230548
0.109621705848826
0.110429735116233
0.109936759246792
0.110878669737887
0.108397594901005
0.108806386147094
0.109533731397371
0.109872332001969
0.110081517413951
0.109610528202624
0.105463676433714
0.108325869406412
0.110844866257337
0.108407668394028
0.107440574491366
0.110324748604981
0.109567970015033
0.106973414395498
0.107971815208518
0.10740701227092
0.108508793775068
0.107997355435871
0.1087128556514
0.106903433272533
0.106925531413204
0.107165638049566
0.108590279996557
0.107167882467579
0.106423911833407
0.107667818852216
0.109577700278499
0.106865688502653
0.106314010880094
0.108189103819136
0.104133850143399
0.107603313655633
0.109380069385219
0.107416711502464
0.104512834449348
0.105704825601488
0.106632629663768
0.107421965917494
0.105690568859643
0.10459726809543
0.105834510144647
0.106134467000343
0.105062178280545
0.106473745219919
0.10726915381239
0.107039362621068
0.105235739130978
0.102086603317099
0.1039564259292
0.106102513380565
0.105557750989249
0.102746042298859
0.104407816896309
0.104361709892612
0.104971226431097
0.105061371965923
0.105292083416801
0.106042238358073
0.106176575279273
0.104184208395468
0.102275348774416
0.102593869819906
0.102439159713189
0.103796013510906
0.103383418797521
0.105129281206848
0.104253870804844
0.104532724945115
0.101370646177363
0.101518308580212
0.105679620086676
0.100710489704187
0.10265278634217
0.103523830846874
0.10262360463384
0.103844936335898
0.100585402771384
0.101469352387473
0.104677377445195
0.102986499363396
0.102101310551678
0.102269272577961
0.103226076992156
0.102921293363749
0.102223720083944
0.0981115959245063
0.0971406225219746
0.100325312974593
0.0992439605585203
0.100527924989217
0.0987838961159756
0.0970631689666226
0.099282747864337
0.102155875687616
0.0986527207061657
0.0991227323786492
0.0985881992665495
0.0992680898335144
0.0968714835132598
0.0984406839151224
0.0978634884943498
0.0968398662299991
0.0976472581158112
0.0987132390969903
0.0962213098612373
0.0957407566216602
0.0968382293374874
0.0972176391135786
0.0960006936068672
0.0961478422085066
0.094338791023441
0.0954575278694649
0.0956713448299322
0.0940080303280924
0.0934323568056183
0.0919958575467256
0.0953815126442858
0.0924762066139197
0.0939520744276841
0.0930016679320502
0.0919537232289601
0.0913149942539708
0.0882315993355846
0.0936472413127129
0.0919413844978068
0.0911456724274596
0.0905337291341571
0.0924791958388866
0.0891915226007081
0.0905119805146237
0.0894152572628773
0.0896724556918185
0.0905780785944641
0.0898523619817612
0.0861085700175414
0.0900979632170216
0.0879033221349213
0.0890850451329035
0.0879587491349978
0.0887075150148502
0.0877606819487822
0.0876280335918753
0.0865127602103227
0.0878151151179915
0.0869166216526531
0.0861428858575774
0.0835605110977459
0.0848748184573426
0.0876060993460056
0.0853889744042179
0.0844213056717101
0.084583196190214
0.0864636740566492
0.0846840711845128
0.0840033486621346
0.0842219780695733
0.0828013243256778
0.0839805891420165
0.0837873248474557
0.0840924209854384
0.0852219358155207
0.0836876223949498
0.0825978638565161
0.0845380470460237
0.0818399455614114
0.0833790378885609
0.0816043785075086
0.0810317217257966
0.0848068945982903
0.0833549339054536
0.082894025571174
0.0817016077946003
0.0824848379177839
0.0812431301370476
0.0840215486924496
0.0827982676367622
0.0823506259998577
0.0785817311260024
0.0801193292902505
0.0808614367159492
0.0833273553958205
0.0821319826128245
0.0802641034116057
0.0820099852885669
0.0781903684578849
0.0805049556010306
0.0794844894026383
0.0779218418460955
0.0786088933212976
0.079364955442674
0.0795952945880452
0.0791294419739422
0.0791181745681512
0.0781762948654707
0.0773446785218833
0.0780615814224388
0.0761216457256618
0.0788087637840009
0.078193208548348
0.0786920062473189
0.0767861976222825
0.0833410005498259
0.0770188690235548
0.0817523709875575
0.0751725951832337
0.0794918585625434
0.07734331518739
0.0774058052772484
0.0772935338807646
0.0794388505601929
0.0739821823643192
0.0769711677994444
0.0770177631402491
0.0756686835061922
0.0753979419282339
0.0758615477709918
0.0774484322843161
0.0775920313019216
0.0756850319531931
0.0773343436247513
0.0741066310190445
0.0752065262965319
0.0762138341186416
0.0777957884383755
0.0746817766697759
0.0759735031309718
0.0732192948117898
0.0795591429837993
0.0774493481781715
0.0745185460259771
0.0767730086362798
0.0747838144941848
0.078982007603581
0.0731893087772183
0.0776845228684386
0.0734749857080568
0.0769988821612135
0.0737705677495394
0.0746054862520432
0.0732325466694259
0.0733233113488626
0.074144512879307
0.0750836551316168
0.0757769012549602
0.0755585077198194
0.0757552722339498
0.0729817552578402
0.0721855172205511
0.0737676902612702
0.0738486186300519
0.0755798071388553
0.0756991618589023
0.0755750597862647
0.0733311388499814
0.0737257238281218
0.0751803460635895
0.0756322915322542
0.0721877837297071
0.0798173491217983
0.0726061518353742
0.0768000462967093
0.0731040507676288
0.075710795302108
0.0736204967682612
0.0734590424098173
0.0732382949296216
0.0732250296687322
0.0744091058871013
0.0734831458586866
0.0761469602128249
0.0746432364944395
0.0732592025361849
0.0724251952974267
0.0720908376173956
0.0723517037850643
0.0753751793944327
0.071370532356404
0.0759389441348513
0.0730864067640946
0.0770061625897761
0.0765004449122413
0.0724254087269378
0.0782751200600506
0.0727786083566525
0.0743923338442514
0.0724168585347103
0.0762945063114773
0.070211443650625
0.0762568697672756
0.0737142390287382
0.0753541932263802
0.072808894207416
0.0756629854624011
0.0726895178500259
0.0763197379933528
0.0717396227512087
0.0744143746622895
0.0732835506157834
0.0771892421442586
0.0720930725286081
0.0770353669530216
0.0707592343735394
0.0794494468609254
0.0742445311562388
0.0777057178627023
0.0758829949430688
0.0760927575141619
0.0862520648561216
0.0731614197184419
0.0794388993992771
0.0700520905550664
0.0794561264637921
0.074923477177278
0.0766296801796385
0.0755403363032958
0.0767948287506653
0.0746808546935094
0.076989063944527
0.074551903597154
0.078229397678371
0.073357798844408
0.0759848123290637
0.0826273102179497
0.0812417632528921
0.0784876492724524
0.0789357225999283
0.0744962274243196
0.0902039282841684
0.076340462064964
0.0800373255780605
0.0764604855208521
0.077055600093003
0.0798277130057767
0.0777925780889754
0.0790228089290064
0.0790861679398328
0.0806169297459664
0.0775459677172339
0.0808197837980928
0.0772857147675841
0.0796541445902586
0.0785119576348506
0.0803671708956267
0.083155434540396
0.0816028206358117
0.0803969960871012
0.0819202006083189
0.0791918003889545
0.0817062990038031
0.0814053225564784
0.08214466539386
0.082624900496769
0.0864378883589798
0.0801557210710508
0.0856677204221611
0.0846772061459536
0.0816304064660115
0.083026710101258
0.0836075121661744
0.084377672089973
0.0875257874728447
0.0785624025742022
0.0983533692007803
0.0784700885840269
0.0980236787227621
0.0818704613453085
0.0899793487564563
0.0864882228022788
0.0901489788937288
0.0814950108116999
0.0915288103644454
0.0895808388176812
0.0862857980883571
0.0888491754175251
0.081642687462242
0.0973639408514215
0.0829644640048247
0.0916597055111777
0.0882798252406275
0.0929250696527906
0.091927206395106
0.100847826971755
0.0870838607311393
0.102341207194327
0.093919825984835
0.0947322626415438
0.100175762574103
0.0885260059321598
0.100943129068792
0.0987791357074166
0.0951893703780227
0.0967447883719625
0.0940645275842283
0.0971651190391563
0.0925381680990309
0.106387481143823
0.103985292858173
0.0985931936636485
0.10347377113833
0.100720618174248
0.105519846098438
0.108133615268083
0.10484885547274
0.105500230300044
0.106046152892319
0.105128661966005
0.110887323524132
0.127681167703627
0.104828658824082
0.127560901493889
0.110880027112372
0.12108455541244
0.112810980140691
0.122927940641743
0.112534789176966
0.127152825990462
0.11994354377108
0.125288478009668
0.116423091702871
0.133902972072027
0.117840766229576
0.130197870612804
0.124537660045961
0.127511631513275
0.129534193270164
0.146661515073381
0.128632456212037
0.136989201441017
0.131924306345769
0.140859159884339
0.136786164417242
0.143621501955154
0.141449292206451
0.140688421440397
0.143168184421927
0.147281110412872
0.148567157461283
0.152486647664974
0.152892179000055
0.157566277811607
0.151841736230551
0.16588214283917
0.161402045508351
0.178773856232726
0.165235209651936
0.171113718599675
0.170718253074849
0.174316499250972
0.177287701061979
0.173781844154011
0.182878799734585
0.183811836446894
0.184150476717427
0.189083637453895
0.189880565233979
0.203783237422906
0.193470706813168
0.213523721198375
0.200250318178812
0.215558816424665
0.207572374527312
0.240241192754676
0.239509353128535
0.227788842031564
0.241069670528891
0.234645036923476
0.265843341548883
0.259009432789737
0.267028696401062
0.275026933627097
0.282945445495097
0.285510747238054
0.296074906697918
0.306232618768424
0.317737294073923
0.32761494274976
0.327779131882837
0.337399770241734
0.35293186719289
0.365321839798366
0.381615359345689
0.377447795264753
0.385785140046666
0.402525522178697
0.412979290888512
0.417019028860531
0.430876348532831
0.433687489699971
0.458467882714603
0.45780123340649
0.472774797156813
0.473821037371342
0.490085988529825
0.505945915329435
0.503552078327584
0.538241683669431
0.525392941852199
0.54119268925288
0.543958376830871
0.565952383043169
0.570907060934381
0.581154744704289
0.600396842947256
0.594831088225107
0.606928174635768
0.62607559308027
0.618668583684781
0.632073125694384
0.633732756482222
0.643574855432533
0.648338829207684
0.680934304243798
0.677233902410324
0.81863215336401
0.676552996574917
0.678437637501385
0.668159533644874
0.686065771262772
0.696759053315894
0.690510653767218
0.705158727186381
0.699919589472553
0.68893860609914
0.700416531257975
0.694806729052224
0.698990006046267
0.704546322388353
0.712483683834656
0.703571805527562
0.711476070130462
0.694504829287139
0.755459723505177
0.728261015659079
0.703432742993469
0.689046935406934
0.705366359041473
0.687532453108831
0.695667375222593
0.669291206445299
0.693306245403331
0.691709829627545
0.681003445482899
0.678562697300627
0.658642975505613
0.678132062680441
0.646360471103553
0.641789592958445
0.640311807288591
0.626007934678324
0.630137276127262
0.598346606152418
0.635137032577952
0.63598428753572
0.602336494005698
0.582633652310041
0.584517686909863
0.581232257176014
0.574429506479474
0.564177453601857
0.576795291690812
0.549781110018709
0.54695777207058
0.53902809881161
0.542719313689762
0.536426267580832
0.535584479967305
0.526609783467403
0.527373360411856
0.526745570115283
0.523707020018549
0.523371253089174
0.515166811850992
0.510847943987599
0.517226242294067
0.508925162295366
0.515268837861855
0.509302205995683
0.507885772142216
0.510603120433965
0.50059842286132
0.505011245545952
0.493639075783663
0.504689079828341
0.505477174812814
0.494057838177285
0.490895367127733
0.491791044530393
0.492116494236763
0.489568812377295
0.493159710922055
0.488573834673264
0.486378872743746
0.487676531651758
0.491043703740047
0.475611123879209
0.522280458466581
0.476139740970055
0.493895710058218
0.476303478781601
0.482404044139884
0.471549814319027
0.472467621592716
0.49116103986095
0.474988854974982
0.477138574102148
0.471475562744942
0.463424942889758
0.474815949052045
0.468943419917176
0.469065100890201
0.463356665547424
0.456466230407245
0.474704271784943
0.465227905672945
0.490697815773523
0.461358113178709
0.452444375023797
0.439968694661008
0.455689122540836
0.456294118877055
0.448304759804885
0.450366706700014
0.431313054043575
0.460630903963063
0.445371470048788
0.440285402609561
0.437299388812762
0.442319903499623
0.448414094162076
0.444115030777008
0.427927408285482
0.445744216265597
0.441117304847877
0.423188776127045
0.434312419338435
0.440904091339137
0.413430002687458
0.404106117102963
0.403789449476995
0.399368876111414
0.405546473266656
0.419020651689653
0.396071113282012
0.397489034813611
0.383498770270344
0.384061806734962
0.37856313931996
0.383585242436787
0.364518355471309
0.381946402069992
0.379197594482846
0.356001271002285
0.369453909337024
0.355383777028148
0.37821587464029
0.356515589949348
0.361478885586031
0.345024508489495
0.365098404939488
0.351764427891912
0.347141504338955
0.343127043446915
0.334223683250233
0.337279478586473
0.335296691774159
0.323907739013333
0.337054367424328
0.321576752867402
0.328543620342274
0.325869464868468
0.318749241491272
0.330456629573457
0.310258736157533
0.310097820610419
0.305194874553539
0.307532140514192
0.313701808774245
0.301437659721567
0.333697543399252
0.299901050156831
0.310360269640133
0.319881614847776
0.309302634803345
0.308551144404002
0.308554540974415
0.314117330215944
0.31627726231637
0.323894033398575
0.32961758944666
0.316664924213004
0.332469735573099
0.331675794901903
0.330657340476459
0.330777553851924
0.335585529544282
0.337555464879173
0.344952130168492
0.352967635580531
0.35875116122073
0.362667614572651
0.373060123761223
0.365303723922485
0.381396550091305
0.394311822039162
0.386046501376649
0.414926034485869
0.406352141055496
0.443775370369493
0.420724695159555
0.433245941364465
0.434241400449517
0.440975213290273
0.454330250810473
0.451115965961929
0.460281445570909
0.480431695182508
0.471669536807302
0.478688318022762
0.477789807779683
0.495220474660693
0.493880635975705
0.511405768505935
0.483827771885495
0.528542469709585
0.513163847099505
0.519110630823946
0.510270710370063
0.515823892656817
0.523734028287823
0.516896370979276
0.520416843397563
0.523824968436925
0.530243175553029
0.544962440376076
0.520923222972651
0.535768381093821
0.536719671118462
0.543924959258422
0.537388121711015
0.546705568157058
0.552042895640794
0.551585255237034
0.553929860427924
0.549128715493558
0.554091109858454
0.592508241345483
0.55979874943944
0.573082554262111
0.565947173357222
0.578453296530106
0.571783018785599
0.584253923976094
0.586453011831431
0.594304890602877
0.593603193327683
0.59231342381645
0.59905822652944
0.607501227491391
0.60301519302637
0.617751845322389
0.600477963063294
0.625410839255355
0.603052985990924
0.622375838313663
0.624681017939868
0.638494897640709
0.627977661875355
0.631032038160577
0.63876240032843
0.632094431490693
0.626114954316493
0.640206166283733
0.643508976338004
0.637152466740137
0.643752631956806
0.637727546965065
0.645133705172187
0.63747654526352
0.64832782580369
0.655382346001259
0.644723141308197
0.641975668294074
0.644439067954897
0.644212275835874
0.630841644474872
0.654203714889184
0.637357991239321
0.637838249259005
0.642003621672126
0.645496648333398
0.63923673241223
0.648216916300229
0.636324658786606
0.650444393567805
0.644436352548648
0.639185220939987
0.637351072362847
0.640542648179221
0.666235832754563
0.652142241113697
0.652200069395184
0.65448256177838
0.656004238300745
0.661363845034199
0.664158700585872
0.671583606081
0.671843429222022
0.664690502195772
0.671099287383925
0.679369120721102
0.670797671304838
0.68050450546939
0.683157808737275
0.67317972621136
0.673595738306716
0.677269446541951
0.667745322723674
0.667089003502336
0.673262210666554
0.66219224300879
0.652917419424444
0.651748994930942
0.643664009409993
0.63969412979345
0.641502720280624
0.638719823959445
0.630423764327695
0.628288224271827
0.622027246854607
0.611391855118262
0.614840046694127
0.608148019421505
0.605976317172546
0.611561037069037
0.596097917593704
0.594288346764135
0.594370733694571
0.594723349859972
0.593911227804566
0.592162331824313
0.593184771620197
0.591922221050041
0.587493923561817
0.590353342628799
0.585579890065404
0.587411492703086
0.586767610339395
0.581256722014951
0.587238734678702
0.588585186460682
0.591499923382007
0.58241668086983
0.580264327099187
0.581401142975588
0.580697531807733
0.583191689733518
0.577163312052147
0.577171909544932
0.574958253817011
0.583068668287099
0.577471317522521
0.578457820607862
0.57934516971796
0.580917436045065
0.578791829394409
0.575904126570817
0.574410439965367
0.574431010806271
0.570939665689507
0.573260935862935
0.574182959337725
0.579808593829112
0.572613444944358
0.574210735481722
0.574119836337715
0.572444496960146
0.576737973025991
0.572877476493827
0.57361600588909
0.575467006700863
0.570047872683033
0.571497216420705
0.569447594876639
0.575395190202523
0.572948024809388
0.570011517577206
0.565933361124955
0.564185931355926
0.559296859889083
0.561375057740882
0.554712753475358
0.558046342626464
0.543322914472187
0.543515850128101
0.544445983356306
0.53607448220016
0.534851268353879
0.53417993134722
0.525255077188412
0.525879615022132
0.518853396207839
0.517382372633767
0.515475764182234
0.509133816424986
0.508242939454155
0.507179159140245
0.509711324325304
0.508286302680453
0.503742721033643
0.502179022134219
0.506350280169062
0.502876470811674
0.502662777908343
0.501237228198434
0.500962351173555
0.50158588551063
0.501028478184268
0.503492096001161
0.504677387724955
0.508986269028679
0.509645123093863
0.508157163640028
0.513869001109068
0.515368631104356
0.518807931233298
0.518641317103535
0.520809641985904
0.523403906919864
0.522026988977439
0.524853656874726
0.531088965093041
0.531402897272244
0.52801784147735
0.535438564293693
0.531299820743937
0.531560856969859
0.529157690418368
0.529912457493352
0.534200016323673
0.539259285644925
0.532474714593625
0.532786114027417
0.529814452759255
0.529103068546677
0.526659793211018
0.528636215103611
0.521357143901399
0.520670496778832
0.519251929422869
0.522654335426774
0.519103611419747
0.520386673817873
0.518815603900344
0.513285748880015
0.513792215957349
0.512285272164287
0.510528598011773
0.505650347510283
0.50293681265717
0.501342696598857
0.498664456549985
0.50089251189827
0.494939950081618
0.495852016284289
0.495322467486477
0.496158966228116
0.492751125101309
0.492886375112868
0.486659583789841
0.491347966373336
0.487435910441094
0.488083831192308
0.482713963584009
0.485599471323893
0.480389316606556
0.478444931551985
0.479699335821701
0.478391175838465
0.466454517094022
0.466409841798002
0.467410281585848
0.464786537405653
0.463227166344515
0.458113575420731
0.455607826412539
0.447876735065383
0.444545074653319
0.4407766354973
0.436678777241578
0.437221121369609
0.436097132278359
0.43227020213292
0.432982647379011
0.430898916092284
0.427957357401168
0.429609938258856
0.422663442866433
0.427207242997827
0.426064752332756
0.42368254736107
0.421676383646981
0.417669553055041
0.417138959801194
0.413631690908878
0.410801264770305
0.404825740297058
0.398907027490445
0.396250767130058
0.391585110526102
0.386338259503771
0.3827549633224
0.381284083535442
0.376950420267226
0.376135343866797
0.374551207284225
0.378371245384435
0.381287409946719
0.382052665702011
0.386121080403784
0.395023773986265
0.402914433937971
0.413697542662932
0.420570928185365
0.438837517261407
0.451992151329739
0.466798713569109
0.483344230040971
0.496422368333691
0.513733513900835
0.530939710067545
0.549535733763082
0.568365057856832
0.586994119079833
0.604502596750811
0.621861934037678
0.640292895432002
0.658952339649914
0.676094493537653
0.686966729293627
0.707096345113775
0.728932613932881
0.740431296863351
0.751169338841775
0.764463239476639
0.773508438321624
0.783730585370341
0.80011618179522
0.806888147274747
0.805434692059304
0.814172927164895
0.816762678665828
0.820941505395436
0.832211568592711
0.832912157104902
0.83875277353082
0.835876812864478
0.830288050705186
0.831467118492506
0.832933046466396
0.829461912062229
0.832552417560376
0.833018528349241
0.829490909125901
0.833110042035192
0.840343118244373
0.842482827135543
0.8478695700899
0.855791032771805
0.866062503561751
0.863734939441238
0.864189001921341
0.86687380437954
0.882797316310629
0.89218155948077
0.900176650264997
0.908732900541239
0.91738218990068
0.925954211364491
0.937595330306632
0.955667379492224
0.962108999180951
0.978587181290471
0.993307792637443
0.996993354766257
1.02436553905526
1.03878754672148
1.03782717085557
1.0508635453914
1.06102469730554
1.06055547779696
1.07260684005379
1.05860775517135
1.05747332376985
1.05342761721253
1.05171295404149
1.04304771172636
1.04863008806684
1.03044685519864
1.03251352394455
1.03486670543431
1.02938824686772
1.03833088616451
1.04522217662336
1.05507448951774
1.08141363833982
1.08660549801095
1.11059261929146
1.10601176149448
1.1299394169699
1.14525225408891
1.16942992070583
1.18963498444507
1.18869890997765
1.20426400060938
1.22105206659261
1.24130375139247
1.26337504757884
1.25762868501848
1.30496682590552
1.32185800277385
1.3132281330766
1.34701837192454
1.37960274526498
1.39609848151163
1.40192006994158
1.41202489592251
1.45611787912178
1.49794830870739
1.50428977279715
1.57267737581279
1.58418318957249
1.57369268861191
1.5849479865349
1.60513310370913
1.65112330191992
1.64193982127751
1.62237474874996
1.64073221868929
1.76417433923559
1.76809838330177
1.69232172422182
1.67629683586134
1.75170109155118
1.77312704944367
1.70239420963117
1.71998552896489
1.75879670362385
1.68056789651317
1.6632839291055
1.69343275677775
1.67583130596141
1.66777003951157
1.71280545678584
1.72156431262805
1.68585874407063
1.72226754249706
1.71190621414618
1.70410718600692
1.72559186365864
1.72612675298095
1.79102590218978
1.75204792599244
1.73347353537756
1.74850385488643
1.80097561168992
1.74817102371318
1.8677443559188
1.86358272031739
1.97956721463986
1.89336661561378
1.91940714758419
1.9563577308464
1.90844112389211
1.94564874964794
1.92618266756126
1.89449586865313
1.93776827017493
1.90084056454922
2.07039482308006
1.9771724519559
2.19577740560261
2.1413139863714
2.0686375690175
2.11902035631984
2.03601333879557
2.02988996910197
2.10883452628029
1.8966515789188
2.10306649404472
2.06236040949502
2.03698495400194
2.02917224987648
2.01361023556578
1.99016016626387
1.92093394883796
1.86913710427231
1.9668842415114
1.86500001218194
1.89201796759755
1.89530057993599
1.84075305049477
1.77803021419382
1.81181341494788
1.71455626854768
1.68225798044015
1.60089366006434
1.60604964186184
1.51720547005001
1.46819931256837
1.4494021778273
1.42419422492443
1.40399230407155
1.39331266878358
1.34541570162455
1.35729288237435
1.38262859447798
1.3264081280916
1.29993977440941
1.35121880011527
1.31074520799469
1.29120331654942
1.27554338231236
1.27086106310927
1.24968903750148
1.25012896665729
1.22566036355528
1.19631174215561
1.18227843207809
1.17341594926053
1.14622785005248
1.10625328818327
1.0813803589183
1.06036311057715
1.01180320048944
0.982504748543964
0.960108608262777
0.921611262912469
0.894355940869641
0.85635252505214
0.811822578093902
0.778486565311363
0.74890640034697
0.724431889740717
0.692832676456993
0.664281802314697
0.637899200324279
0.624594310080057
0.602845146177232
0.580619967956159
0.567782805882332
0.55807332872772
0.536291820058096
0.528156488117638
0.518616339214853
0.504112962343757
0.4984342394808
0.499642702889651
0.490348598852166
0.485346503985901
0.485643444493252
0.48655429349173
0.482864989228721
0.481939668555383
0.487106051290207
0.483405478025792
0.479636557030234
0.487585672739998
0.487773224734539
0.493060298370898
0.498984813784259
0.49664537064503
0.496152637660936
0.496977811993063
0.489459076538647
0.494259243544105
0.487913844384048
0.48830130170896
0.483849969426944
0.477607607601706
0.477615999162634
0.472257817031806
0.470087858422589
0.465719780409867
0.463710563060597
0.465272631285158
0.462293199185689
0.464778795597646
0.463564412552045
0.465801923155007
0.473826945264883
0.473660756699405
0.475158258792024
0.482742198060676
0.487375976076777
0.492785143407295
0.490732158505997
0.491035785290741
0.490373738333223
0.495223502737628
0.502224189196799
0.511022669232203
0.510666771296333
0.512371272414967
0.513790748367924
0.514808724381009
0.509157656411339
0.512232938745026
0.518489153405757
0.515684465915903
0.522651067607157
0.525337515267181
0.521483191882188
0.526935956742243
0.53097970257288
0.541254518925492
0.547390396619108
0.554371822174253
0.556610394962036
0.567110721554243
0.570193664973467
0.58625546682074
0.609168049454942
0.618206262008306
0.635598323198938
0.654569575363534
0.661701676874023
0.678990259953496
0.676003326030032
0.686978764311403
0.680285536651942
0.67551395623597
0.675055919955579
0.671564737936295
0.669224910320656
0.657540413664849
0.645378237411845
0.642203795497383
0.641458393722224
0.630499846131246
0.62763815418959
0.627849155786615
0.624682383738959
0.630681590451961
0.635274469795955
0.632989566625469
0.637692948160208
0.634977957181452
0.624198482620288
0.636780287257986
0.638440152613076
0.635756432984454
0.623431896076753
0.61683884789604
0.62241092847427
0.610389764711982
0.60606723917444
0.606182695775116
0.60057737655444
0.590819031279017
0.603558992911987
0.602200051330912
0.584551151035015
0.596871066090973
0.588434940634167
0.585502115228561
0.585382370028073
0.592707109299912
0.594689558374975
0.598973913990999
0.590775451173687
0.572638893403811
0.575913085503838
0.588081496900709
0.593370834056602
0.584677878269002
0.589016432692907
0.585297041925583
0.584357444385805
0.599079292268354
0.579327670930806
0.575641723226523
0.580409452610943
0.575917345021435
0.580252114240583
0.575937098163376
0.570240982544864
0.587287168197989
0.584908593333165
0.568582636265049
0.569041357262858
0.572577512012421
0.571177862569311
0.579535503073795
0.582894709569612
0.582997180815874
0.569071000470848
0.560059735686801
0.561675518682638
0.576389354453305
0.576918097311201
0.579339278106592
0.598350143036743
0.579530310103926
0.596152031015529
0.606573495554371
0.605169735579087
0.612872155290487
0.598107931088108
0.603922529542844
0.597760861110483
0.603794643971436
0.613534901679582
0.62276479113805
0.623094308865011
0.622990337115103
0.62632426716336
0.631104335435198
0.633978088503964
0.63841738926257
0.635829707309954
0.644013428831278
0.66574326188804
0.652795534066369
0.663186403916911
0.6634705959289
0.652996587787511
0.685270003590377
0.686622289518418
0.691456562307649
0.711554492878504
0.725166308963739
0.689519048452765
0.709041306461725
0.768749285917093
0.808926205801776
0.810316020984394
0.786401326762177
0.817563536471914
0.808613546034745
0.836799681196621
0.894013994149795
0.908010415261343
0.862401010309976
0.9011120786609
0.958415990501301
0.900045888177662
0.924348546294006
0.947605595863841
0.931945018302634
0.941360560384143
0.92338566707647
0.91848340416332
0.963325190520832
0.944010305074591
0.940263758840828
0.944259635878028
0.895976719663533
0.914501042381672
0.864995098773283
0.860656426668776
0.896317718207021
0.887641188774659
0.896361362666674
0.960940776350245
0.945707916631532
0.94903938346369
0.916853263404108
0.920606550374762
0.934410420782024
0.885439101924581
0.912831165320236
0.981654682432426
0.923634019689972
0.89201770361019
0.878076822242547
0.884254129926255
0.852944369678103
0.902363482511212
0.920896298321181
0.957996127483998
0.911896330433942
0.873318732745603
0.902301018268161
0.919552213892626
0.824361447808099
0.892345724884661
0.882949027379371
0.868654989745991
0.988976485566114
0.901014050162455
0.835019044901747
0.897523906210143
0.887133873068586
0.948232975953601
0.92321178955194
0.886283436049027
0.85963450980657
0.926532343306049
0.924343852983253
1.06176353122382
1.02366205163788
0.90533346515813
0.96518433740208
0.996464171227537
0.922958266056001
0.96091381836245
1.03943321221842
1.03465413755914
0.912901851142332
0.989635418627506
0.961141891031357
0.919019108169124
0.899723244333258
0.97132039429608
1.01268480653151
0.970501378173287
0.917661579342106
1.08109739776824
0.952828981573545
1.05328319180547
1.08451504874004
1.17459584443129
1.18333525722743
1.08732956902747
1.0572774325472
1.16449574616661
1.09795064204936
1.18278780020262
1.07471042775232
1.12512371921169
1.15061042978983
1.29348966856466
1.35631150092945
1.14742387946994
0.978545775647042
1.13990805349883
1.30285784135651
1.11513911192968
1.07718374530864
1.11394533361677
1.04500396792462
1.57538778558972
2.00726314788035
1.32170372431169
1.1044364246937
1.47905764696745
1.14931689861963
0.964724416914532
1.08159239420926
1.42930820821189
1.10866527254368
1.14333619438223
1.30372823221096
1.39800321224126
1.08846918139772
1.04157176112793
1.63990633156633
1.81516210207943
0.856444311818082
0.962438426654528
1.11502710683029
1.20091752561369
0.845449756246967
1.14178971376864
0.991197247510614
1.11621689716495
0.840019905456452
0.957009973898689
2.82571808275551
2.06449052879182
0.925454956692029
2.10280854370232
1.2066151477431
5
0.902480815694588
0.966773022365312
1.85769380294724
1.48405896690539
0.97665706377881
1.29867357121127
1.81321928967392
0.929660560316059
0.943284212112911
5
5
5
0.720151169125356
0.547916593453241
5
1.52175531020491
