3596
4000.36533379555
650.420452594757
1
2
2
0.0298499575204978
0.0372695912570987
0.0239314679096361
0.0439795923476851
0.0336133929518911
0.0421573024533206
0.032651720873326
0.0384859316764723
0.0369776904475692
0.0493485580403644
0.0430762506772212
0.0366110790058244
0.039375508770614
0.0320872303689775
0.0367251342651304
0.037426144008741
0.0265000749215073
0.0395645656648587
0.0347910114340592
0.0427290477281915
0.0376333185217128
0.045253768848048
0.0344897978967575
0.0447745406344112
0.030926841697712
0.0347195204945243
0.0423185715932615
0.0495992051433018
0.0360113659500052
0.0418908004760297
0.0230418013088965
0.0355895079874339
0.0376766455860917
0.0428858521032102
0.0328129926287358
0.0366668021621811
0.0359902115828282
0.0423277226415215
0.0351218683003924
0.0408675778428954
0.0342909026746887
0.0416422340562593
0.0368353598150499
0.0436251361283158
0.0296299044186597
0.0330427232200067
0.0360874688868604
0.0407105185488703
0.0317931468282378
0.036905760366503
0.0307280784635135
0.0402430919369956
0.0332836783165183
0.0329586913202007
0.0405808857991907
0.0388503249977812
0.0255139183750859
0.0356268473938017
0.0427867807270483
0.0417042249972498
0.029989013288135
0.0480818893445589
0.0299510961177535
0.0364234667157456
0.0302363845189657
0.0343865630196822
0.0387572617024275
0.0330371882638558
0.0292280195259109
0.0340143456074515
0.033854736833495
0.0373067440873442
0.0420242097344374
0.0345647589167553
0.0310307303676559
0.0397967203170661
0.027088118889326
0.0356172981322636
0.0415110301355037
0.0306681814236714
0.0347598286787556
0.0351653578524822
0.0303813367567769
0.0373430806948304
0.0276758661391131
0.0343096521551493
0.027797254674289
0.0318140381282475
0.0428142628283144
0.0319437844360533
0.0309320816412578
0.0354107846402101
0.0386742666910114
0.037211624189963
0.036752166698688
0.033964309419261
0.0302179713153606
0.0234856665757671
0.0404733730387053
0.0322256249515069
0.035849650928383
0.045390636347431
0.0263809398597352
0.0505868124106604
0.0107809617177923
0.042138959506261
0.0330016116043736
0.0383250757410353
0.0369721115338479
0.0239030726488817
0.031044916569502
0.020973060750738
0.0320491165621039
0.0215661272236213
0.0359998008184532
0.025761848663767
0.0352998918184095
0.0341861738644472
0.0270074285138653
0.0242694909720428
0.0380083161770941
0.0321533630706183
0.0366330061121659
0.0386519091284863
0.034392751560818
0.034569437829935
0.0388630898495004
0.0406523066419752
0.0411593768597713
0.0365025007363673
0.0272377868110396
0.0305126371821488
0.030706840577096
0.030811228460741
0.0278099653465776
0.0328005963550892
0.0134519162626879
0.043789882112714
0.0239661113242629
0.022916924275544
0.0284452279164235
0.0283369028364698
0.0336329121595715
0.0438376270617403
0.0348306238866194
0.02732660292396
0.0277316980471208
0.0347985796617506
0.0306904507532297
0.0252086152112346
0.0192267076173035
0.0325718040207119
0.0311557020818605
0.0250279141617849
0.041418922714501
0.0316954456124416
0.0321773817057532
0.0491901727767329
0.0182246979108216
0.0536162777117323
0.0174488455787494
0.0371305828877577
0.0172094461890644
0.0409009353395845
0.0235099259250123
0.0408305520214442
0.0299796803257112
0.0391502133286556
0.0275152744721821
0.0320733067111792
0.0361551126050358
0.0345533529364813
0.0412738919839036
0.0147111645976513
0.0363413731458141
0.036488358787823
0.0340435775310362
0.0379091670871257
0.0203304108325238
0.0331587524628854
0.0224037493768543
0.035541386473756
0.0222229568892795
0.0456867020094336
0.0193075172954916
0.0348593596469675
0.0285967141646121
0.0317607170797601
0.0264897321210175
0.0345908120163779
0.0279902436404688
0.0368732757145549
0.0285515704944975
0.0322764814461434
0.0070597408519634
0.0449256631260872
0.0212482520469557
0.0466725932182404
0.0269104771315902
0.0266523146862793
0.0280197503389281
0.0231055855502004
0.0273837102277972
0.038975415074049
0.0226557416548129
0.0477922383177073
0.0162884898311102
0.0455818578852644
0.0183868160298698
0.0345579329772623
0.0282071825504875
0.0471447231456375
0.0206210555657158
0.0451598297999273
0.026113168439647
0.0267158562124405
0.0362696457324837
0.0382474003544143
0.0271455289691238
0.037330971834851
0.0290552043305791
0.0352323049177165
0.0287966647643525
0.03059906852922
0.0297603054976036
0.0273317671917264
0.03151258762918
0.0279536770970833
0.022054048716158
0.032838224773364
0.035851027425556
0.0378212125013694
0.0304616829363475
0.0287161127604463
0.0291036823568159
0.0363847698462731
0.0327958297044769
0.0348758604931283
0.0288821034558205
0.0360076331714539
0.0187488975511075
0.0367847353232418
0.0308470472854599
0.0394923790734523
0.0253950286032249
0.050143305037888
0.0200106164211219
0.0449020145021817
0.0187585085310337
0.0447249492419396
0.0266492529240553
0.0488373119318629
0.0266089356484397
0.0398862927966376
0.0289077601232438
0.036389091565155
0.0275624428529748
0.031683766748966
0.0273906223523964
0.0367314427652154
0.0241331550904941
0.0344854110286691
0.0378733248356512
0.0305306229187059
0.0567311618404375
0.0228365367320261
0.0396308249408391
0.0484788323349962
0.01757510404573
0.0475441671994912
0.0322569032862989
0.0338305855611892
0.0503012994289046
0.00999388273521879
0.0395411454580723
0.0312898634530444
0.0400627569551849
0.029533494272801
0.0393719070677991
0.0329740877782109
0.0369230438451437
0.0335706545422681
0.0385155660092931
0.0818330613971855
0.0181118189907838
0.0608029307347284
0.0167484925821951
0.0454368838065333
0.0306422286902462
0.036014843970644
0.0334424364479306
0.0509942321281546
0.0401887000016127
0.0431602363256212
0.0391798646193859
0.0364984318078986
0.0480464600442492
0.0431881319175012
0.0508753700640783
0.0460695044658389
0.0452938635501753
0.0348825705053293
0.0461125519809835
0.0329033764587041
0.052218806620603
0.0433146918090309
0.0402108503308566
0.0539387937064288
0.0349332706331363
0.0442124864814287
0.0504604735265344
0.0389732098167529
0.0426738897390274
0.0446160801515515
0.0517645686734572
0.045622317841001
0.0437400572924012
0.0365054829226614
0.0549414521194174
0.0468784939284435
0.0500018657042672
0.0436438373202964
0.0457260989114931
0.0461175426310328
0.0479480060810456
0.0482233582093829
0.0467510904826006
0.0571682456607328
0.0506001685220701
0.0577832810916954
0.0640724361470346
0.0418436779197113
0.0645339929879541
0.0621265850768726
0.0418057499417547
0.0571680045683865
0.0525703404566114
0.0640070341030564
0.0542191351996468
0.0639883870630658
0.0564986084474117
0.0618101080597766
0.0677496988103386
0.0794105978525047
0.0596194014306276
0.0701078170385586
0.0715151005357072
0.0885949402127525
0.0590998034120018
0.0811926832817869
0.0586458256926732
0.0892582491299158
0.0732716254303202
0.0765739626287021
0.0827736202826641
0.0619073102203752
0.0851923033327127
0.0746139771991956
0.0937803279021453
0.0768732369714003
0.0880798320886463
0.0856719163640339
0.092476819078567
0.0952273025760212
0.102381419138419
0.0931208927817668
0.102609608088001
0.112433374187844
0.100187273015466
0.0961239297800095
0.106277356775015
0.101139456083943
0.123885790684115
0.116807703714746
0.120001028623558
0.124348747569372
0.118393060991017
0.133282833177055
0.112005051565828
0.132717793650575
0.125251588387895
0.140237826710853
0.128740981445874
0.142636598539127
0.131274221472105
0.139829352269268
0.137390568224273
0.147113663225792
0.144840806470665
0.146669787611075
0.143283211911689
0.162743823233417
0.156982417045667
0.165811201180032
0.151781338120633
0.177334082710109
0.177103657894481
0.185514569788002
0.170084202444775
0.172293864184255
0.174664533129404
0.17091860177811
0.189707525908767
0.170333127234054
0.196807039688767
0.189108453224035
0.210368832823592
0.191900461402491
0.200318328825253
0.202197743590904
0.198308775662043
0.221417242998648
0.216334041706111
0.218027647163734
0.228225702058787
0.230954168424931
0.214372059573475
0.228595780922233
0.262259326685744
0.223514027558299
0.24603586397033
0.227271927681842
0.253440299555905
0.232458615688599
0.2520126650489
0.247042068001971
0.262379277518761
0.277136797837707
0.27742945762211
0.261901909556841
0.285354871334096
0.27723765310072
0.278517009818384
0.273040883414562
0.286730032342158
0.291155309437038
0.280966467484215
0.295659558691929
0.310467496896705
0.3006592131913
0.322311318824786
0.307416243455854
0.332714759340553
0.295624617389216
0.3230133678235
0.32230284937681
0.345179484173096
0.327505784987532
0.351175125647909
0.3336533199156
0.362164586411633
0.338930586001852
0.351086085725911
0.350729282637182
0.378786082035836
0.383161345457221
0.380387902186891
0.37674306329513
0.387205567816538
0.395359773563905
0.378988313710497
0.386827043271317
0.39147791603396
0.397700320940428
0.431305758161319
0.389582810423078
0.428684577162584
0.41888456574805
0.42582227706253
0.40490080053982
0.46154978096012
0.445743772356301
0.429023018643403
0.439326636034742
0.473349248155429
0.453299087906956
0.450580365529234
0.455516751816851
0.489363687382013
0.472552264052303
0.49950790880257
0.469303470156423
0.50047238846443
0.474991326557852
0.505579680817978
0.497898434569865
0.517990132113587
0.49805997222303
0.522977914497642
0.493734880923777
0.528168273346254
0.540284361725821
0.552104218548741
0.527711982156909
0.557327700110767
0.527031501400315
0.552957528669429
0.573873847629471
0.55800124854427
0.560260008543297
0.589171944242552
0.587949879122198
0.598772333388053
0.556412831717085
0.59027488176069
0.558650310305148
0.62978538430013
0.597783356166106
0.646157782192747
0.602652950050392
0.666158962347228
0.619131634201741
0.663706969566436
0.648639740728345
0.686791094617568
0.65876484149103
0.641754311362407
0.666754131778526
0.685653886872308
0.640533102083115
0.667847413246996
0.652516923627599
0.679743228416016
0.697910313102263
0.72386589351487
0.687281364467954
0.70532406653877
0.685506135299964
0.729909269604906
0.703830392258173
0.760940541637786
0.697914099253969
0.700723147210399
0.712037617602808
0.751767092431059
0.750057918721604
0.812634031253926
0.755093552601907
0.782759450096565
0.754248749063444
0.820462438848782
0.742616566427537
0.83113494197668
0.815505241258085
0.851355177300444
0.812042280028464
0.844517901878637
0.789342041228147
0.853715320302856
0.803069698240943
0.836393894473815
0.774222165633947
0.876269460323036
0.829153002344562
0.869407041229534
0.885134234624247
0.832759350489894
0.838802441565372
0.871862456890175
0.889106932805596
0.942562734140049
0.900517444280645
0.864846472227583
0.838655904592188
0.959601355448251
0.865564421351759
0.926584774675129
0.820699878680205
0.974680948599828
0.917357229575249
0.991516261615051
0.905964460296015
0.968476190668924
0.981143760411602
1.04836796774857
0.968218602604857
1.04007483534581
0.957911752807433
1.00722761788232
0.940796021931538
1.08354365410628
0.973163219221564
1.03058090896053
0.994739162127396
1.01645412117131
0.959648643357555
1.14281532797313
1.04150872632338
1.09371556146487
0.983089054233585
1.09887086900735
1.02601515046132
1.07420117802765
0.968986827016679
1.12914185580425
1.03477707848443
1.13261183236444
1.0215322784541
1.09687835676813
0.996191102435937
1.12140929446583
1.046159342045
1.17834103970612
1.06922113928214
1.17767860671971
1.02573717100107
1.07674859013444
1.108952906008
1.14777680637779
1.00594534570222
1.1963505869272
1.14658036661446
1.20540397707532
1.12394762840315
1.1705057902696
1.06779425150089
1.23908464632382
1.06518080253636
1.23049001266691
1.115781486723
1.12314951490226
1.19726946532023
1.34594317621838
1.17549577882696
1.26980154910609
1.14774039740345
1.30159998761199
1.13357141982159
1.31553323344334
1.16846262033009
1.36067602229155
1.16959920850705
1.23577360476253
1.18188153994058
1.33306543123363
1.18002456449327
1.43002196351285
1.09429745327875
1.327017648539
1.20098702153903
1.26627485874085
1.06250924814395
1.30312198529534
1.24342484322099
1.43667512235478
1.27449576614298
1.39957800819901
1.23780075233369
1.49700114814271
1.18976912998966
1.32234596264357
1.2576125630514
1.65405863058853
1.25742322142594
1.49336190775045
1.28837670288972
1.36617242821557
1.21683349029207
1.51268849333535
1.24278525353375
1.45015215180003
1.25244949052094
1.33608101090235
1.31771998456962
1.43241991075049
1.24816930593066
1.36828242956645
1.33057605269846
1.29442436552105
1.32855623626702
1.37995025673451
1.37470604354581
1.61101070677589
1.35456776917525
1.3821598303815
1.21182882541116
1.39845634798755
1.29958110768717
1.51764392993409
1.34059650696906
1.51302076747252
1.39920515941398
1.51778656065283
1.26297527510686
1.38583459422584
1.31224596112833
1.4493750434693
1.38677397707129
1.4418771106329
1.35585349529886
1.50490059850584
1.28092181091097
1.44010238121896
1.34086528046381
1.44497632455355
1.41514541468293
1.55023387901964
1.5384886034231
1.47040455537644
1.32002680196756
1.47733677315737
1.39814172632898
1.4619643415932
1.2922096731798
1.48957087703962
1.42245488574848
1.4110380846417
1.48649868995653
1.42727922892636
1.37974499087982
1.53315171324677
1.32818815300827
1.64837536412875
1.36617580837933
1.58248801943218
1.33028608621122
1.71739133889404
1.35338753184093
1.40884786494953
1.36892988852349
1.4650167304868
1.47362187959148
1.53666434472982
1.45569026917798
1.4405769619556
1.38676670481498
1.41291697371849
1.4732057620905
1.34811559680905
1.50142819721703
1.55748279196011
1.33448780680473
1.62591192894475
1.37553532340244
1.46264527441162
1.43522400422145
1.57738064132014
1.47503520199486
1.48425918834809
1.40782650133423
1.4844725185806
1.42831230623333
1.60229810143603
1.35785752707187
1.37914368145336
1.32285296937089
1.85972210485233
1.45191338758192
1.44701410156662
1.67921754990511
1.53678448536301
1.49598693788144
1.54307683313966
1.40895347796093
1.4845250298052
1.38757527709826
1.40713587038136
1.49336818261078
1.47182745336114
1.33374999751742
1.65642933695409
1.45039422875921
1.62822073987114
1.44862501719704
1.71643983699756
1.38187649258258
1.58503602251439
1.28399887352097
1.54691656668493
1.31999729588637
1.38565027433998
1.4450700891404
1.61869479246982
1.33910202188829
1.44372065616088
1.44673838031524
1.49607781230835
1.40540356665197
1.58488548822964
1.38955995715839
1.5288819263318
1.41142867878192
1.73479882754973
1.42942485415923
1.43925056735663
1.42797281986146
1.52377396737022
1.29742461327282
1.47160136478239
1.45650463131847
1.43671400481432
1.45053929119981
1.70671997120116
1.39058615886761
1.48809394734929
1.3444671978228
1.55740611564964
1.37980495724655
1.53006347066263
1.29580972490557
1.5532864738266
1.35913333041185
1.61080014800251
1.37379400229886
1.53633231457853
1.33725715258542
1.45164496457448
1.37900041132574
1.52737714701929
1.36593491769068
1.43392296689036
1.32250114577043
1.43613146908977
1.34813732031444
1.37487041692697
1.45949787365253
1.47897918620467
1.36612897887019
1.38918666050227
1.32196111065119
1.44727783823197
1.41093478977866
1.44926472844664
1.34623809256004
1.50017798464683
1.34277694246255
1.44769129305089
1.37061928312219
1.36956521793296
1.24027303090085
1.43922235103582
1.29316932206704
1.61308711634174
1.35175975611303
1.36738501820521
1.29290954144377
1.36910611579709
1.21108677722421
1.32236733236953
1.22603973240892
1.29768658757296
1.26006993498257
1.41626254311353
1.30477491148208
1.49511313214879
1.29948529825885
1.3323247016571
1.2297626554856
1.36682503762426
1.22093591768652
1.31213563041045
1.3232690953469
1.3114786654152
1.20775785917237
1.31049712414627
1.207260492006
1.28241107380955
1.20489308615825
1.31642888711023
1.21525237488986
1.30275618077305
1.27893390017241
1.26606872604424
1.22695620313925
1.30960679371607
1.20224326624025
1.30184830792465
1.23825219089849
1.24093202100116
1.18265569777464
1.2074986392882
1.14510955553972
1.205016667362
1.1762622086244
1.26592474437148
1.12028114268077
1.21949601594076
1.08362178196884
1.2496084732754
1.15614112830901
1.18136536534081
1.12631197813695
1.21299865176905
1.21356696252692
1.21914691331167
1.13249816404994
1.17679358187962
1.08598341242212
1.14818524114469
1.07916789379669
1.19918767844553
1.10763423932669
1.18171198634832
1.04696501720773
1.10912426490896
1.080696474583
1.10649288315529
1.07348811163061
1.11668196490896
1.09156188759329
1.10331686097926
1.05716607658391
1.04629096077508
1.02794311525302
1.08835455626091
1.00694746901425
1.0644204615159
0.98455819669803
1.08955279756268
1.01468625285444
1.03331744075677
0.986694264875471
1.02087887780698
1.02309659417266
1.01676135769147
0.96026957555181
1.00407525909611
0.972538627043249
1.00354295222748
0.99835138526611
0.987747828764716
0.931094151754629
0.971790856338705
0.94061354813934
0.945123046746234
0.929035492149321
0.954711458493706
0.924344729940706
0.962336932483036
0.924089796197747
0.934912070672795
0.909904961650265
0.929787045721988
0.922275714228066
0.927425511826594
0.89905093731417
0.914131693514577
0.857721664907741
0.936037947679724
0.893282422268089
0.897431516914329
0.887288233428008
0.869654047829515
0.874111701071242
0.874950848521224
0.849395708116045
0.868238267291759
0.863815694238552
0.86067036984538
0.82339633811104
0.846876195027426
0.839947052427726
0.827285178907468
0.818701677527466
0.861435257264099
0.806989181251549
0.831887282425271
0.804792902928096
0.831566492638485
0.802600824422191
0.809806414002541
0.77963918381579
0.811976226521633
0.791534209657273
0.774021654329893
0.769955521579784
0.798949031191051
0.775023997929393
0.771735860641437
0.756030281477885
0.762570384241887
0.742903844181612
0.748084337201732
0.722261920939295
0.754013877874511
0.748672094556774
0.762060300635798
0.729524710708409
0.741603206238071
0.731051454515278
0.753044213802104
0.718025369438343
0.757268978116332
0.698296707467825
0.726157185091558
0.699670020579677
0.711254873699159
0.691744395944619
0.702129027004633
0.692157039333264
0.695921243382272
0.67877705027739
0.683460318304451
0.680467266490754
0.689742332912979
0.67256691143082
0.685970293469045
0.662764508155906
0.673338723173027
0.652270419762006
0.663956340694019
0.655827791510683
0.66240247761919
0.65062570099568
0.662592326561805
0.636495658302824
0.646766414651694
0.640674108473632
0.633194174140611
0.624853301816953
0.643261595569823
0.615252211329785
0.626074791462383
0.605528984137319
0.612552098485083
0.602269958339154
0.613953678713538
0.588108694194585
0.596199794906466
0.605492369531346
0.592405223889205
0.591312092124786
0.606239079526418
0.576281148398966
0.578366982254925
0.577399683399616
0.567858487975758
0.576276609443876
0.573213260953797
0.566537255014588
0.568031491830531
0.560054145126457
0.567042880830702
0.55229881636556
0.565624084651704
0.543145162499777
0.564565775920013
0.529515265750857
0.548976610216382
0.536881596384332
0.540103073458348
0.528603540059188
0.524407933906848
0.515821408188407
0.538458115585239
0.518628669244749
0.534484289326765
0.508613062087766
0.516645034561882
0.506225132625954
0.515311687945855
0.510978056291824
0.518811837404552
0.496061631273282
0.49321058658395
0.495851444228895
0.497879948603509
0.487889210867235
0.500129118060664
0.493848445911324
0.495269205088751
0.487086371533168
0.495145073032373
0.474895615405006
0.48003527862391
0.474407205765501
0.481777230872782
0.472017105167577
0.47638595844475
0.466150657583685
0.481772134343946
0.469054635574484
0.473480210627391
0.461910458142201
0.467731079736732
0.460146857695232
0.469787941200869
0.457880707610864
0.46553617660174
0.455396736645873
0.459433253192971
0.45745864310454
0.465566433163619
0.464062639829759
0.46518678915017
0.456671662558523
0.478670487855629
0.462537244991705
0.479140932688956
0.46821506939078
0.471335366383924
0.472208482426494
0.475649794071633
0.464204548044016
0.481437437631064
0.474587229663475
0.493723602669954
0.469302339150437
0.489207022724459
0.477913160482584
0.490635530655561
0.485584931861607
0.496525687619702
0.479993392267069
0.494545393421952
0.49947087560827
0.506041224726262
0.499168948746155
0.504233358041694
0.507959539350713
0.515129322020827
0.499758360799926
0.50450874718959
0.504530843425437
0.517366584814171
0.51205015265313
0.530509983447386
0.520723391579414
0.529562870128981
0.515816815006359
0.531248578655457
0.518362322074726
0.540437094342025
0.535392220117609
0.545831376035154
0.535383428859182
0.55143421552933
0.544026634268734
0.551187848964554
0.55626875312677
0.562340660283759
0.554878925452594
0.565849344562755
0.556253728589527
0.570480012557249
0.564676027979575
0.587651975118462
0.580730173154737
0.5962418958044
0.59671965622311
0.606809421154385
0.594220790178969
0.605974271046862
0.604419393922859
0.604902819405265
0.600928307037594
0.620914815663388
0.609708186304767
0.622626712370327
0.623522575448074
0.632063838874305
0.622848228486915
0.630445906971608
0.596240266147046
0.622079577508689
0.615085283171117
0.630672890798572
0.612328747877998
0.621687355530479
0.624926227040213
0.615629490697633
0.610284678241743
0.615192247552952
0.602587617412404
0.60022345905046
0.604800459211055
0.618359415905591
0.606686047667752
0.617318124264351
0.604270559489668
0.607031318368521
0.609609277136344
0.603559436437381
0.59863695698441
0.601980252069395
0.591173466383431
0.600696263990455
0.598101075482588
0.612042952387962
0.598723736506741
0.604683171364663
0.595555279292132
0.617595787945836
0.599046581769798
0.610714780218243
0.609165957691607
0.620299467820612
0.605304006741988
0.615294175326814
0.594060752504191
0.605219635104757
0.599264329722325
0.607425940636485
0.604626559156016
0.612171715494828
0.594350611112191
0.612990107438458
0.598244161691549
0.607779693115596
0.591938444654116
0.597994535784437
0.584052402728439
0.595071696556585
0.599149751271989
0.597048539962293
0.588290492012238
0.604827988206625
0.580595501445795
0.599777895698739
0.581744690058687
0.581020664897335
0.574619863557164
0.587669419188795
0.578773794837459
0.581512445912768
0.565107619644993
0.574531445622091
0.550117821118682
0.567525373442363
0.552347299760201
0.544778865975023
0.542474985494912
0.550496611044225
0.533376830038532
0.530568290043648
0.532900456523927
0.532694573400924
0.521822198342574
0.527305698229956
0.513529802786443
0.514689828754348
0.507933908368557
0.513976690159509
0.504868695025468
0.503919874395649
0.488492541947651
0.489559559613323
0.483792977818
0.479682961993994
0.475764979475212
0.484844200749095
0.46236308067725
0.46852762169861
0.460293061698058
0.463773458442274
0.456166030070041
0.457633373655682
0.444846954976881
0.451087586336526
0.442874448395131
0.447872291300277
0.433370763582067
0.439760401510238
0.438125898879961
0.439295016227289
0.42743100301529
0.430329227728692
0.420244829125633
0.422021138089846
0.42938096317806
0.426957001031509
0.41063510272662
0.416284252994556
0.412318155710802
0.418294263018995
0.401768699151461
0.407668302267438
0.40590754985428
0.411352603285315
0.399185374170374
0.407896577595934
0.392610296289006
0.393217462622684
0.395493396531194
0.393219486575973
0.388747616439607
0.395615049815208
0.388726613090458
0.387104141494303
0.379594381678847
0.386272929550249
0.380387424480243
0.381106132801882
0.378399625961105
0.383020362937502
0.371902574869037
0.377375057959277
0.36559004823544
0.369827487887594
0.365600954094441
0.369805525832195
0.370962744956786
0.371313876028595
0.361830631456158
0.360020529877817
0.358926605272973
0.362680849165298
0.356764624187498
0.358332476748419
0.349676295649463
0.357136174545387
0.353710654573994
0.352698571104628
0.345893587010364
0.357360950451991
0.343176126026018
0.351854300030576
0.339909141580917
0.342421628709296
0.33632865635615
0.346521313235488
0.335640543344277
0.344249562816465
0.343191800398241
0.34118303511747
0.335557069210521
0.331910966237217
0.336748778884576
0.338792108545661
0.328953229330471
0.336341499757713
0.32942976960795
0.329927886967242
0.331293694979767
0.327380147590345
0.323705184210769
0.328609104870736
0.323641626842876
0.323842314637159
0.321969929913495
0.327520947995257
0.318611299320522
0.3208304937297
0.320102858300632
0.323005384699188
0.319057540669675
0.317421365973527
0.312556503162423
0.31906996998384
0.31353214717492
0.312920593739112
0.312456906682403
0.312027623778557
0.31142292230407
0.310668788352965
0.309115433922548
0.316783965162931
0.30898167749306
0.314722290441679
0.307773803631957
0.310078855181542
0.308538055544843
0.307409057681341
0.305383959451835
0.310821194590422
0.301510885789641
0.304362864349476
0.301917902132707
0.302027700789783
0.305502842357079
0.309225054910001
0.300896420681897
0.300579478893824
0.298353163031675
0.302659480307111
0.299000345514836
0.302215672234343
0.301270260742037
0.30045114306513
0.294769457062753
0.298025104323944
0.292781831419777
0.29864963475546
0.294206910586398
0.298719054837362
0.292438932300191
0.290540452839448
0.290274788899109
0.293412195217629
0.288291021638124
0.292314292269877
0.284874826477849
0.285496990086598
0.283210730259141
0.289726331482045
0.285064216203688
0.28691680688471
0.283037712419146
0.288799404560314
0.28476448474655
0.282071412258111
0.282005320420812
0.278876655160843
0.275202960108405
0.282004331661088
0.277625761557628
0.282075133468793
0.279042313713663
0.281371819848441
0.273383014622032
0.277251234543715
0.273189506810025
0.275737298953472
0.274143620854485
0.271679175503484
0.267571923589197
0.277164401819898
0.26873581112238
0.267283658563034
0.267519089821638
0.266264880714519
0.263745276885034
0.265847038034539
0.266455973845881
0.26798626586872
0.261313742804357
0.266289053522269
0.26310130854046
0.262507842723932
0.257350365279273
0.261311464632951
0.257616288091101
0.258175574292767
0.256037884153348
0.259390014541308
0.255318199838384
0.255325542022992
0.248620818916761
0.253312612179638
0.254841274149009
0.250589478757553
0.249779898309006
0.251120971801271
0.245288178220909
0.248883722870132
0.242954303782314
0.244399721127267
0.242046276708048
0.245142657278877
0.241643000830923
0.242520454073897
0.239019081388313
0.238204883923305
0.234693830427351
0.235409611075109
0.232121104583973
0.236470992719279
0.229014360825801
0.232661740059511
0.235593567989242
0.232076621057147
0.228282135378999
0.227256856057913
0.226047274227636
0.226394294953361
0.22092454179005
0.226776531789052
0.222811203685005
0.221716981724039
0.220552624659308
0.220919294762264
0.213861811884071
0.216998513504043
0.216930518665049
0.219720396150296
0.217051323665379
0.212720271289952
0.211797741876761
0.215302235505426
0.209770278677476
0.211211355062791
0.20911837465074
0.211910482008623
0.20871096592175
0.208742005658755
0.203448339547116
0.206406591764621
0.201280631562968
0.204966976157482
0.201555461408716
0.203508451010339
0.200981279990932
0.2017264221238
0.199330680046532
0.202370659850143
0.199056943823119
0.198209931310209
0.197194721232033
0.197144601719822
0.193315400555932
0.196413076640015
0.19511161618035
0.196272185272547
0.192722554023044
0.190873710204145
0.187711507466453
0.189962873987312
0.185171844064199
0.18967048110054
0.185373185874419
0.19139886861915
0.188474898197733
0.186028019654587
0.184278608599437
0.184128307294688
0.18170786871656
0.183442377006169
0.182472894087588
0.181917298902966
0.178093697433313
0.18351072878962
0.180575622711012
0.180333024360422
0.176732357584675
0.177968110673069
0.179034015244819
0.178923618197027
0.177195515621201
0.178316627762361
0.173525793390186
0.174585816577507
0.175879255673274
0.174592834429995
0.172287122351311
0.178099178626357
0.173130014237437
0.173794534182393
0.172470587019218
0.169765082165846
0.168082871317809
0.171373819275588
0.169279321984279
0.167600285600239
0.166717988524107
0.170311850383493
0.16993556068694
0.16864050119416
0.16588885866754
0.167208223098679
0.165524707731544
0.170141496692285
0.164968097609112
0.169041152425931
0.164372251634372
0.168247515891332
0.166120064411585
0.166479521559015
0.16217335480019
0.164412332157547
0.163981593936276
0.164001624892815
0.16147765486518
0.164672768315813
0.161174734141279
0.16300977569803
0.16408542637684
0.163993085511421
0.160053093979052
0.160599089094562
0.159353670174177
0.16181513893024
0.158679234806594
0.159510019648185
0.157422836575284
0.157627941331932
0.157400564738897
0.160362955757983
0.154331598819763
0.159245784920418
0.156520638754707
0.155079238548679
0.155732429333074
0.157069298067303
0.1540473432555
0.154034987714267
0.154304281057559
0.155297493168055
0.150832170216628
0.152347680855783
0.151715107256937
0.151645494854549
0.149838134068682
0.152444711713912
0.149641282097862
0.151374155467806
0.148449225081135
0.152070868583292
0.148421006919287
0.148461764565505
0.150171741462813
0.148508173980214
0.150280948673723
0.149232104334128
0.146248311769645
0.148873025636117
0.14591427465217
0.148867369769385
0.143117295561681
0.144181531050114
0.145186228778763
0.148180756630797
0.144562946488276
0.142777228264979
0.14099097556571
0.14502532057481
0.140791294378993
0.143489511858929
0.143305764858706
0.146985549976127
0.144246476651192
0.141982660873815
0.141355616528635
0.140831159549359
0.137414907777518
0.140328775359302
0.138234123604169
0.139412987914494
0.140810885129263
0.140258493522386
0.137986693715565
0.139973659814946
0.136274146588991
0.137419769013467
0.135596882197495
0.138357557841922
0.137925950049559
0.136386848879485
0.132857342865863
0.135461045424402
0.135592963013972
0.132591072633198
0.130997621902676
0.132731986021252
0.13103845575478
0.130002979136
0.129977529272314
0.130238422282514
0.130699606145489
0.133679113108487
0.126195953612929
0.1284742774927
0.127421931762558
0.127307877900709
0.125716049253583
0.1254564373478
0.12563741803689
0.124582841438038
0.123001476691352
0.127214463188012
0.120837570423597
0.120720378589076
0.122236515130125
0.119792702741618
0.117968418412535
0.120989523052598
0.120554750289657
0.11861233569399
0.119221123105865
0.120348034279241
0.117023917231361
0.118921631012358
0.117318248890376
0.121077869148573
0.118932256702078
0.117280699329348
0.115110733633289
0.118748779524764
0.114140086111164
0.115294631697156
0.112644840109512
0.111137425232917
0.110941237562916
0.115215246310061
0.112339026155266
0.114818417643273
0.112124459977906
0.111839889073172
0.110406777285208
0.109754507896901
0.110683882008431
0.111355402442277
0.108708613790361
0.110165408214701
0.109553571939331
0.110731405471495
0.106712194122664
0.107357124518715
0.107622513822005
0.105604148452493
0.104043409052003
0.107433814777229
0.104510639241008
0.105209643301318
0.103896321104644
0.101752280440568
0.103893323352307
0.10452194737862
0.101874078134734
0.101213328581241
0.0997784449984414
0.104365057709811
0.102798577960192
0.104602245751719
0.101197197854257
0.102867406414545
0.100588639210345
0.101350710677307
0.10161104241001
0.101443166427608
0.0979423182166422
0.100194088800068
0.0977361136344384
0.0960884405227467
0.0975460416238545
0.100903948495373
0.0962819913115674
0.0959522703917374
0.0962964639063646
0.0971934408974754
0.0944984169263807
0.0981943722616227
0.0940150398379033
0.0950905233751597
0.0945304648986785
0.094944362078999
0.0953987563603319
0.0960169113048542
0.0944173502388234
0.0959669632768085
0.0931654601970144
0.0942313320198929
0.0921547916135689
0.0960240219692498
0.0952493416159606
0.095102740967112
0.0913547400579931
0.0941524372410884
0.0924570625554395
0.0960533764966521
0.095332781918402
0.0946933279565381
0.0885267344227288
0.0934934879398159
0.0907802972854019
0.0951519937746319
0.0891916571723371
0.0902547168656061
0.0916056902106967
0.0933491625031411
0.0928358202875322
0.09114024879336
0.0930751532833964
0.0929005679686413
0.088106046943083
0.0922535939026623
0.0897644644766324
0.0944797413746258
0.0912676612304426
0.0917042581198687
0.0899857159874862
0.0931139587874444
0.0907500129665098
0.0922796572430838
0.0818734459901344
0.0943849753034798
0.0881722794655053
0.0969928782101744
0.0883576533812316
0.088848191833808
0.0918700762633138
0.0877729530996413
0.0865976071535727
0.0925570052453035
0.0891369204034093
0.0946095383640504
0.089333183591345
0.0935084194970436
0.0874958881214201
0.092917339260598
0.0833705420670778
0.0955332060885567
0.0853750883161201
0.093009791188473
0.0808921390478493
0.0931065932497151
0.0724940127140536
0.0968896072427481
0.0745508312488784
0.101052352112435
0.0808693713640921
0.10329742961123
0.0744200494350273
0.099689204088537
0.0625081995991238
0.107088044016578
0.0690645953974854
0.110128907531121
0.0605921247026271
0.107925728752444
0.0652231203030554
0.111490084318854
0.0640593662131435
0.103770448996324
0.066599476940131
0.104268054344273
0.0707428277466709
0.0934964619831265
0.0797457596405649
0.0835113535883819
0.0860462502348185
0.0848470118687892
0.0925705218458079
0.0767698712727273
0.0930031826465302
0.0750677239464724
0.0926456268256822
0.0804636814432999
0.0869280866358557
0.0808286421285255
0.0821793453991321
0.0846920484519328
0.0805382748289503
0.0815271243554285
0.0811460342488247
0.083731862587287
0.0834142561994221
0.0824945959277924
0.0850348130534155
0.0811200819706839
0.083070812486699
0.0835291337090052
0.0837904718283115
0.0814384851165426
0.0821339036003264
0.0806919050878612
0.0819754040072202
0.0838944665949599
0.0814696263181885
0.0822197724279783
0.0820820342664553
0.0821623822281214
0.0813864824003755
0.0840678078600921
0.085145546385381
0.083808862071491
0.0835499404017492
0.0829883324067509
0.0831302633698444
0.0841609071400747
0.0839647913098835
0.0845542082664626
0.0833736170581375
0.0838770188817705
0.0821938372582752
0.084524556924015
0.0857005707064167
0.084502172531771
0.0850349812145667
0.0852871802570237
0.0852623970925867
0.0853652012424923
0.0850397375689461
0.0841192808965232
0.0838228767221843
0.0843557812442621
0.0843772627622019
0.0835083687917671
0.0823917310633975
0.0846721413890995
0.084375034740982
0.0847833392284887
0.0848608725104034
0.0833422624094406
0.0845580543187566
0.0853411318881834
0.0844903612968618
0.0825901108925852
0.0856817727240238
0.0835368815860069
0.0853097273814269
0.0836410940149506
0.0864842289936402
0.0857231616191026
0.0839194944922714
0.0872503075186208
0.0833283742169628
0.0843691477676778
0.0865604125735269
0.0836501362824927
0.0865732133485938
0.0868515764217797
0.0875452454368323
0.087181429755441
0.0858737827633142
0.084561027216077
0.0845856841067777
0.0851670025785224
0.0844717539218917
0.086995291188613
0.0853327823261291
0.0854335292378041
0.0863450584146902
0.0879073291072732
0.0841183453295563
0.0877318404045822
0.0886274509202262
0.0868466441955775
0.0884923754374232
0.0880314931290857
0.0876917401682189
0.087792884029069
0.0891986801408021
0.0865843571807685
0.0856224191733397
0.0862867584891902
0.0870759291574194
0.0901333875693059
0.0880774985461918
0.0901476006187306
0.0909088096097615
0.086395215824604
0.0891891048268156
0.0893609267493077
0.0895751416197481
0.0919775148972162
0.0880953752987736
0.0899492933770869
0.0911235438513133
0.0899930339613119
0.0883502009229522
0.0884880859278615
0.0890788101811616
0.0909209525364947
0.0882823287255756
0.0912530916956297
0.0920885203559386
0.0921914665835912
0.0905051416746987
0.0905140958409889
0.0932003599813263
0.0926266346068763
0.0900906099145194
0.0902278510100757
0.0906896320190903
0.0938375125756279
0.0922796499333691
0.0892561238668833
0.0919495567393592
0.0912566977479637
0.0910785733986249
0.0918910760323186
0.0920620449254863
0.0919839241309028
0.0933981082725642
0.0939333355448529
0.0932029811453774
0.0917588990064439
0.0933711563405673
0.0929912513227904
0.0937229309513818
0.0931883254836972
0.091691881973473
0.0936835633439768
0.0946525648055773
0.0963616855528405
0.0961654085384653
0.0972039181320095
0.0947339881059166
0.0941382174201734
0.0967705119977734
0.0957047790427555
0.0957941857147772
0.0954790038199253
0.097514018935025
0.0967026163820332
0.0957450614602132
0.0981161498731195
0.0962256178394369
0.0967475577548857
0.0971578352402973
0.0943626552976482
0.0961241470207972
0.0986779518907847
0.0979706732881546
0.0955523624103351
0.0968317435590348
0.0969651582770915
0.0974504681103348
0.0960437264267644
0.0967126945695023
0.0987019768535417
0.0976173383300612
0.0994350018955514
0.0968892517972496
0.0956806271454669
0.0958813176079294
0.0920636056262783
0.0941462656496638
0.0979799679672136
0.094102109447659
0.095876815100806
0.0958221345496541
0.0938698038643789
0.0938397038553518
0.0958015145949645
0.0971038567477909
0.0933688133933222
0.0943773138041323
0.0935948931589678
0.0930208674382528
0.0962614188247343
0.0963012752211663
0.093184841816316
0.0928456037687459
0.0940902417259866
0.0925967546221224
0.0911236669976866
0.0937442278120738
0.0943649918905405
0.0929933668321817
0.0938559652975858
0.0930069752544463
0.0942582295761928
0.0929792889844841
0.094646466901615
0.0919039784266543
0.0901614405841062
0.0931548274424986
0.0938614481583915
0.0916864390716611
0.0914065245918219
0.0927374704188553
0.0902407520663818
0.0918303959456709
0.0911379163930785
0.0923478355731927
0.0908755809618835
0.09112258039425
0.09093741807588
0.0911639761621382
0.0908991904606407
0.0901951357953056
0.0918213676798453
0.0907230075834618
0.0902361442633879
0.0922896392471773
0.090352336779287
0.0900620281073649
0.0898829884619635
0.0898077198607256
0.0929284245448148
0.0906356035486816
0.0901188731246361
0.0866923950232912
0.089325556199408
0.0914065924682752
0.0871464892976858
0.0883694299534102
0.0913816665457227
0.0901611604388381
0.0902365990347555
0.0896396547718871
0.0905376914625792
0.0904414834164929
0.0898938000359455
0.0906561480851457
0.0868623940345239
0.0886474965381091
0.0884603098314701
0.0890256414633761
0.0875870108778458
0.0887467971067482
0.0874584161073939
0.0889189421024505
0.0897311699765484
0.0898310476089533
0.0917137859225981
0.0860783054647305
0.0866393822858593
0.0880284806250946
0.0895765545595986
0.0888331029300993
0.0881617101498943
0.0876508034433252
0.0888811959466408
0.0891975127488631
0.0883650368995163
0.0884832401008561
0.0873750145045779
0.0860761209230798
0.0848066017929734
0.0855658527532026
0.0849805365281276
0.0859029985838519
0.0863922956410726
0.0852932793308215
0.084804651995299
0.0833570258960447
0.0867514617848961
0.0860911533769851
0.0848246981284772
0.0849166984368312
0.0844652005275203
0.0855249034712608
0.0834973262173329
0.0843672172824565
0.0825613314200424
0.0828652221282001
0.0821540037174399
0.0853459273215383
0.0838799542151735
0.0829413768873862
0.0836380176035231
0.0824689998913183
0.0819187124636495
0.0831753569528765
0.0802981963354196
0.0801415322733565
0.0817324339417193
0.0807385082830942
0.0786894996078076
0.0785508272939976
0.0803427573447588
0.079645719035017
0.0786066683281317
0.0794734507503648
0.0791607684249136
0.0796601448017314
0.0767107498273426
0.079130207751666
0.0781180031925855
0.0776753134575051
0.077788983993528
0.0771157020200164
0.0762895442089159
0.0781717895331939
0.0746397291606619
0.0763328230898956
0.0747396422255502
0.0745469324318346
0.0727823656743792
0.0762078915545361
0.0744794521367687
0.0748727242113181
0.0753641181537935
0.0724503152126133
0.0746972617111866
0.0749682100214611
0.0746645838895249
0.0757382061862851
0.0748978447151382
0.0727155550975871
0.0722023740204528
0.071064094474113
0.076929561518527
0.0722399861427493
0.0725185154717572
0.0735129815107993
0.0702257184317728
0.0713579787262271
0.0722623769347042
0.0714285009589112
0.0734297041477207
0.0715490485446709
0.0709539659821733
0.0701096097393239
0.0705346309563919
0.0690774203710617
0.0723019989161015
0.0720367986008358
0.0687167203796473
0.0703419952620538
0.0692027331594047
0.0696965285908201
0.0717917423165812
0.0713177862299738
0.0716448880371908
0.0688184076528397
0.0700224722924751
0.0691431662506721
0.0724332935746181
0.0695330944419677
0.0705012435609886
0.069504246339663
0.0710042133947886
0.0688876568816617
0.0709013102774184
0.0681916471143688
0.0695132702664965
0.0699880116859518
0.0657558212093751
0.0678052090641866
0.0685529157474454
0.0662881925832724
0.0664499908997274
0.0650336148961745
0.0671662318583266
0.0650740986132203
0.0685608496583505
0.0659484485022565
0.0658025169555518
0.065013691126067
0.0662372121853349
0.0669132434399371
0.0656699492494421
0.0662844840912847
0.0662440329800463
0.0681595769661485
0.0644671511262607
0.0686483525745913
0.0636450697036785
0.0672317676947759
0.0652843644403653
0.0640620123107947
0.0654499844668563
0.0659921367560381
0.0626059415465112
0.0644299997252125
0.0636875681937296
0.0661216671653334
0.0655089304678104
0.0645266721352629
0.0632637604697058
0.0642874739769281
0.0622738430691206
0.0653777264191713
0.0631117464713075
0.0629254485465704
0.0665187509896087
0.0675819113670604
0.0618085523058166
0.065527330300839
0.0597247430059922
0.0702860433417635
0.0648008071442636
0.0653350262797696
0.0644194300487695
0.0623491369126935
0.0651097237759462
0.0623379706447846
0.064734833774549
0.0628783115738527
0.0632961379167365
0.0625582599080576
0.0655977233258364
0.0618104523471031
0.0643047975521671
0.0630282099516315
0.062911639973197
0.0614557833564796
0.0646313006682635
0.0638620916389924
0.0645000356561298
0.063396591310324
0.0623954813432497
0.063190446887706
0.0637047259473516
0.0634345803254885
0.064344781583208
0.06291484134162
0.0627605545811161
0.0634431393180795
0.0638145990085073
0.0618601340166317
0.0670158527014685
0.0587525959756219
0.0680476743938989
0.0597624998140466
0.0652111298922898
0.060699623393837
0.0638976641662626
0.061914686742723
0.0613993946986598
0.0616954136032931
0.0627262308213461
0.0630835120511682
0.062024304385418
0.061885618008553
0.061204897279907
0.06128858065595
0.0609467598996558
0.0627671187553092
0.0623179147714495
0.065034921863351
0.0615729300107718
0.064694430844722
0.0648265336914039
0.0657913913763051
0.0678401803738108
0.0625982966059336
0.0640589259206767
0.0606542668834952
0.0666975758707626
0.0598335085941863
0.0655081496816543
0.0615925080855331
0.0635564823892394
0.0585453742062291
0.0640056175577357
0.0603695730689363
0.0665380696554886
0.0602853394341023
0.0640038280489717
0.0626002124693893
0.0661269924985488
0.0593486893002969
0.0650865850476779
0.059630920149613
0.0677161457229887
0.0616954834130109
0.0675501832331974
0.0628731305131996
0.0675389162592932
0.0758026316472551
0.0601519466128988
0.0703657284678477
0.0572684312521377
0.0676371497486263
0.0633658637297282
0.0654123304709464
0.0648067301819163
0.064955763583761
0.064429389468542
0.0644010312174869
0.0619788027732111
0.0693131870568132
0.0648664395182508
0.0635347619183026
0.0725217258586838
0.0683189165595447
0.0663622531408373
0.0661616073736961
0.0641553099724231
0.0765995204964263
0.0629920929955376
0.069576904635789
0.065187647174332
0.0669924705087831
0.0664583989089999
0.0661327397138257
0.0666378454653417
0.06775981154361
0.0693289319366756
0.0673278900395691
0.0696253339677496
0.0667220720618301
0.0682491641650204
0.0663376310187689
0.0670966852315063
0.0736338846162302
0.0679768944163924
0.0694070633490351
0.071628602530242
0.0696247357468141
0.0707854552700574
0.070607688674232
0.0697258827285074
0.0691189815905311
0.0740821358437718
0.0699798978362485
0.0734183572314856
0.0748345867487069
0.0698559310371379
0.0723543706088735
0.0724623583765532
0.0753858787632097
0.0752593549488639
0.0670379012690634
0.0868263241973679
0.066124228467901
0.0885202949154967
0.0722980259471127
0.0774003683472824
0.0701948842030059
0.0797960243494557
0.0683914393119009
0.0779780093198321
0.0763130921760098
0.0731761979578549
0.0755870893964204
0.0721779667683327
0.0827055145748037
0.0713010508139229
0.0798245202597746
0.074555186899575
0.0804612677640007
0.0778690031401957
0.0879123682935204
0.0734970942828115
0.0916773056118624
0.0767978821081238
0.0849510895379856
0.088908601451021
0.0739793917955399
0.0864783582960413
0.083315650792378
0.0837795682346815
0.0845910695933666
0.0823231056764556
0.0874997889573799
0.0798215613953523
0.096031775263431
0.0905438387387882
0.086310553145833
0.0928063177142454
0.0868090511635245
0.0929735901309109
0.0952887287951478
0.0912890532153466
0.0943377452107936
0.0947785879829391
0.0941465201990574
0.0981937722312609
0.111853436143213
0.0923822721319676
0.117675563693044
0.0958305795305232
0.111434042859935
0.101410406583368
0.111889050169636
0.100673751363565
0.116645931190583
0.108762154421015
0.113494346537995
0.102386000389589
0.124754067632689
0.104395097249134
0.119402533588034
0.11232944647141
0.113126719589488
0.118004425884385
0.129557900387087
0.116317781534443
0.128255362275772
0.119095494495207
0.125446830622781
0.123732870261477
0.129663542443698
0.126771270293613
0.126323891489484
0.129282826537285
0.130853135998309
0.130607351041045
0.13757950875144
0.137942302905186
0.142241975151876
0.136306096376346
0.147514120411969
0.142658750481796
0.160814066018433
0.142304666391107
0.157236651758067
0.151118014190126
0.156158094580778
0.158581341101348
0.154866370432518
0.160229349570165
0.161137685152232
0.164214112763665
0.167113786035862
0.167348333797224
0.183938162374816
0.171443401567426
0.193613945660036
0.176935913325252
0.192967226622366
0.182105294798716
0.213942749208092
0.212840520639642
0.210398140849313
0.218727665764624
0.20952644414096
0.248264370125449
0.227246623390241
0.247033770493313
0.249798892769581
0.257845881991912
0.262876186191645
0.280278148855657
0.284001171896811
0.29379821677732
0.302950880890599
0.308848759814416
0.321000574765036
0.339077958905291
0.357074230607485
0.368039239791172
0.354849501278864
0.365186318979023
0.383806731964145
0.390443436103921
0.396674960627626
0.411691098009091
0.404843239202224
0.450907627302779
0.443769674774115
0.456294097267823
0.456059864392466
0.476339792035502
0.481653478712078
0.479928850500893
0.526897963664056
0.503398800113442
0.532959134316277
0.520714849359411
0.546549831386401
0.552796220218742
0.564129716359982
0.570787983122627
0.593502678100564
0.582732841841389
0.598665097074823
0.603855173833591
0.615147146071866
0.62232507860703
0.630273450566572
0.624983307913527
0.657882482069334
0.655009968089082
0.749820135995996
0.645200853182491
0.660642859758284
0.646111344127906
0.664662066414972
0.663005772580154
0.662490276617251
0.691982501272867
0.668766213049683
0.661655239441314
0.664367961075581
0.669290118763763
0.663680323300049
0.666442721661332
0.679170068557733
0.670522888493049
0.697354675136526
0.647679247163577
0.709507075216228
0.679719013580459
0.674694834410385
0.642684300534065
0.682902499938612
0.65238149870493
0.667584914428847
0.643180892402747
0.6412476908284
0.662800577815383
0.645904385789136
0.633466992313804
0.635794913391025
0.628022414578936
0.631450797194892
0.611220223717104
0.606842258414468
0.593250712200513
0.603611654539927
0.577495456013734
0.611247559793353
0.590258593759475
0.571561253798548
0.555588192101825
0.553766077170945
0.549902089081949
0.543590419059434
0.543367916439522
0.541615975028177
0.534396242520647
0.526607705693286
0.519666375749015
0.522634249329876
0.509158924172374
0.517755112084078
0.514093029154552
0.505670536448581
0.517352715760292
0.511894079646645
0.511532853483561
0.50810723154308
0.499243985094098
0.505634008564689
0.496643541737062
0.497309581378138
0.496020524007076
0.492127283720073
0.499267346975617
0.494622330165576
0.49652002086553
0.492572364701346
0.493562088198863
0.485083240569152
0.492385910554492
0.493451981614575
0.493973488448183
0.493359147620215
0.485101898527151
0.48766792827145
0.48666884104659
0.484874813750334
0.492316724093379
0.484628819679444
0.472394626132304
0.513819240564513
0.482097733786846
0.491528993756101
0.468052427721345
0.480755221263932
0.473959726951121
0.476657353915099
0.490394441326879
0.469307533836991
0.465948312653403
0.472844681783954
0.459068956435727
0.472603188803289
0.465490835523614
0.464592795759758
0.462708643890396
0.449636246507747
0.478955008141175
0.462392144539849
0.516087295118996
0.472429955419079
0.458615321722866
0.44106379561078
0.474628414926045
0.459159700171477
0.453220699918052
0.453681025620356
0.443217408204549
0.46904122600755
0.45536429535062
0.455191099904449
0.445228817519778
0.444481349298762
0.463939715083851
0.45287516768214
0.44288053028346
0.457690595429983
0.438202421324912
0.440681707678749
0.455951800412927
0.447329077293745
0.419092483016992
0.413837775998547
0.421737473069153
0.41451059460738
0.412190573297239
0.4272123248766
0.399666450116667
0.410330276805017
0.391169729213379
0.395377449591103
0.389855771887671
0.401044128553138
0.375096003320206
0.391680413926655
0.387156408788076
0.367833273402239
0.380529484303226
0.367876140024507
0.386128159676808
0.368950466232141
0.368732187872819
0.349189901589514
0.373613805687099
0.356134948731424
0.351517134517904
0.352058745622692
0.338743259099152
0.341735174467723
0.340182609456972
0.323810912996305
0.339427778707957
0.327377369984525
0.326054119393877
0.321650422070382
0.333654852595844
0.325770433515237
0.311060130173834
0.309878777517523
0.308426575165215
0.303011851826894
0.309281834146328
0.298287999759842
0.324947218459296
0.296890320293178
0.311933336922443
0.313324850428662
0.300768936719051
0.306510443052924
0.303412093788311
0.303578639485804
0.30976806608696
0.312078503201004
0.324565223743727
0.314335671101823
0.32841661823301
0.328434818966087
0.325837928862623
0.328978613359885
0.333222113587907
0.338680518561278
0.339851499469564
0.352683127978672
0.356100920998154
0.3550343981661
0.369565541487008
0.368673404074657
0.389972159257232
0.391670069026471
0.388970219231956
0.413820557030352
0.405898685136211
0.449734139299678
0.421980436063106
0.435532316583366
0.431231457225714
0.442799497242462
0.459436917775638
0.462057146610289
0.467701410371741
0.483587601796706
0.471539465127824
0.484618103937023
0.484114630544022
0.494087095782099
0.492522599945689
0.512731651564457
0.497790002743942
0.552728560922596
0.532669588506618
0.527629403321844
0.526917938487831
0.527062425018323
0.53611172952275
0.53454071601097
0.53259401722203
0.535623196651463
0.542536803914276
0.545540214541898
0.534974248199887
0.54297432645076
0.539252881885959
0.551490547090883
0.548067197080507
0.555141632844235
0.56364044385854
0.569127317066761
0.566793418054604
0.563608065845292
0.567202690734211
0.619241564679104
0.573596889301283
0.587963883331618
0.585420118262683
0.594803756234864
0.584601914861208
0.600648315930407
0.606099076100669
0.611119722855366
0.611080787972797
0.609566102907427
0.611202489594335
0.616666317402607
0.615267402646322
0.643837374912708
0.619252923875768
0.645714643542608
0.612276959154967
0.66338979493496
0.657729209218019
0.639178897186052
0.647281125530679
0.657672392888458
0.650622936729998
0.651413035838582
0.658382071428107
0.659308842494885
0.656019978379976
0.661380839293376
0.666723539319516
0.667205733059358
0.659308201044417
0.664810716916809
0.661915932330227
0.67004512692725
0.665577461971424
0.659972595462214
0.667014804330754
0.661571403908603
0.650672353859778
0.677359019753999
0.657893223597502
0.65820973651826
0.658357789718335
0.665241939568255
0.670790340310578
0.66623966797035
0.658511901334683
0.663522880207382
0.662591385910717
0.672480472021578
0.65551770767315
0.673389456405069
0.68434995689255
0.668534024985851
0.668586170137387
0.671729082725402
0.679202283011254
0.683797361670478
0.67711771055009
0.685560091446048
0.682052286318868
0.68807607719975
0.691342231399354
0.696110239371977
0.688676707344986
0.690427993623061
0.697871523408917
0.703792228138299
0.685883847285889
0.693863637747617
0.680715072987593
0.683648607761716
0.684910375995863
0.681068723334017
0.671258458050944
0.666509783375899
0.655290332370663
0.658300612516217
0.664229263628998
0.644380731339526
0.659421453865201
0.627300696699987
0.623589081718731
0.627280490274108
0.624481322026627
0.61875383299823
0.614117061566271
0.620266556797843
0.610329718225403
0.605757501427003
0.60666556352472
0.60802467191168
0.597287659301382
0.598182628044509
0.593145584371441
0.595666622180198
0.596304055685518
0.593297829845236
0.597699809734993
0.599985299388511
0.597322263703995
0.590874760800465
0.59776764972404
0.596432387997947
0.598219547038837
0.598072691903794
0.588875590312358
0.596285550013373
0.591419662666393
0.588908215573934
0.590564621902897
0.590061290288115
0.586081816031845
0.589510972080819
0.584042203232155
0.595364759124663
0.584346440534256
0.589822127717231
0.588279766738749
0.58313594741417
0.585297251245325
0.587339050545096
0.580751342885662
0.589077128382854
0.583219736422693
0.583935456481885
0.580736641656287
0.58855108820128
0.584227708919177
0.590952115154294
0.583615390913739
0.583838119706133
0.583693819978838
0.58712071127747
0.582044458236017
0.588918500712665
0.583580824493526
0.586160205499606
0.584735476987419
0.582570581606112
0.580320508159796
0.579636583311002
0.570980958609983
0.570754410560471
0.569828827415336
0.562517215095
0.560289028052761
0.561640869943475
0.549298937970692
0.549244833383504
0.544966550211315
0.546316202983351
0.533957515591217
0.53221654111586
0.531912372695569
0.522640806002433
0.519943851651196
0.517125136108578
0.514765505242137
0.515418031210191
0.515499376900452
0.51242707709751
0.509146585070463
0.509209854930854
0.510811813703829
0.511055002280866
0.509894695122968
0.512917879894006
0.506516963455751
0.511200576318428
0.514169752577373
0.515343389575459
0.512739016646484
0.512855832371205
0.509792858603048
0.516139864033701
0.520221633754083
0.520756676376615
0.52656306301339
0.523028172774259
0.522381757326274
0.527602175844538
0.530563844148544
0.536179354697276
0.533603701524837
0.538303682024331
0.538121966210317
0.540852766621813
0.542703229857818
0.539080423118918
0.541974353320334
0.542104871049565
0.542435046501951
0.541470572837409
0.541527249161436
0.543911400432423
0.540550223434774
0.53427341471879
0.536707807498133
0.53524704650703
0.533936930082219
0.533142065953375
0.531050842060092
0.53246495169918
0.530237768598475
0.526210768134009
0.525656553801112
0.524212419004232
0.521942011612774
0.517925985136098
0.518454213183661
0.515727332297856
0.51619404650963
0.513494326888368
0.510371919789476
0.508812774720463
0.510279079548014
0.505811817147161
0.507032309398838
0.504689309782984
0.498007980428297
0.504543573102729
0.500688427168114
0.497994892000596
0.497373618881108
0.495329799021592
0.491365702577597
0.492705370806297
0.488215077370542
0.486592093304038
0.481990777050061
0.486324541499333
0.480224306272812
0.475844641394151
0.474643221429888
0.470389903210401
0.469259129089887
0.463648579272668
0.45909639914922
0.453796070178586
0.450158840072086
0.448125885860345
0.445940795309944
0.444537627528542
0.437012405081332
0.439422664372955
0.43699729362124
0.436044992596433
0.434309729845119
0.4328353454909
0.431237989995942
0.433291523885459
0.429304401158239
0.429716666307152
0.427735006986225
0.423411278508378
0.420618160770482
0.417261484711588
0.416674630837575
0.411386850256918
0.403690098152612
0.403042574913414
0.396791375502391
0.391932343983098
0.38958961759814
0.38204227635312
0.379988269263468
0.380983741265949
0.378452218645826
0.38206898842838
0.383047387435551
0.389763986084146
0.396371173422252
0.403206370489834
0.410195002949213
0.417708192954331
0.43241729100225
0.447390931847245
0.459943769973298
0.477877297689056
0.49984948021276
0.513905315626658
0.533263518369094
0.55088718448697
0.560305688003217
0.58848191037842
0.604610463127953
0.625912872043027
0.637399260522925
0.656828556209625
0.677701034070662
0.69207121375825
0.70445345262306
0.721912531478747
0.742050002681793
0.751211086915081
0.769959286434803
0.777398276234875
0.785571790114732
0.803260972004962
0.809895071132175
0.817829490729333
0.823911933180707
0.838823292884557
0.841302895949732
0.849640547429255
0.856425772751163
0.861569541778495
0.853103442885081
0.854711520653995
0.854107050043305
0.856196192890517
0.854338640108564
0.859758787230953
0.865822467663954
0.863193257378772
0.860727014519243
0.86010295478723
0.863345151776623
0.865416148666057
0.869710111451398
0.868677702380722
0.885370789108607
0.889564668065549
0.893811637055406
0.904069534377115
0.914027680019675
0.918046719551202
0.927899484292394
0.941364066528644
0.949671801371228
0.974858230689649
0.972158733942323
0.984142946982664
0.995175656186242
1.0093503684191
1.03038537632554
1.0345750942694
1.05339097050993
1.06032075815151
1.07828633434499
1.08490711315054
1.08202860184268
1.08564846940777
1.10291382553114
1.09544868264474
1.10044206727072
1.10215278136633
1.08210175758863
1.07389215177581
1.08141298949987
1.08479516225868
1.09661632373654
1.08630719000121
1.07371939883115
1.07681871872736
1.09377948926477
1.09967438604769
1.10077858426475
1.13165718189333
1.14915182556326
1.17014835253565
1.18296979018829
1.177267810007
1.19603860024117
1.22880329385129
1.24065384239753
1.24948379409138
1.27245242261926
1.30746156001738
1.31107538662331
1.33005392813468
1.36859732132039
1.36952214549283
1.38966407540164
1.42015944787517
1.41488244818178
1.46196921366852
1.47636834275675
1.51248447159595
1.52856108229642
1.53815670591044
1.64096236700472
1.56915795914448
1.63815200946324
1.64347891173425
1.64859650806354
1.69713232407629
1.70168435027206
1.70065242599327
1.71502349372482
1.72366642169101
1.82404116325456
1.78856967352015
1.75529845768402
1.78577823440471
1.85767148812127
1.79708771590921
1.84478073692927
1.88883283380104
1.88029581519504
1.77186773931814
1.76079630684536
1.74633425019644
1.78288938545205
1.812916596333
1.81881938186732
1.76876687296248
1.79556975740215
1.7899118304291
1.78028604785844
1.82481318574842
1.93518122423722
1.85587056005148
1.82743795014981
1.86316886531169
1.92208220153593
1.82393407627247
1.90977002822482
1.83149191602398
2.16139047554289
1.97937201776356
1.99296655286119
1.9401194452765
2.02209226775715
1.99324002151412
2.0777804761673
2.18254829175313
2.17143591804889
2.17181187327231
2.09031153592614
2.21261268889627
2.06458996724514
1.98326748556546
2.30266567207458
2.41874658216927
2.23044174884487
2.23825726405673
2.61551946794149
2.16160079024172
2.14341064528034
2.12848431324615
2.19541019682867
2.19269415706125
2.1402342042747
2.2312723308322
2.12102740011174
2.03856570815858
2.15484345015923
2.28894202306152
2.45740592477157
2.11360279486871
2.01893211469814
1.97743051130092
2.02109154667058
1.82503358465641
1.79844544542701
1.90268500189231
1.74686679260977
1.73737176035611
1.66382102354897
1.56556821863927
1.58014365477702
1.52687993483096
1.47381943363787
1.42172958245605
1.37544720747941
1.38011826009868
1.40884724486081
1.36570389844676
1.37638370134313
1.3460748612236
1.32129395128272
1.32842026034226
1.33686737609819
1.33250545708344
1.29469495408905
1.25378387004469
1.26415247904464
1.22851555577823
1.19715181755289
1.17104101002056
1.17501334385234
1.16976640097609
1.11354653396426
1.08737937937462
1.05113229186738
1.01009516107619
0.984158522600357
0.941971549542203
0.910849522639716
0.882018509820982
0.843914490878805
0.802780361552979
0.767562776481096
0.732956441346863
0.705514755348761
0.671464262782273
0.643516869223554
0.61221212678142
0.589449148733423
0.574559349564734
0.552896168381381
0.530298057695113
0.514390214199961
0.496471552069818
0.488710507682
0.479088747980438
0.465843839943611
0.464638087642447
0.458470249196701
0.444328840095063
0.443361105202394
0.440064579570299
0.443822844313943
0.442418044455648
0.43982211840951
0.440474239329135
0.440226443164861
0.443840771040688
0.450224547608307
0.448660165240651
0.454098589417438
0.449920281588641
0.450523576923199
0.460437778847505
0.453490317875406
0.453789289752914
0.445394193585514
0.442930486675867
0.449033626927455
0.44092161703281
0.434849262759306
0.437387989498878
0.437512268690373
0.425256435053787
0.420340434590659
0.418581131537335
0.419520744011763
0.420077548183093
0.419468229636982
0.426085659233002
0.422336317055851
0.421862640251179
0.432023897849002
0.431340832798573
0.432068936653619
0.439510289757788
0.447374894797247
0.444818211337789
0.449412664555232
0.456054674046414
0.461327880748888
0.458929371407235
0.459621215020322
0.458424022554667
0.465193001321016
0.472502345862952
0.476539763914829
0.469853143038799
0.467647482804721
0.470803235018827
0.477778101077437
0.472200170508544
0.473794875852195
0.482889506694551
0.480415466068761
0.48165152270545
0.495620666015557
0.495849507969261
0.506975467684137
0.51160414439215
0.523897701501204
0.531131154904299
0.546374954210112
0.57015516861301
0.578720265632528
0.589865273927974
0.608885978840922
0.616642107958128
0.633806949154238
0.643718844207541
0.634499026656455
0.630871104199941
0.644842877706966
0.636876025541403
0.62925110209687
0.620109435589184
0.609532895264722
0.605846887304316
0.593390549227418
0.599778006695379
0.592758884339588
0.578232473214071
0.582144981564802
0.582104494409409
0.583969638232085
0.578229012078393
0.586607020422384
0.574939820306506
0.56944911368158
0.579749352970853
0.578570868539218
0.569254232613812
0.567210344477549
0.564126118312771
0.564831324354205
0.563215771825751
0.546146880363393
0.544438737333232
0.5428721942445
0.527569143288397
0.531328260153576
0.524049914258288
0.527113634851636
0.525413959370268
0.511553321475606
0.508178525098645
0.51502977304512
0.517791754000921
0.517202697807063
0.509972506399832
0.510460810810304
0.509372272389039
0.505892497087491
0.495479824541701
0.487263070656566
0.491880245179355
0.497828610848353
0.498170490676377
0.494298866794805
0.492023185061091
0.497341494444316
0.491419463649024
0.48562933043585
0.488941509606179
0.480071385664753
0.475462158204139
0.484407983709141
0.470561047482737
0.472978828192114
0.481598067876072
0.478219659553061
0.474186739790598
0.476320897120345
0.477849412295086
0.481995119897076
0.476947859693243
0.466218416858919
0.466633889891597
0.472341400202542
0.466375997136572
0.473070462302384
0.47156883606247
0.468816294486171
0.476219044327892
0.471141740817059
0.472782771946892
0.476555281872461
0.477040881507971
0.476473595965282
0.477052039529285
0.490297105686282
0.493283052865089
0.492552909859764
0.50417865881251
0.510830053758547
0.506422079715186
0.499050188537935
0.488521127807879
0.507464691137563
0.508467403771036
0.515715653310975
0.526288919702657
0.521357518641731
0.540333927437684
0.548406328747098
0.538578858721185
0.55610785468549
0.561273488492336
0.571748576191349
0.583000611499447
0.59049305706322
0.598123005611385
0.596756337038177
0.608755881912403
0.628453051397061
0.64524593472922
0.65853962761061
0.677958843519541
0.707042858793153
0.725856899703713
0.720760248112595
0.732861070951711
0.748734862701577
0.750039603364935
0.782865546456071
0.826361252000057
0.837816090299446
0.812830411351364
0.817178682221212
0.823163510278969
0.81943306808621
0.836802876966589
0.818720399775234
0.790087510228208
0.814320799226681
0.826745258409888
0.811780731403204
0.818104722162325
0.799442422625158
0.758835273616333
0.779544273452241
0.805073677289366
0.786228753439805
0.778473895681153
0.777388774617237
0.783794702958419
0.815527618490123
0.778606071526248
0.751373181714969
0.781768817438712
0.724172050192955
0.742321111176686
0.734729979203168
0.740886190181445
0.742720925862363
0.747710098943643
0.7331222706714
0.752705617587915
0.767029783488973
0.68440955604127
0.704043775169479
0.729855482747918
0.735585734657501
0.71903714896232
0.689443634242639
0.717892980616112
0.740788318914912
0.757872759495743
0.766502077179519
0.741063352654656
0.692337342591283
0.762737880176893
0.754923251469265
0.741241826488769
0.758968582115588
0.749665086765016
0.75207814840676
0.762578619814673
0.793594822191946
0.803162665759239
0.79721665951565
0.840933267357424
0.716081179981825
0.784762393238269
0.86541078199434
0.823345016530485
0.777671206293436
0.744691140382685
0.800010074496728
0.811998314761543
0.739603768059838
0.817188755766829
0.82815420694868
0.765955469074756
0.813422843730946
0.92287412614061
0.846131315220668
0.775461172733704
0.896141938450726
0.866594864506715
0.842906965422501
0.913339328580583
0.915836342391863
0.917451351484707
0.877903074012677
0.978806451008929
0.887518742777806
1.01174594165944
1.01954088669759
1.05875217070678
1.06326446972128
0.989055826085341
0.965804122300291
0.980181574944125
1.01090938099347
1.04626251817974
1.10519720169376
1.24758023506434
0.957973570307249
0.906394605742186
0.862119425546228
1.00515004139764
1.05857225022223
1.07108006664587
1.16768139053255
1.08798054014591
1.01237451142837
1.09782604318834
1.18018578210184
0.91872034052965
0.972813783528839
0.990078371945406
0.966532009403646
1.23407354722947
1.03103927756547
0.9675772552923
0.762544740379434
1.05065988274815
5
1.09409907988492
0.819552022960339
1.10796362445021
1.20738307502438
0.994249142331125
0.831926575374119
0.957839072776514
0.770498261560205
1.02166367834105
1.78487629968709
1.26173935644414
0.934115535699376
1.06052250204432
5
1.0960820083827
1.26459660705831
1.05501321587515
0.656770866197472
0.766871455681339
0.888973770715324
1.12832249220366
1.22576488821021
1.03649688188931
0.651597845702428
0.87480630979997
1.00700361188488
1.03570716322707
0.740786785753131
1.43957642473176
5
5
5
0.883779818379123
