3596
4000.36533379555
650.420452594757
1
2
2
0.0435146533427324
0.043869998624763
0.0335786462104669
0.0529469236813391
0.0498720012743527
0.0494640075358286
0.047365011233564
0.0469771933815315
0.0594065602986998
0.056494072724676
0.042468642371036
0.0439770701672307
0.0526133082451507
0.0456642906458868
0.0549573953990543
0.0454482604183825
0.0490890023634732
0.0487345750067836
0.0492923107801874
0.0546480564919964
0.0477515855458279
0.0521139672892923
0.0482207592729508
0.0444426242272074
0.0525832612366974
0.043674489117206
0.0528641159728928
0.0578708106387594
0.0462493543960864
0.055848158335299
0.0445372290466313
0.0502089943974266
0.044649695189555
0.0442015213210149
0.0456880371010781
0.0517975583612608
0.0500357069688675
0.0492383383386065
0.046125325559646
0.0515092049136596
0.0435785475839475
0.0500250704260166
0.0517152830996892
0.0466678282909975
0.0526924715677801
0.0549388035214047
0.0494743856731239
0.0538213386728144
0.0466736222922417
0.0456721176307996
0.0502180442075526
0.0439661271215377
0.0450626358120104
0.0397214214462763
0.0491834831887552
0.0497742136986308
0.0489202335034162
0.0516402883565856
0.0581212040348521
0.0520635890637666
0.0504192016915188
0.0514230216102984
0.0487005886662899
0.0522218413871239
0.045156192002284
0.0417397809548309
0.0541920554421966
0.0436249706230792
0.0516265656706571
0.0471248587229396
0.0471543656063533
0.0473663354912547
0.0460342711699068
0.0426215963952745
0.0470688631290363
0.0469344090602589
0.0406014319516392
0.0376936707699915
0.0619167264767234
0.0463470079286381
0.0549921511482357
0.0459546928253807
0.0421372929796624
0.05431819397499
0.0470192488969821
0.0520634837497936
0.0422788578354712
0.0507472366705351
0.0356999902174912
0.0406801335338269
0.0467365508547175
0.0484151330317067
0.0460277189041728
0.0477536982269215
0.0503916015054209
0.0470284292732511
0.0441526943411365
0.0389866754395747
0.0522964887762102
0.0457420760343701
0.0429257324887048
0.0592394996313731
0.0347445334447881
0.0498002054526228
0.0415208923161955
0.0373038023498573
0.0614158659826306
0.0318168766851465
0.0443126821123238
0.0341412715980975
0.0449605799034233
0.0389545042619522
0.048416380608497
0.0354338643354241
0.0471737099608747
0.0524716687721665
0.0419153234856274
0.048600196701919
0.0380958990587749
0.0377806686279511
0.0487485332800883
0.0569589476089509
0.0334299212161853
0.0458844049521414
0.0478007217598619
0.0390478532584488
0.0539234622492426
0.0528536424203104
0.035094694003531
0.0477933155930237
0.0409772366585423
0.0440814084092782
0.0409174741562796
0.050100991166458
0.0389996001464913
0.03545339632662
0.0348266815703863
0.0517511781507844
0.0518929514812415
0.0251996511745725
0.0422758466219088
0.0422812351602269
0.0470650391661777
0.0578837021793354
0.0451881304210126
0.0338498187038166
0.0404833609616383
0.0464099532342427
0.0340401815403451
0.0377369189926892
0.0357834665714247
0.0466257459578371
0.0403452755561552
0.0367838343374758
0.0528490320358731
0.0525000389207823
0.0309177553269845
0.066448705871995
0.0272159454669142
0.057644903985046
0.0379294651231289
0.0439934330857697
0.0421926931722982
0.0381606461113765
0.0460849825605659
0.0482634014559191
0.0436613020221815
0.040082108241145
0.0464006824212524
0.0462183106601281
0.0466672809893873
0.0340611845047117
0.0593322364537934
0.0477445215636364
0.0391849051304201
0.0520553427049482
0.0420224668291171
0.0423554144703992
0.0378777288583337
0.0499401594499841
0.033194132893579
0.0409425853608833
0.0383084271702004
0.0442924456564347
0.0339242820967805
0.0503271078717677
0.0406925661994006
0.0463292897822393
0.0394500676061124
0.0515599315011541
0.0477602374106247
0.0472406097475715
0.0419480603046269
0.0396220116949537
0.0340576945091934
0.0523935452598293
0.0542167362431462
0.0466623740069882
0.0337293377648602
0.0338443966053574
0.0444459709375458
0.0400459904434352
0.0412787200759818
0.0521092232402076
0.0349419477592148
0.0620781051754683
0.0412615356899137
0.0452069449344347
0.0430061715848164
0.0397354135798379
0.0448519146880704
0.0516975399150496
0.0513554983224167
0.0467299647860634
0.046285144631229
0.0451925362155197
0.0480014813699122
0.045002695024144
0.042649937629853
0.0434759599557304
0.0447733411237751
0.046890625029251
0.046465453209707
0.0439789960119706
0.0453118785906936
0.0373346238479078
0.0484059283846357
0.046419779763706
0.0431442675598527
0.0405173401606084
0.0468217882262097
0.0485969181730317
0.0429528635824219
0.0402985262570416
0.0489873594833569
0.0540964685684274
0.0454480447952123
0.0525985429014226
0.0465226097690841
0.0431972344257505
0.0376705280564463
0.0491935529126007
0.0499499051002457
0.0523074462073035
0.0425618845413222
0.0604659922765144
0.0391094432784743
0.0479629046599762
0.0425543638694209
0.0485479685997826
0.0499055725536257
0.0413964712559392
0.0539246403596937
0.0448830653829254
0.0477177272486403
0.0497005945404759
0.0599071618875058
0.0418415231678215
0.0517725524618174
0.044467392571914
0.0528143931401752
0.0422830611919847
0.0548243344779101
0.0430119028465646
0.0767881567752432
0.0495480420182707
0.0414267536321161
0.054583412129741
0.0343441584519689
0.0422626727808814
0.0524397254080103
0.0372558732227154
0.0808010979881072
0.0461238265588298
0.047922485425802
0.0384849428773933
0.054224020049022
0.044726485787423
0.048420839264165
0.0530596325871923
0.0553836025539223
0.0537970598228771
0.049255542140385
0.0694647655897622
0.0455804758613645
0.0592959197484583
0.0569681541260241
0.0475009051040726
0.05345657970768
0.0434731827570898
0.0500449227668408
0.0562249421397547
0.056164448720247
0.0506804671584061
0.0577951697217852
0.0509394834539507
0.0667053514310437
0.0570651325805096
0.0618284666420682
0.0562717549915864
0.0588851687013002
0.0514505537418277
0.0618863485637426
0.0526845824557289
0.0623018145685274
0.0590492146634013
0.0606155597927158
0.0760262464583008
0.0521546373058319
0.0465883305383748
0.0705752124701298
0.0442101472311932
0.0554913714466019
0.0557064174295837
0.0623584767790154
0.0619640581785162
0.0628374866809287
0.0578014941571283
0.0762956580740311
0.0690675968128199
0.0616716085103625
0.0661877799453198
0.0630946857289842
0.0683718816357089
0.064474089478544
0.0643925978101536
0.0687518696611274
0.071789645826125
0.065599617990685
0.0684379873196453
0.0778562319758314
0.0646802978921999
0.0808410124856478
0.0889907303440982
0.0528712847302805
0.0695444527436885
0.0635882230374931
0.082158649802344
0.0759516896530581
0.079141881118335
0.0822609035968883
0.0774796902916167
0.0920602303276717
0.0889652916917701
0.0855528664608956
0.0858676525795122
0.087883179999942
0.101035450683632
0.0755444741976303
0.0862341726401332
0.0913528275541721
0.0983810415553077
0.112614229820018
0.0786341425748353
0.112181711364218
0.0851377309593688
0.103975612799282
0.0915426903608913
0.0980680958961643
0.0990807591210543
0.115614028586522
0.108749326160964
0.117178633210573
0.11362888770961
0.114180935464129
0.124364916488117
0.124477657419989
0.137598391006414
0.127073921089401
0.127070117431429
0.137385311383524
0.133731598274851
0.136029366409171
0.146382195565905
0.125702073307016
0.16920040339268
0.148270327353158
0.15410376637035
0.145063064669474
0.150432898970531
0.158404159799269
0.16236907883437
0.167122560153455
0.169585831140564
0.167197069011689
0.171011981345237
0.176584837471853
0.181875483699823
0.182738827324514
0.186015823514942
0.190913130917287
0.191130822828803
0.199198394424694
0.195802724296856
0.204488089796173
0.205260508129763
0.231567124750319
0.210474653259046
0.239196953115918
0.209465516759879
0.221316955099461
0.220928397985925
0.232549476114772
0.21813453085071
0.23600073995148
0.237240446356191
0.2597504976167
0.258524558189747
0.247791681931453
0.250671331402166
0.258558191210192
0.263046342659557
0.276570371883988
0.265110495681093
0.28558840044096
0.268244070573566
0.275019000133969
0.278705173316345
0.309365348607959
0.273137422562144
0.303570977445541
0.284928239999405
0.308158288857851
0.293914248742631
0.32314087372908
0.31795954140455
0.32855724562236
0.346461732642188
0.341572787698054
0.328459095883687
0.34677209551196
0.323469121118089
0.346808926296997
0.343707867901606
0.355220094925398
0.357710725136092
0.359593835445649
0.355068895289199
0.382091121223596
0.373689837707562
0.417213109644644
0.378259591410746
0.399744075714557
0.369783023739576
0.390364743277215
0.393350944767906
0.413802802058751
0.392085067802413
0.43274613981577
0.404735524180647
0.439101754276052
0.416997428106921
0.443934102855956
0.430136887145568
0.466445362279787
0.447775032989219
0.467816420258198
0.437544054398658
0.472069611770297
0.451371987332338
0.478521328576914
0.475986689415733
0.502804965172635
0.472245585516148
0.489453399326919
0.465920199216487
0.498851507714226
0.476097119688308
0.508313198217561
0.498465963417079
0.516847013839658
0.502436376886148
0.556113656172724
0.524683610114571
0.560446093563185
0.551904419952133
0.563739267613948
0.552645180185851
0.574861272371761
0.547125367090984
0.579592399085948
0.577648477110487
0.591404780153203
0.578675700132522
0.587378491952938
0.561230521195687
0.605339849236746
0.635585731823024
0.633616943037151
0.601310458408934
0.652584010375132
0.609550265028572
0.669613010301945
0.640619992168428
0.666397886235439
0.594613068059365
0.629608814545576
0.639061857018883
0.697018230411388
0.642181548511495
0.664871673037305
0.661759725605228
0.715299971555761
0.673552154125416
0.688806938896362
0.691203463249023
0.727430041108456
0.696457737354572
0.709763392876977
0.688022045884538
0.768348670249991
0.718060248857783
0.779484514940727
0.69064138735951
0.759857138927357
0.733827801386968
0.803900767972569
0.680529013913372
0.799172108929503
0.733699970234931
0.806708465374799
0.781145224964044
0.81440615002211
0.770383935352112
0.809349778759426
0.803216881199724
0.891842982978504
0.793685703520283
0.85001819453744
0.770125643585673
0.826075624633714
0.757221796215835
0.852850241463614
0.809303801708538
0.927146075121983
0.822790480525668
0.885589967014929
0.861886828438819
0.877678746058912
0.852034686894859
0.974747527881722
0.86811425154773
0.899371607426846
0.877039717334433
0.91651787272781
0.902732145874612
0.918177923503673
0.881908215468087
0.968776410810579
0.898801689957584
1.00245173367255
0.901053446549516
0.98483104743251
0.928022263236154
0.926282025707507
0.986798687815438
1.0160711044854
0.91932527928199
1.02356912818623
0.890387060480947
1.02459539141955
0.973306966917247
1.00685214666446
0.933025840773863
1.01210702706086
0.94362061572768
1.05994945624242
0.944091535466435
1.05224576544496
0.975151603634041
1.17139633677078
0.983659386234812
1.11541297067448
1.01976022687986
1.15874715141351
1.01284086301605
1.099919158893
1.04603333921707
1.06939338821631
1.00885348853655
1.06721507103651
1.0634152053398
1.25485813236347
1.08184885198029
1.09722043400717
1.03158267328131
1.22132600701519
0.989022120858222
1.18644035374427
1.07569277776211
1.24853093531091
1.12729652266973
1.22194728447935
1.16895477302947
1.18144342781502
1.14921591148541
1.15969404812166
1.04619067519815
1.28318750451532
1.09522711341309
1.27305317992185
1.10211536159476
1.16029481840518
1.15944619260478
1.28454586653736
1.12654720614159
1.23774934960207
1.09037429904149
1.30473908829097
1.17019002318782
1.37453755616195
1.16592008181761
1.27646688810255
1.22640743209162
1.36671310828319
1.13792012222909
1.3699839252785
1.15340930340995
1.30260763002453
1.33896418151765
1.36713922592951
1.30038671390961
1.37132452724321
1.20067393049612
1.47319477938606
1.12963187928799
1.32237067259348
1.23430717294909
1.29034230245759
1.25884610854737
1.48449257781115
1.2590284509371
1.51105341515578
1.23603002264476
1.39898382633265
1.19075691545715
1.44679856218934
1.32252036133916
1.30878331225917
1.31328399433806
1.27564744198151
1.34605517990408
1.46253479910136
1.18665491880358
1.43559512125924
1.46432064686696
1.46920408202602
1.32111842430995
1.68891633256587
1.28318858437675
1.42903042782429
1.49303895751337
1.50536507313967
1.31442573900915
1.56617640780878
1.29790385571363
1.4923706877644
1.5514206713899
1.45717386355634
1.31308694440618
1.46668110194438
1.3300846635201
1.45530117586982
1.32414849415451
1.40494204375131
1.29601911196852
1.57306392403371
1.35123305495852
1.56278768917158
1.41356541761231
1.89497970769098
1.32204094239202
1.658448481241
1.32905806801
1.4025999917483
1.31337012948846
1.54951583092971
1.42482724408331
1.48658544593074
1.3411529272406
1.68764251381581
1.48314042303014
1.63814626804609
1.55551578920151
1.4919513739915
1.36424796238695
1.48839050235143
1.49056425605532
1.60193138336997
1.43861790849898
1.60658639255939
1.43360280200596
1.54811695387413
1.35699307771119
1.41958843209692
1.31832495109564
1.58493997074597
1.50999553612126
1.65744394485942
1.59416420458305
1.59294285165315
1.50870098736649
1.65825778631391
1.3341225227491
1.65509827564995
1.61200038591819
1.63513388441328
1.33780240694102
1.56828463710678
1.3554481822488
1.70014339524053
1.40508623075549
1.53903352279096
1.38817670041061
1.62589916273765
1.52445449835215
1.62727920523825
1.42027719252047
1.50851893587014
1.5915650707712
1.53046667317391
1.48707997202696
1.51515818812379
1.54540671330332
1.63439125545559
1.43415446992165
1.62813711277652
1.49370632343063
1.69469528835965
1.4984955808949
1.66705735423981
1.46949644942384
1.50289951542346
1.41009631193125
1.50196160163068
1.45488115023957
1.87859676821865
1.48660023584954
1.68164731784267
1.48684199997088
1.75595906117451
1.46422470105101
1.53264501372786
1.5048320697947
1.56704102593878
1.46694861919024
1.52276797736243
1.48208003413772
1.66719312127506
1.4009937084355
1.49761548557786
1.50198406482536
1.55487085860712
1.6167423906953
1.64564873116571
1.54084144554381
1.61079150142513
1.44687021547759
1.63617111928983
1.48581901889769
1.59759846250044
1.44840369453344
1.73190336436585
1.47150103554192
1.53418225241473
1.63955843985473
1.6812804360903
1.6132332088289
1.61310895660432
1.54935179860677
1.61272161761157
1.54882605192686
1.55752524666451
1.53808412387872
1.563521726557
1.39616579036274
1.80571756647846
1.5068953033628
1.49141256751746
1.48429295062234
1.54405112412325
1.53370420498172
1.58016559662536
1.46980089367643
1.72052672200833
1.42313901718561
1.70093245509719
1.444701470244
1.77075951487516
1.56642161444262
1.53024976395976
1.49132309986429
1.53232443449766
1.50375189562718
1.49629654045127
1.60093444629715
1.57702233321762
1.34534351092419
1.55218920210759
1.47720793118135
1.5777880880581
1.58455224428169
1.61574833483211
1.39261745374775
1.45575681097774
1.44274710629372
1.47044226440748
1.57154120245669
1.72174330225921
1.41390845320355
1.6391171629529
1.49242528323036
1.64212193973642
1.48317847940549
1.52713608197716
1.49546823713547
1.62568365381418
1.40482103639694
1.55285148981279
1.46840916114964
1.49266177477393
1.55709863655885
1.50714311196026
1.46826426753241
1.57392540382597
1.40313316111287
1.40664894191939
1.39502795881836
1.49370390748791
1.40325131605676
1.52389427651868
1.48142763499645
1.53486441888759
1.37020874720044
1.57792764741672
1.46546349897936
1.43830973526251
1.36525125733792
1.51414466975334
1.39035459610177
1.43790246757505
1.38660970394202
1.49331145371712
1.42251550934857
1.60566973067853
1.53524235672516
1.48748196428409
1.36212496868612
1.34555839842212
1.35520639760493
1.42405613619957
1.38739031079512
1.36937547517668
1.38608073087423
1.5521563406298
1.34393312812455
1.38943460544413
1.40848092928687
1.38860204569055
1.38360536155119
1.43531561915478
1.40333935476775
1.34214480424806
1.31446057942537
1.41404787966271
1.30471788303007
1.32255093800186
1.28864901735688
1.33487627287777
1.2224727672988
1.42139043184868
1.3740302666475
1.40483853957464
1.25192576316876
1.29773955805444
1.30749129363134
1.36064279919587
1.22489306411061
1.28795908402934
1.22620095365947
1.31069585466998
1.26321440858829
1.32020472644379
1.28163741963879
1.28930319102968
1.22934086221451
1.24492857376398
1.23861947362531
1.33153395802557
1.22058699586346
1.24480402704329
1.20722264320917
1.23256020553686
1.23078584597031
1.19337236597463
1.16798852531851
1.16430411937097
1.12865670390829
1.20343423456193
1.14883930405837
1.20325369462558
1.16294112849217
1.17188672875133
1.13592403127625
1.13037902550102
1.14267711659958
1.18157999538132
1.11337128923937
1.15189526684124
1.10541140623679
1.14689305402507
1.1164788901549
1.12709196891754
1.11337081426213
1.10205553341563
1.12130741009498
1.12158058461252
1.0807674489442
1.10898638744119
1.13930360033272
1.12326782013691
1.03973093392136
1.05695758029695
1.03459263090094
1.07687172774568
1.03682504135938
1.03046397042802
1.01175039478433
1.01060519337206
1.029808430476
1.06903678533174
1.04004186466174
1.02430771265969
1.00803974107314
1.04251464618447
1.0257257460758
1.01505814615694
1.00182137650079
1.03131131411555
0.948274712548735
0.957023719644324
0.979210751260827
0.963427253219395
0.930569292572362
0.999393876188067
0.964176294664839
0.96524372171233
0.952309058926815
0.949246125112826
0.906275509501577
0.952987378896347
0.945664140911101
0.930108721162284
0.909696474009631
0.931970068386471
0.895645975913953
0.914339009069766
0.889984061303582
0.887071247653521
0.900346515487831
0.90274223724853
0.875146726225106
0.882122318987322
0.868515361011824
0.883505792441892
0.861432743045779
0.87858284864035
0.859320571199062
0.868230437631935
0.827684035601095
0.843077133419324
0.833871531843371
0.849524908494428
0.835176873314966
0.830793722896754
0.838681249922366
0.838829470261355
0.80803928550881
0.819378595101847
0.79153585860966
0.815376677787637
0.807538892518663
0.788888868632282
0.782752305092399
0.78417589682965
0.782921036815167
0.811921948054171
0.772700059533189
0.765850332524658
0.76393677969209
0.774215411947905
0.749090689317899
0.780248162725524
0.756888664928359
0.760514369236363
0.743543166114407
0.747296182606766
0.737243553554094
0.74767460534524
0.721067348125417
0.739403369389813
0.729134741486095
0.720045697963767
0.710566768336217
0.72491843417985
0.710886757209527
0.72209025603906
0.691455874287928
0.699699461475984
0.689734174540698
0.694034552021719
0.68942336758918
0.688512822641839
0.666170076326693
0.68327299737465
0.67615115828745
0.67515571682858
0.670317030792189
0.670907365034316
0.665634263643746
0.664637376256268
0.647467728986085
0.662181305791915
0.64333265806981
0.649416876753347
0.647938136819286
0.638788627992201
0.630483759073873
0.653364028018041
0.628593476845557
0.623952516682939
0.622318610496798
0.612800412146855
0.607186702228061
0.619652880305641
0.622463015233805
0.610113375684407
0.598804401811797
0.603449893349931
0.588199904634878
0.592371093630101
0.592103212576816
0.587089697705154
0.593299040280277
0.590460467081243
0.575180503813911
0.588747284866318
0.582708508440972
0.56791860752881
0.569996533119883
0.564487010988211
0.554189898685627
0.567992285012026
0.558306400294943
0.559353193895747
0.551251800101331
0.548882996745214
0.538488417542393
0.545385039095754
0.538640217615061
0.54725557667542
0.534569223732364
0.538480979333393
0.537577577313985
0.527175224127957
0.520108740435411
0.54005917103055
0.524913859416025
0.528618315189294
0.521296854227866
0.519773294305539
0.519092640643157
0.523239894922597
0.515585766733961
0.51294513479084
0.517709665544752
0.51822585010256
0.511704925505075
0.514739301120717
0.505667801684616
0.507197371698057
0.503488088307398
0.512653757327259
0.510404257633307
0.512047128809547
0.518981584691796
0.521774097859699
0.506016128103949
0.508805267272068
0.516349487922158
0.510292872136281
0.513157507321004
0.508399226212936
0.503339791272314
0.5222131932532
0.520196612668808
0.528240576011966
0.515088785861031
0.514732988816632
0.518950571520427
0.528103822711798
0.517771188128013
0.531735585401776
0.526053443264394
0.527812338301363
0.531663400811859
0.52991714322509
0.541480216049762
0.545303042564519
0.532455741322594
0.541355995802757
0.532566340138394
0.540083095602167
0.548775082764314
0.554363416243211
0.538055490884997
0.554785281681345
0.5476913604054
0.55149190443211
0.546971775994709
0.559265344657629
0.571457551544376
0.569237171701083
0.557061762088587
0.565766267606632
0.570372789727341
0.572999060329883
0.57169264914256
0.580516479812529
0.571804512026397
0.57439859622634
0.575281529269641
0.578045597788917
0.578273980017514
0.583666818173957
0.60525203047541
0.600373998960905
0.590481651398979
0.610857438593515
0.605401760719153
0.61254812512446
0.617008117073851
0.621621943374014
0.61064104822939
0.619515134815357
0.616679566637238
0.624090719105521
0.622896069787634
0.630138616968225
0.627909935455892
0.639753831641774
0.632024187998689
0.63623657831662
0.622173083387409
0.615727591040988
0.624360348132697
0.630780411484468
0.617459911456755
0.62082629846407
0.615249492052513
0.629858341311501
0.625336703678922
0.624440400945447
0.621565278881174
0.607826748674432
0.602495605353671
0.6107835383038
0.610443378767227
0.60817158339386
0.60667258927751
0.609777556887992
0.611056616456864
0.620196433834606
0.60198629070106
0.602254534178268
0.602060254988545
0.611613778286075
0.608562414201424
0.610158394720305
0.603569563637303
0.608228565444959
0.603354261429187
0.601435546617718
0.610071972587864
0.609212191257597
0.60435288258804
0.612047447626963
0.606544664992577
0.607686609686376
0.607439337792781
0.604102767654364
0.607250063043187
0.622412255166813
0.602899184816894
0.601001420581005
0.60667403127755
0.602209856277173
0.592352912655835
0.604882692727517
0.599395345810366
0.603440785302167
0.59330169993249
0.598249442011009
0.592209004409755
0.590717783230546
0.594045725351617
0.593633617704796
0.582674981153607
0.586338667865739
0.592166214933696
0.582914937266534
0.571133679683757
0.576402994864344
0.578150393486965
0.571389905969756
0.565536056002888
0.570402834343243
0.560714098585789
0.557755686629164
0.548883348890171
0.555192517602375
0.554387204074788
0.549672702312778
0.533517490594414
0.541772659449266
0.542639468584231
0.531026682967928
0.527781234545246
0.523889241212629
0.519328404862063
0.515839568786024
0.512088227554969
0.51159502885687
0.505550638969242
0.497963362387952
0.49327611994146
0.499832902996709
0.499404411174454
0.488308191629503
0.479413855915748
0.48182202448054
0.481525967231583
0.483592203409371
0.468258885957344
0.468297425327478
0.465342653404505
0.461264656565543
0.462548470453856
0.455563059348539
0.453948998942977
0.455438524348876
0.44438911308108
0.451498243757379
0.447233756313039
0.440981280559765
0.441915803402241
0.437485124079492
0.430601130420533
0.435929772920043
0.424372521966236
0.425139521207954
0.425659609632158
0.423861791253684
0.426196837797407
0.427419651095827
0.418723605648433
0.413414357072875
0.421715227283347
0.417332681440292
0.412438291870028
0.419919241823013
0.406901981985269
0.409091379888414
0.406064180094531
0.406733811425676
0.407107007720901
0.404966899775973
0.405136761373798
0.402048312349705
0.40162076283609
0.400347528408501
0.394284350022551
0.392965797155987
0.390311822935727
0.390519653955556
0.392311672651574
0.389372277334372
0.388273142051326
0.386718182570779
0.384035863225647
0.387362051643703
0.377846448021413
0.384536943500916
0.386549670810844
0.38217928942762
0.379107929123531
0.375218425003465
0.376845976231805
0.375073988466288
0.367056380423172
0.373516133949478
0.369274001200223
0.362903602302532
0.364998847170599
0.367148024325001
0.369725164635162
0.368606426480437
0.357139665878985
0.356769578754276
0.357608377666116
0.36388386799301
0.365233658724664
0.361241396594669
0.357125695008312
0.357335699576017
0.354083109498991
0.353312008995147
0.351952352255692
0.352451854753666
0.356656920637173
0.351067198600813
0.346950927272227
0.351099998794541
0.347893069655622
0.349261123807127
0.348089582975462
0.348577655371596
0.345082758287588
0.34453380492178
0.342321071346041
0.341470027758487
0.346123863146711
0.339225261017949
0.339236851365279
0.341050271196599
0.33910337926192
0.340385732883067
0.332728008411099
0.334604796134459
0.339365102524018
0.336156490030109
0.330732567264368
0.332976680300258
0.332383854295105
0.334535115668461
0.332149493306638
0.326521381294809
0.329822029614506
0.335162286379346
0.329026143696063
0.327953315842743
0.328471445582822
0.327951603270056
0.332066373758001
0.329166267482265
0.322808566135536
0.325882414103462
0.32059398184782
0.322247439610707
0.325973063882273
0.322669410391908
0.315878875234701
0.321855566322265
0.324468635520636
0.323394685158762
0.322255213785798
0.323437898407018
0.323681053503368
0.322342555475242
0.323018205706225
0.318580168532073
0.319615294475748
0.3237918011085
0.314908793296013
0.318253768228537
0.319443064501204
0.314763639888465
0.315401143880026
0.313931214635938
0.313967291681009
0.31529225662003
0.311290789810025
0.31298695126351
0.312560195027266
0.311743881888634
0.31225107090311
0.312734638273479
0.306812806132287
0.308438071836115
0.305561122500517
0.301271622618811
0.306590088472869
0.303127390349663
0.296040191367553
0.302056551987372
0.302574711667912
0.302880597990906
0.300342681261058
0.303672533649526
0.301287618753791
0.2976406110308
0.297554925421501
0.294865587795462
0.300188381761172
0.298853640570145
0.29713726301976
0.301522149610072
0.294522288176402
0.293699143228533
0.291387111738302
0.290861403939714
0.292045982750412
0.28907381311255
0.289893578004313
0.292452597615557
0.287581358778036
0.287855373372585
0.286184099291363
0.286201816074237
0.285730975072667
0.284272312287095
0.282625684306362
0.285023922557638
0.283999449269239
0.281682065660188
0.279976652787582
0.280595753489568
0.276373956299662
0.276345309422753
0.273633896121321
0.273747416509424
0.280081417747525
0.273999564185661
0.273389661355642
0.275396005464517
0.270206075789036
0.273475413238719
0.267913452189894
0.268677470978794
0.267792763717812
0.266194039660155
0.268682331850658
0.266133216426858
0.265231737078692
0.260378717937687
0.262998758504937
0.264025830317774
0.256526286122738
0.256854931691013
0.258810304067449
0.258683987289734
0.257112327594846
0.257548016114697
0.257810997640343
0.257385020547268
0.252179745075561
0.252035133695277
0.254706812692567
0.247011144646879
0.24914557080026
0.252787863501595
0.248936485786228
0.247830699070226
0.247154317651285
0.247190391260007
0.247119180117062
0.245749726877759
0.245522500867932
0.242196009693331
0.243757730604182
0.242922328610865
0.238509439916518
0.240046268344587
0.237935238231703
0.2384445488681
0.238530461901678
0.238787286653919
0.233163902160495
0.234825679923955
0.238844736061318
0.237940663295678
0.233848498418523
0.233838161179045
0.230039651704975
0.230582328263889
0.233277122431451
0.228908182779811
0.23136370826638
0.227828686976451
0.227305019485156
0.228348840503747
0.224564423840066
0.229487069651995
0.22833106237161
0.224665881366766
0.223319382682641
0.223916842297108
0.219825952084171
0.224898566131604
0.224238521351207
0.221435572838619
0.220199093404505
0.218715103558717
0.220720493443133
0.218215190633452
0.21687319074366
0.215002525189707
0.216657999098609
0.21565947266718
0.217245598572114
0.216198211081443
0.215561082161959
0.217609237218094
0.21369258215153
0.213239804599682
0.212261669638875
0.211633886241057
0.213725781020282
0.217808435066355
0.213708610445496
0.207725023621443
0.213110295521901
0.212548873019674
0.209106847637812
0.21281515253016
0.211895993260784
0.214639230281444
0.209053415649017
0.207388343616166
0.208233270475831
0.209528077834142
0.206893697856551
0.203369384684715
0.204369628069867
0.208302776780197
0.207118030235167
0.206114881334656
0.203619507706908
0.204850457342645
0.203036076870633
0.204600093743081
0.204488168942882
0.204639777675026
0.205179067126058
0.202407264315309
0.202191920768508
0.202496425620532
0.199285202313173
0.203066819629929
0.203498479239479
0.198507663578921
0.197671362465849
0.200426880779001
0.201195198511788
0.200364636734807
0.20039474824527
0.19953946563374
0.19929200985997
0.199237602131074
0.198299837223482
0.195708983958619
0.196711185357312
0.195661934931425
0.195692197772761
0.196435861387629
0.195204285486891
0.198592977751117
0.19470297111862
0.194382795688216
0.194569338025347
0.192562153521231
0.194976324359766
0.195302878797437
0.193068336628096
0.192282870921754
0.191860228796594
0.191224472054441
0.190174702641146
0.189085861787409
0.192405210187561
0.189791992263839
0.187031596881719
0.187074575260527
0.187276181745653
0.18764415980854
0.188635747100163
0.192149549400251
0.188597260601239
0.187001575390038
0.185649826625945
0.184319773712324
0.189531927944054
0.189485243396891
0.187854194305613
0.183676057661762
0.183573332411488
0.185688810170859
0.187438898016567
0.184668549906265
0.182158406259148
0.183830402996084
0.183718886198387
0.18150275949752
0.180357832361517
0.184776233308793
0.182646876108137
0.179930578686169
0.181083989826076
0.181409877806959
0.182372521575343
0.178568164398482
0.180825761119845
0.178643412497378
0.178482160077265
0.180717615715047
0.178145749900101
0.176867039633403
0.179713483362019
0.178979422967961
0.178998747956416
0.177993505533849
0.176412522668634
0.176304050329294
0.176468352810834
0.176545523404847
0.174310660155685
0.174831460667281
0.173602894263931
0.173911915487903
0.174501591360986
0.170530900538833
0.173525539670836
0.171759112960507
0.172835411735451
0.170142940114423
0.169998764457772
0.168911298238371
0.171600194877104
0.174217982181808
0.16805344795488
0.166447352084972
0.166962984952117
0.165249430193809
0.163651698669654
0.164516381965437
0.166952296658801
0.163285586454252
0.164523298502452
0.166329459112195
0.163322291281414
0.163795412057959
0.163548674865222
0.162610651174249
0.16190862007959
0.15994938658274
0.163116566503241
0.159414426031677
0.161502395594751
0.163526134792927
0.160316804365132
0.160449475143252
0.156281931639109
0.158645033289232
0.159822685728554
0.161188324405232
0.158045009640282
0.158743478920637
0.157082264481846
0.157355282800462
0.158610995373312
0.155302460485115
0.158272045190992
0.155367617312567
0.153401221187465
0.15796396884105
0.153634383163512
0.149937155189861
0.15041080832301
0.153357150174154
0.152969698814869
0.151471156439936
0.152750144960465
0.148814287408901
0.148784251799595
0.151791839450184
0.151013932541148
0.147781603871794
0.15052755395374
0.152948295259857
0.149565557210555
0.147248720469063
0.147090874181295
0.145469183815568
0.147491880121616
0.146922482333898
0.148313132720996
0.14784496836267
0.146833197198208
0.145768232647034
0.142776476898655
0.145425443951073
0.144903453869564
0.145567689970613
0.14352957466042
0.143193523341665
0.141469591711033
0.141607928730603
0.142200246238694
0.143062532488215
0.142266774568072
0.140461509294794
0.140974687669695
0.140523307047798
0.141953296011184
0.142565814416161
0.141249901024269
0.137951329142275
0.137635095827473
0.141167605720111
0.138409864792445
0.138584067272465
0.138010441966263
0.138901014613516
0.136756328388394
0.138483929420209
0.138407920731387
0.139800637591449
0.138062374768766
0.138136807897354
0.136188657993667
0.1376206800958
0.136715545772588
0.138078403049262
0.138082196684564
0.138685328213091
0.136377224062718
0.137380542992495
0.136020408196682
0.137280898351924
0.138176548507033
0.134819661995796
0.135440772231972
0.135724941102931
0.130025087564047
0.137577812793345
0.135307526402786
0.134674458335512
0.136874195729159
0.136951213208131
0.133020175564864
0.131357154343944
0.135013612187373
0.133734204880529
0.13301303035669
0.138212301870368
0.132256389381143
0.132818661668878
0.13814283511185
0.130558574099128
0.129226448063798
0.136572710308911
0.131927911209108
0.132358680119612
0.131772368853636
0.137320220359621
0.133299255174496
0.136430841740939
0.132383784723975
0.134860570406787
0.133223240087434
0.129170613420466
0.129588689781325
0.130318736300349
0.129250168642247
0.137454639310057
0.132903036033396
0.134392540140015
0.130795253100532
0.134551810731894
0.127800529117228
0.137252546655173
0.131817943593041
0.134174308866502
0.129866413190542
0.131686663713571
0.118447374292789
0.137799532787013
0.127749429202497
0.137767562594391
0.126862586103797
0.130731265727719
0.119912185249864
0.134592267546882
0.11755336492816
0.136139421912446
0.120671777836731
0.138491187148661
0.121363247478346
0.134950794649017
0.122549991694979
0.132361453711658
0.128882262268073
0.129439922906769
0.127939333134935
0.132551995218332
0.128396368169862
0.123689267394699
0.129878093345521
0.122787477808367
0.134261381674796
0.125682168497422
0.1353425083701
0.123293968282754
0.13250180498944
0.124675315005155
0.131330571054417
0.126922361233035
0.128630332029336
0.126825363613808
0.127135689621837
0.127766378634412
0.126428247114779
0.124970748549594
0.127410856209448
0.125599059611075
0.129605445634097
0.124092302502215
0.129433305578517
0.126142545466289
0.128624335134653
0.128298069989244
0.128766871567821
0.124964466742057
0.127535718529877
0.127299703504602
0.128900528596539
0.126685626108749
0.12908705320958
0.12597064227741
0.125797796465275
0.124749416619324
0.126301973945736
0.127930662643729
0.128388972686119
0.125873756112431
0.127765397753142
0.125878972846929
0.131135716774784
0.129293261816538
0.128585572256707
0.130382784519655
0.129930783828579
0.128795360463242
0.131562178534419
0.130382538006632
0.129513624380044
0.126862971668929
0.129544374754459
0.129303551082407
0.13169170304919
0.130149606809477
0.133602241300217
0.128627867464904
0.130171286975973
0.129759642543623
0.132361465571264
0.127629807705348
0.128759692822394
0.126758890338481
0.129928273220106
0.131653306042329
0.129232848848976
0.131686520210948
0.12982072849238
0.129118008794827
0.131587522300568
0.127920614173647
0.132283682781409
0.129238466689458
0.133621154392077
0.130248595318173
0.133651401869405
0.130972183189889
0.129412322700017
0.131211114403326
0.131794483829417
0.128536801395883
0.131844354664856
0.130690912058171
0.13298838867375
0.133300792047119
0.133547442819386
0.131008155659688
0.134275303320402
0.132899399695668
0.130153329163666
0.133042710899379
0.134354582627888
0.134549569289962
0.132850714849086
0.133545378020965
0.134903411767416
0.133363912776247
0.131410675710452
0.133243493698468
0.134325413264527
0.134488033565948
0.135172060163025
0.135333530116787
0.133985860803833
0.132535512835116
0.134928059816049
0.135071109392205
0.13500528155002
0.133368879090074
0.13581692789198
0.136217729715684
0.13742132292623
0.135661470761311
0.136883960131949
0.134702041357064
0.135877436979681
0.138020950851815
0.135774572868417
0.135128827006866
0.137430874990021
0.135105063929454
0.138060385113566
0.137203515703577
0.137676092947251
0.136358478541237
0.137035518872407
0.139401460365489
0.136679040666366
0.135993316771574
0.139562248743322
0.138119724213344
0.138797813339125
0.136298021545329
0.140833751361413
0.139173345547839
0.140005651485808
0.138927465931383
0.140227216797154
0.139273824593047
0.141234479579813
0.138374472764532
0.140620416338759
0.139804593070703
0.140633246557492
0.139747072462855
0.141381495522438
0.139286344235778
0.141469611299155
0.139661019044952
0.139602293319849
0.138831727723972
0.141437271671703
0.141289203642046
0.143146407541818
0.140883116698853
0.143100903046334
0.140252104085253
0.143860050337344
0.14675041607139
0.1440911162063
0.143659837865177
0.144958294490556
0.141719977050537
0.144068186270966
0.142406939610265
0.144158796079685
0.145148453042805
0.145302648199167
0.145853036731627
0.146840468289483
0.145654789951254
0.144769833519644
0.144886169850389
0.145217316392943
0.144371853196786
0.146575626502258
0.145432386653486
0.14595522076374
0.142793482750364
0.144911597458274
0.143349338919687
0.147881597773426
0.147204031701487
0.145522658622824
0.14750748230526
0.146438251750556
0.145898864042918
0.146024202075101
0.144814074531167
0.144247538976863
0.143673039418948
0.144413330552241
0.144064761650924
0.146181752627824
0.143200859222881
0.144391229978974
0.141684788693501
0.142098720349408
0.142634925115064
0.144994545522256
0.141960903347599
0.140893923768274
0.142215638561698
0.140929945443861
0.14074379130913
0.143436084445944
0.142265642236214
0.140518268149129
0.142666635090067
0.141405048277607
0.141218582065726
0.144848683436267
0.14291247038381
0.140591715903046
0.141264508660801
0.142211824431359
0.140840445644787
0.143457729963194
0.142804711327589
0.142486572161706
0.140723059700721
0.142637355568685
0.142085633395678
0.14302441343733
0.139345073464729
0.143085892656649
0.140411093919342
0.138781198992242
0.13867065420142
0.141606553424897
0.137022127811226
0.140448547290937
0.138861633172063
0.140236940224798
0.139739825924137
0.138638091121089
0.138435636628087
0.138343060862432
0.138104180893999
0.138799829669988
0.138031851243704
0.14055093410749
0.13730098940006
0.138783551779341
0.140119628884423
0.136036110388932
0.135975857924826
0.136830474336471
0.137697270259574
0.137892333051978
0.136197895206349
0.137223142155652
0.139204309694913
0.134452129384602
0.136522063144041
0.139122398010949
0.13612140254548
0.136713230467954
0.134285703743378
0.135951084221782
0.133974631602462
0.134327398916092
0.135751503357205
0.136938206634805
0.135963952515404
0.1358766972597
0.133170276691213
0.135915341157625
0.135081175929835
0.135035801381742
0.135627013102383
0.131809613845293
0.131871154737657
0.130793939695866
0.132914520449718
0.135752783877438
0.132534801704293
0.132444348634812
0.132019188171519
0.134158896900176
0.129831648249437
0.133007127926561
0.13164726796258
0.133327299593978
0.131113958680247
0.132194783569353
0.129450857428092
0.132288145686904
0.132021698190604
0.130061210562704
0.127913035375223
0.128908034846205
0.127432504291211
0.131813042891849
0.127504172565278
0.128305977647302
0.128420027853892
0.127473042064012
0.129021712264941
0.126863526423249
0.126753376657582
0.125538791020095
0.126645308112524
0.126123528764855
0.125032553772282
0.126365678390444
0.127015608195808
0.127854117057597
0.123831424413519
0.126837040659072
0.124732504619875
0.124608862068318
0.122943019753991
0.123913158954994
0.123765862376904
0.123209191585984
0.123592127404431
0.120262398287178
0.12084243850079
0.119245421246017
0.120616306385276
0.120517498446756
0.11793333831909
0.122270545978278
0.116493960746436
0.118479655847476
0.119963310348633
0.118646264548542
0.119292238723362
0.116540625554124
0.1154811419053
0.117369426053764
0.117420714007895
0.115976336114051
0.114065659383833
0.118476586157625
0.1136665998024
0.113641005329264
0.115622896261696
0.114306856695444
0.113297324873825
0.114697457991495
0.112048963658765
0.114193955800813
0.112967409286862
0.113128961876205
0.111434019516876
0.110557620040755
0.113740943579933
0.111526086917563
0.110087634310645
0.115150769755694
0.109774001303629
0.111031909906751
0.110753221219153
0.110600792627189
0.111022869460611
0.11063404603045
0.109275266871051
0.107623908750777
0.11065797860482
0.107517476782396
0.111079905090229
0.111123909193235
0.109567195672801
0.110392330848605
0.109272536986318
0.106616015779632
0.108194718746298
0.108803590195378
0.105635012998483
0.104799844669053
0.107703237768266
0.107649485475168
0.106935877901564
0.108562443856559
0.104054715455463
0.104912741682318
0.105939857074819
0.105781895200951
0.106696393484146
0.106254025298124
0.105497190010642
0.10507770003472
0.101806186954289
0.105634218307626
0.103226487548169
0.102007385533227
0.103007782354147
0.102441136071796
0.103612155190401
0.102255200313494
0.103611927489921
0.102313993358269
0.100301431495412
0.100015004561792
0.0998191651729178
0.101993356012811
0.0987539802586002
0.101476485447207
0.101639217275946
0.101919838848409
0.102536466741067
0.101541596200158
0.100418098675942
0.102562522001944
0.10143535880171
0.102806094292561
0.0990512439574032
0.0989862934220914
0.0993944716210197
0.0971223637169056
0.0993106793566052
0.0997553379272798
0.0987940708211467
0.0984006476288602
0.099748974974436
0.0997833545158349
0.0973454864490581
0.098298495933549
0.0961860843947157
0.0977228757005696
0.0982434328415405
0.0988749204558238
0.0957112059935236
0.0979548849171534
0.0974517995984145
0.0991991132588115
0.0980695033884003
0.0957121511183956
0.09728533349806
0.09580287989838
0.0979720030271257
0.096185809733758
0.0970375241413143
0.0964068902182627
0.0975694682363083
0.0950516912534096
0.0957464404446363
0.0954574930180351
0.0962652379247081
0.0969952174813927
0.0960565553950971
0.0990604027529287
0.0961869022299899
0.0994888709100104
0.0942609403820454
0.094984127682107
0.0947799745874284
0.0960017342927887
0.0941499107747962
0.0968821767017112
0.0962750086079048
0.0953267993614933
0.0932759804128828
0.0957602022577414
0.09368186365967
0.0929045826039658
0.0984883806924675
0.0937748395851608
0.0959115268828669
0.0971270657874073
0.0967673179233108
0.0941889690686575
0.0951177939233936
0.0955614904774838
0.0949579121481655
0.0945643856548774
0.0950246888529606
0.0966944848888701
0.0941069466035371
0.0941144213424632
0.0954335281508757
0.0975417381343729
0.093317327760051
0.0929134850584024
0.0951517129090611
0.0975811370678412
0.0940007086273686
0.0952640960370339
0.0950414529377825
0.0963681964433574
0.0961457277693164
0.0952842401350258
0.0952323489622517
0.0920313843209952
0.095855330056049
0.093128214682036
0.097436464042316
0.0943458478332868
0.0942102369927488
0.0930388247474393
0.0963887917787444
0.0946419137006077
0.0964860517183647
0.0933324267680066
0.094742773250093
0.0937637193320196
0.0978064012246826
0.0962545557627856
0.0948710098769305
0.0933688814300669
0.0953443975160392
0.0955704074962907
0.0970455940384445
0.0954788856759878
0.0965850059196289
0.10177005218182
0.0935157007078412
0.097701954157516
0.0918134603951639
0.0962177600633725
0.0957024229746037
0.0961896366104543
0.0978764583364677
0.0979144111020864
0.0944803640393534
0.0952115504174897
0.0936265849602576
0.0985454679935399
0.0959329138589506
0.0952283114256238
0.103224280954177
0.100239652081607
0.0970698415366236
0.099086961483549
0.0947238363832573
0.105262578398283
0.0974351886994574
0.0974642721878929
0.0990758697169077
0.0987600602593414
0.0996377198119256
0.0979880255519554
0.0973322337438384
0.101490012972833
0.0997064974764954
0.0987110101286805
0.09918777633273
0.0981857573451361
0.0986230611786757
0.0987555984647399
0.0987369681302315
0.103494045246172
0.0997458495318985
0.100706467051449
0.103158285694154
0.101097653328061
0.101697538736054
0.102971532198385
0.103067507660891
0.101952746729643
0.106308304884993
0.100585250062551
0.104708566611276
0.102856788022292
0.102557019241448
0.104021409350069
0.104767894368397
0.105937756120144
0.105337512964797
0.101332031543161
0.115312282818438
0.101492745550186
0.110570631146158
0.106159867946341
0.106464428685353
0.1076667820188
0.107939144598724
0.105706123778805
0.106975628847882
0.112236555167212
0.10665645105191
0.10716218992362
0.104449681963048
0.111679952721903
0.105603811472838
0.110462572508599
0.106848446546555
0.112838644600395
0.112234154318396
0.11411767662443
0.109471439136264
0.116890314469188
0.115114195485396
0.112359741727635
0.11875981358612
0.112074281633026
0.120622820091618
0.119123830353234
0.113752696208774
0.121476999372792
0.114150786972095
0.116617132666509
0.115992063331513
0.122148225044061
0.124385048702615
0.122448453482736
0.122749029424336
0.122519558234953
0.12358901292969
0.128032810975575
0.125050093225203
0.130421114049199
0.12761770984541
0.128144390807557
0.132451089780629
0.14268075001242
0.126001850757131
0.140408852096761
0.134379153238466
0.139706385012032
0.138752528465159
0.141465100841553
0.1369485259343
0.145650777606393
0.143674137834019
0.143462754635453
0.141808956209448
0.15219818574096
0.145466025785561
0.149779359793094
0.150432033379862
0.150261586155027
0.153213870575836
0.164124474915709
0.154059838369959
0.156246007635176
0.159237317275118
0.161684415029629
0.160108405584859
0.164360639770369
0.165933669188254
0.168022776224387
0.170514013897118
0.171417790073484
0.172093673438041
0.176726611596164
0.174199593069769
0.179733492837968
0.181823721914386
0.183903652184758
0.187239155626658
0.194210874613569
0.188376493259378
0.194724648499038
0.198000529324594
0.196673382136736
0.201011853313815
0.201548507585082
0.204141905306648
0.207214769323575
0.210211673618394
0.211813418354491
0.215932594835962
0.223416478908129
0.222284865810322
0.23370676650642
0.233340109599221
0.236636413007282
0.237596022919543
0.25126819065553
0.27670502036681
0.25810532745592
0.25936953566254
0.262728589531686
0.284961538254524
0.292700622462498
0.295676826161239
0.307262326753813
0.31152195626514
0.318770371381084
0.328279144750124
0.335571870581656
0.348490786186364
0.355756221071204
0.362042894484474
0.37202906885085
0.379844337874532
0.40183319013897
0.410938548864864
0.411195903089807
0.417062450578912
0.430182718965508
0.443042520191786
0.452612167205222
0.467584063913135
0.472127406497141
0.48504432236088
0.50306370567204
0.506031471252706
0.518478663445895
0.521727466456036
0.544066833549463
0.551537588053642
0.560344587588283
0.57493937750362
0.586355593486537
0.587872680590871
0.60284584575753
0.613736886708502
0.626698380745686
0.642303719384099
0.664968086274254
0.651253783751864
0.676004369357543
0.671370721599011
0.681109372553602
0.698633622303748
0.702313404405641
0.709926755054697
0.716740478445344
0.70150541209156
0.786854222628385
0.736452843872259
0.740255090323606
0.737178849681878
0.738380443062197
0.746103671161367
0.75575950604419
0.764845740978084
0.780526908964108
0.75398247011241
0.764223605897644
0.776751329377475
0.748876020711934
0.756802395450845
0.782803863797316
0.769484372270853
0.781659507685146
0.770205858561855
0.753960957303075
0.809469956729072
0.780154499268771
0.762313503348175
0.776897127928144
0.780700829408996
0.768615212616633
0.763547032375112
0.754783207457979
0.783599347449622
0.758722730038885
0.736932535285819
0.721325022570553
0.732980718579581
0.740747174588139
0.721705043519994
0.701351072982244
0.69150780394996
0.693693270687265
0.67144963276922
0.673223299036497
0.696234697855928
0.676430299064005
0.645086256858754
0.645270006565674
0.636392794587631
0.628193139876102
0.619189685593597
0.634121362582752
0.617509257148024
0.612312427191942
0.611367811433072
0.611764267936818
0.595368388272645
0.594504575570879
0.593113619596857
0.589420726473853
0.582251833792867
0.591313595332919
0.584862029041119
0.578763403199067
0.573969348326526
0.574622756975822
0.570572087570863
0.57426014630446
0.57850196959798
0.576529995562005
0.575288355753272
0.581026481244085
0.569988216886189
0.569301222729385
0.566104362573905
0.571054731326148
0.568596420922268
0.56860430786435
0.571156686323576
0.567616734686536
0.569418526898785
0.565798391772561
0.564767209120946
0.560974656505919
0.559027757796577
0.560687656577559
0.557113237884341
0.575528337603343
0.56490562609959
0.563039571361176
0.562185095881294
0.556729639555981
0.552401656920932
0.548532249146629
0.563582648379634
0.562029797130256
0.547840027449459
0.54661060509752
0.540524565810424
0.557214065865368
0.54416605299782
0.545518972722235
0.544037712738231
0.530207838883913
0.539551259271981
0.552226130310034
0.564583153837768
0.562778860482336
0.53518976585803
0.522388568747408
0.518958641090924
0.545552707609254
0.526505573014917
0.527715585186672
0.514097548106482
0.537583959513668
0.524438415360736
0.523626549596754
0.514302033087322
0.513205939432927
0.510996691907659
0.523048515491656
0.500090770127665
0.504741361335995
0.5068420910215
0.502314123130646
0.516753425879228
0.515155961096116
0.481873082946177
0.479693050473248
0.481887872481871
0.468614860780638
0.470372568814904
0.484906981030243
0.463552346641261
0.470382919257355
0.45790988272663
0.450599912332629
0.451007451905515
0.450859658432194
0.437161018392139
0.439817136871516
0.439085430606223
0.425684601299432
0.433566009904337
0.429916445572324
0.428485174507602
0.425519466351417
0.422479113374893
0.413668589052184
0.42281104256746
0.421172486226817
0.411205641512985
0.411999349452221
0.398627807470655
0.391662630163011
0.392961306297329
0.385443814300297
0.381871016738193
0.385528072279916
0.379222161738386
0.391393884577444
0.376126438930134
0.382020970775462
0.36963855432345
0.36458442951978
0.363068557365519
0.36507887375056
0.365034164669963
0.353535169601938
0.364810836004751
0.356436031848052
0.353485802490238
0.368331870994932
0.355892261310291
0.357076209731983
0.358052424200074
0.357887293167614
0.359338783837997
0.362294029773206
0.370443710316376
0.366926716445338
0.369291649367549
0.379069537550582
0.369615107024826
0.378224663650493
0.38071478809847
0.382876421396835
0.382220579018422
0.390916773112707
0.396697765282996
0.408081329398353
0.412365927541131
0.411490263869309
0.430489598528004
0.443439604930925
0.434020834594196
0.453171936244031
0.446861632598812
0.473113675823582
0.474606859911287
0.481373309989368
0.479423258444325
0.489966660156303
0.496608049890271
0.499737099912382
0.50684701866003
0.52800201359755
0.514067437784302
0.525370532257293
0.525714788884074
0.535189580228155
0.539342175680906
0.553993624069749
0.545191835376323
0.584513128937655
0.574738203338265
0.562042874096882
0.566389673801979
0.569109394497933
0.568027003471653
0.5668573765329
0.567605325678106
0.576330766567448
0.572004096689936
0.577846905752702
0.577046560189241
0.585760532437585
0.583217965256735
0.58592834172586
0.592161917431971
0.595859763079697
0.595721523337254
0.602425490456951
0.602883878799923
0.602731715704382
0.601208961299396
0.633755363779358
0.61922992910339
0.622382468078994
0.621859717611728
0.627697757652078
0.62744007364847
0.622393964666058
0.638954942941942
0.650637317854265
0.649252381730016
0.656549364939882
0.655916687310414
0.655787419294589
0.646145428587671
0.668957612444804
0.661748690740846
0.673955190100439
0.668753585639535
0.671283124989277
0.703670424528346
0.680295644325657
0.685720933309491
0.68448135666877
0.691180151199236
0.693767796791455
0.692256347412809
0.698071999744377
0.70674905225987
0.707187530739155
0.701367432172688
0.704832442729249
0.700295128836189
0.700134955315979
0.691029884296774
0.70133603154589
0.70497724613909
0.708193374028285
0.697048706913169
0.692176864182658
0.693315155754011
0.718211691637035
0.701666670887431
0.705496054939362
0.706469653627095
0.700484951370547
0.702499813856552
0.701698242054
0.688730944227668
0.703049196767523
0.705391158964538
0.702689961908222
0.704722158885444
0.703610868427114
0.719055416699792
0.713390220691347
0.708235868597153
0.713346021727787
0.710863982438896
0.714358633435483
0.71627836060742
0.71944586843362
0.732793727055841
0.723708716170293
0.729733728827804
0.731158502424308
0.723801782455967
0.740435213126965
0.73803053736885
0.723629876343696
0.728386894809083
0.719406052121613
0.725180538142797
0.72149530157503
0.72532902020958
0.726836149182979
0.717859896988745
0.708858065739714
0.702436012475139
0.703612717077577
0.704517727929912
0.689655424758491
0.689991029113294
0.679846905169902
0.675207285152988
0.669942951610845
0.677176351207568
0.671492521081353
0.662279813367286
0.664239082612842
0.660638684883344
0.651961476006752
0.654532516981217
0.653575624021476
0.648293761783186
0.647635795693616
0.646827673139699
0.648315512669447
0.651456086255355
0.645352179306183
0.638997001092334
0.639299075478304
0.645430791147636
0.63659819047787
0.643939242861097
0.649148877132224
0.642886598951768
0.648788790070682
0.644282262033014
0.644985151594729
0.638240340095621
0.639695732910262
0.640233370757209
0.636659463952561
0.639469046598646
0.633072058637513
0.634932945255593
0.637714306184573
0.638309678614632
0.638566019090619
0.634084606758798
0.63362904849217
0.631856314396978
0.62596469718473
0.625103462920168
0.624620739456683
0.629068322168341
0.634330431326094
0.634732415924028
0.640842971156956
0.63892946915694
0.631121531908675
0.629758807680252
0.633097571326486
0.628654075379055
0.629284035067682
0.625419538529032
0.622662006662019
0.629729715203342
0.635831456257729
0.629536587846238
0.630914175712714
0.625243763412379
0.621178425975744
0.622647320417518
0.612416459065631
0.610720895665313
0.616829617748179
0.610655294225495
0.60361362565346
0.599487571313306
0.594357527962196
0.58598750031382
0.586078503247453
0.582800513396813
0.581852280140028
0.580905898875076
0.57536447078543
0.569378881850154
0.567400457593564
0.560358657044008
0.566333191963149
0.563455113684318
0.561550448141115
0.560008341841996
0.558199584431863
0.559290060252593
0.561022936548749
0.559965730304255
0.557087467829228
0.5524643483927
0.555527398538857
0.557270362907174
0.561195762662615
0.564334201160076
0.559469076507932
0.563010306576066
0.566666516162443
0.566187279861359
0.570881466868533
0.572081642387079
0.569390255517947
0.576694146868679
0.578718258713491
0.571703336775908
0.577264758130047
0.580421925593049
0.580552486284896
0.591255274179682
0.586560376471447
0.588435371767105
0.59177133998133
0.587427703264382
0.591124823755477
0.588284179728887
0.589215168798834
0.58476540225996
0.584558392866845
0.584073367625663
0.580235348896475
0.583170516373305
0.578525050510274
0.57776554235963
0.58020297763794
0.57818457604463
0.577698568080265
0.574205711460225
0.570512876001966
0.568579301339354
0.569874019907606
0.566859544836078
0.564571947072333
0.56599464485835
0.562006497050687
0.559815489996597
0.557981061596057
0.553483107334824
0.55377079280558
0.551085111300376
0.548830729391189
0.54715024966175
0.543902987763868
0.539115581553595
0.540580181578099
0.540205409084652
0.541380822201233
0.539139537881122
0.536744343041477
0.536951961191928
0.53515829123446
0.530028195562816
0.528538539881828
0.528393146425126
0.524337858671462
0.520062628656788
0.521782318837171
0.518029624165885
0.51310475969064
0.508565110593282
0.505430343693217
0.504836619922421
0.497431707662197
0.492359192341789
0.489680562586413
0.487980856074194
0.484756438894819
0.478647207654464
0.478760011490337
0.479299368159197
0.47388344850317
0.47535009575901
0.472969843174176
0.472943743655823
0.471267437958431
0.467735253945623
0.467197472075622
0.467671411932427
0.460060697163195
0.457298989914924
0.456704360305356
0.452576330056315
0.448013227307171
0.444273034769944
0.435436906977604
0.430847738490258
0.425460742659835
0.42252669072389
0.420260073191639
0.416334111563936
0.414289914480406
0.412038264686595
0.415559979536044
0.417072463782046
0.419404339781193
0.424871950322436
0.4292834700981
0.435415339286293
0.44527056075055
0.45908521315116
0.471457532281947
0.48355492301143
0.50139842309316
0.518444121992493
0.535160189285974
0.551875402944583
0.570422096717317
0.591196881677634
0.605262984753473
0.622934981251751
0.642764359714005
0.657369700522682
0.676340983837727
0.694391777278235
0.714266246062677
0.730916823431376
0.74454185856662
0.764747506408536
0.775288845015926
0.784616094133862
0.803206483381824
0.812588171491108
0.824787189735529
0.838171821462282
0.838811324183772
0.850190216621725
0.864468392197092
0.866161212033004
0.872729328374644
0.871413279883183
0.870428391040032
0.881850836139628
0.874411470198034
0.86775890655226
0.875472049096212
0.87776949118754
0.873570323536616
0.883285517515464
0.879684445628216
0.877153936666663
0.880082604216534
0.879181655924173
0.882238946042398
0.891623180117837
0.897879334656032
0.899084917435016
0.911416486486711
0.918145352388154
0.918240462716179
0.933250621263702
0.942531563103787
0.944420280774386
0.955062322916318
0.969978070099018
0.972961785223151
0.983002493554928
0.995143608792237
1.0155052669166
1.03073303865344
1.04418471220961
1.05970171175421
1.07169865622983
1.08288468397819
1.0973717417551
1.09074757792336
1.11262619252306
1.10228931992289
1.10773943198459
1.12144500145777
1.103000450179
1.09581479637115
1.10235222711202
1.0914678809984
1.08428740073914
1.10234117885979
1.08645498535473
1.07483550526926
1.07650577493398
1.06980269747489
1.08771513489629
1.11193291366779
1.11508837193652
1.13555584676052
1.15831526149128
1.16675540643468
1.17506203686633
1.19111659588143
1.21177046378457
1.21423313616046
1.25495444037736
1.24622988350426
1.27078943289772
1.29210021565058
1.3055967461493
1.32391933521804
1.3549469080689
1.3749090963157
1.37982258993717
1.37725820867739
1.41882470574694
1.47113885402478
1.48867894736425
1.47017338717972
1.50999504428535
1.53495055884881
1.52268366489159
1.52648636601256
1.65657896783439
1.61008825982442
1.66544413832855
1.71013691557709
1.70728491839493
1.77604924634914
1.78081265697385
1.78958905136909
1.89129810683556
1.85053719717338
1.79234414058796
1.77341905925998
1.66190382106582
1.75500020130802
1.9016145782833
1.71605650382466
1.70080489233375
1.67701666114481
1.75499336436736
1.7460509155121
1.80104182426522
1.718933968348
1.68268915160854
1.71586315102181
1.72142097129045
1.74590322679057
1.76363705207101
1.78135206909663
1.81301433304645
1.77198239085026
1.93378477282759
1.87830685280599
1.7383291379255
1.93783468113159
1.99718685748418
1.75719563534082
1.89349359897307
1.91701276716784
1.90138704750121
2.03494361558725
1.92695469843613
1.89781623661096
2.05070292943059
2.09323020582075
2.02121055378069
2.00373995673466
2.151774821361
2.01823194129201
1.98399185187858
2.20540837239871
2.27297169998717
2.03672610966027
2.02874103762807
2.14366200537325
2.06758628352834
2.17626246797473
2.28003315700103
2.04878959150793
2.11862952999468
2.08609391664901
2.11510283697941
1.99341156712496
1.97259488084056
2.06418766093071
2.0309723616126
2.0331939067969
2.15768966630024
2.05409141737076
1.87179806371846
1.95721167319751
2.09464515806081
2.00183638190497
1.86125905310103
1.83779982605522
1.81459137843607
1.69478439442868
1.72094848913171
1.68572239826998
1.62183119304837
1.58221161816674
1.51065027125618
1.487360014332
1.53017607221606
1.49433135604561
1.49868635439164
1.47045581299658
1.48647834847488
1.50878815375579
1.46298368008368
1.48155490924741
1.45556271850367
1.44865187559741
1.42323298429989
1.40159438607008
1.39515397343025
1.35849158886034
1.39205241535595
1.37362664658828
1.29698417031588
1.28916532895369
1.28152951891434
1.26425046074991
1.25382447440941
1.21615713850534
1.17436848310929
1.13596274930184
1.11519793267545
1.09929446171937
1.05023720274006
1.01537658165257
1.00154136534029
0.947739749715048
0.915694764599276
0.891562156160393
0.864594368122103
0.833576311045023
0.804749771011037
0.782080501102177
0.761908503478121
0.748353445809996
0.729082948498293
0.701160929240348
0.691972999154455
0.682086676173504
0.661332906744062
0.652421776704463
0.646911690510219
0.638533056927861
0.642051222050784
0.633969566061283
0.624465043262184
0.624906682878318
0.62148960818529
0.615106359552942
0.619972363919901
0.61829881431507
0.614998454322735
0.617731439943163
0.627216950170087
0.632709687649204
0.62964696651154
0.634655462299693
0.629500903245775
0.62445450691051
0.627204091758624
0.618797348634323
0.610877659310397
0.61281736233118
0.610431706930301
0.609446252105323
0.610961106330945
0.602078949158223
0.59724918313905
0.60143413568374
0.595204433532294
0.592155709587745
0.595784683777455
0.588174666209032
0.586416911663955
0.596373491033095
0.603991801741171
0.599624918539712
0.604600518126003
0.613351225554804
0.606220502689562
0.606812504996585
0.618344154786478
0.62038326410313
0.615165370674225
0.624360620984063
0.629293294906777
0.632288592405645
0.634274763356373
0.629169117486082
0.637522787528861
0.631509531854168
0.629334845914178
0.627681601838867
0.635805803359433
0.646342840810809
0.638029401015411
0.634439482157639
0.637046520026086
0.65293538222476
0.652821125011023
0.647496051183253
0.659877367724849
0.675256744403336
0.675867749620686
0.680185630931335
0.687547785982738
0.699081321712828
0.720676127223606
0.741231011111493
0.753670537779059
0.771680333283546
0.779880974043422
0.797897638732675
0.797439809095767
0.799832308390575
0.801138330159976
0.787545663828059
0.788618311813276
0.780676176074616
0.770027671211183
0.780428720349149
0.765098385960247
0.745628356240535
0.759362008958626
0.757822982550351
0.752283746068866
0.758921996950528
0.768092873336334
0.75144321114875
0.748422602987685
0.747215754774957
0.748056523212836
0.776379746790137
0.753554903951389
0.75110047748957
0.754713216201127
0.759268149933133
0.743464636130994
0.730164089507574
0.733532087434313
0.737344760586082
0.726980381105079
0.719957379661485
0.727941802378757
0.729841988916043
0.730146155716205
0.735309808807625
0.711687428034153
0.716020018458159
0.718677987788325
0.716115373104307
0.717550113171768
0.721703360495813
0.731777509276718
0.734504391357068
0.732146422447597
0.719393527772351
0.713615190811751
0.714448432558405
0.697184630293158
0.702541177929122
0.708591848100166
0.715915269477792
0.719016815517554
0.706726122640348
0.714488001562001
0.715701457048118
0.701476309392533
0.712856693403185
0.706745933410677
0.703532034269583
0.704360174755871
0.708939102802035
0.709589940184827
0.720900535611415
0.700952346831396
0.706953596596856
0.702897594863053
0.692415802256193
0.70235281600392
0.700803603072451
0.709438956348731
0.706029233157427
0.690949988435701
0.707334512180155
0.71514062900632
0.722648369150907
0.726908533629463
0.733004625572124
0.725415231252352
0.721560918473105
0.730397406803633
0.728280995293247
0.750414976025391
0.733442417860709
0.71844415519642
0.742561413622291
0.75157850151237
0.752213473040815
0.730702563967983
0.73401084381239
0.748897540732392
0.783156898092925
0.758344953066038
0.784377810298506
0.76574474146697
0.7519156784623
0.787700679706695
0.765838406284523
0.78151990308926
0.819855607847079
0.788583190178961
0.809302788329136
0.823209071878632
0.823367562601072
0.82516775192432
0.854845434181105
0.875237802221854
0.870974478444583
0.848100225435276
0.896440276920443
0.925347456403858
0.935447271360231
0.989645059242802
0.990150028654326
0.997946730386946
1.0522650919493
1.04204178955483
1.05588284480727
1.03807042522721
1.01363203393578
0.972917472767371
1.09650336324401
1.11263082930614
1.07362498968347
1.06260264469509
1.13326651773379
1.05099438653184
1.02241842590542
1.07166832750841
1.04229001809441
1.03618981645883
1.0353486933824
1.06621458689372
1.10638421750202
1.08731884732586
1.10330221586997
1.08131582969532
1.12600959531786
1.07604909842348
1.08191162419414
1.00718137952332
1.04603546051624
1.06684082261604
1.09091309402661
0.979249449251075
1.05227842484705
1.029743884047
1.05893805899764
1.01310242290333
1.06781881302267
1.12561714387376
1.04747726707507
1.00824409714718
1.0400773687044
0.976173105303349
1.03306385191571
1.02874192946653
1.05265874327881
1.01069672151395
1.03193298386916
1.17611792187979
1.23619137140847
1.05560443776368
1.08873383878765
1.08613478959503
1.1012241716095
0.947380080754054
1.00376382670524
1.01790682928517
1.05973188183831
1.07554189539042
1.11895358891418
1.10042447863352
1.16719736322575
1.03318151314587
1.08952155783138
1.02950420209132
1.1366325066612
1.10615607560372
1.1310061656436
1.09311538079853
1.06752901668264
1.06034962541687
1.35049529577973
1.08825188527051
1.15159504142462
1.09718417453853
1.24488318716814
1.17446634193498
1.14637362161712
1.14196444010334
1.24228551799836
1.05125787243807
1.14325842209483
1.23224613102768
1.22475192143295
1.17540557325827
1.071965535187
1.06982510357701
1.2522643325974
1.24626848068568
1.32057853436248
1.30280396060655
1.80961283345973
1.05152371884258
1.26644961330446
1.2840460624472
1.4269395773489
1.93347465978971
2.76131935762079
1.69024358821165
1.65680254902566
1.22690147899857
5
1.76191000822198
1.9898248369056
1.89572317560993
1.4301363619421
1.19544863958027
1.3172728819407
1.08881469143021
5
1.18162435244745
1.02781145580087
1.13253549537355
1.1116427255196
1.17226482478117
5
1.15828563408625
1.8570621335648
1.60651329338026
1.57550982513458
1.20821180409681
2.01371618905563
1.37210586375362
5
2.21119339049271
1.35449788461819
0.951234281826913
5
5
5
1.59061902649643
1.02645245647172
5
5
1.20874080113144
5
5
1.53000258890376
0.874523817605674
1.19402447302214
1.70446522781784
5
1.6059233864886
5
5
5
1.43447325025584
0.775413012814045
1.34336877874681
1.2677400436297
5
0.913311191622519
