3596
4000.36533379555
650.420452594757
1
2
2
0.0520468634730608
0.0634987752123068
0.0400547092384458
0.0693376905858103
0.0491754444604498
0.0661087677604615
0.0516625393626914
0.0679081645881114
0.0590734757295074
0.0744345851688729
0.0596046513530889
0.0586289122938062
0.0560165981466034
0.0641903140962168
0.0565471993900764
0.0674248004049675
0.052239172477642
0.0626534444241183
0.0538406942022241
0.0686762356703882
0.0473455715306653
0.0650597968760139
0.0519745406079872
0.0716511634487624
0.0564996736417991
0.0605800632002096
0.0584280347302328
0.0707701408597757
0.0508747061841697
0.0684572141583727
0.057387981156628
0.066941717076504
0.0529735683697957
0.0592773129604129
0.0551905682510154
0.0730434805192575
0.0510378242346693
0.0700458229028441
0.0526396573440642
0.0646763008143854
0.0527676291159056
0.0675360805609697
0.0571791579389291
0.0691674118985968
0.0504080314931183
0.0651964743946225
0.0562294652934994
0.0672459979650266
0.0493778434610695
0.0603293724439933
0.0529979060013481
0.0679250670187807
0.0600543643076148
0.0666625956323744
0.0570543762528257
0.072479108247346
0.0534324854400452
0.0604188539277744
0.0576351737683149
0.0732352078547474
0.0499889037375559
0.0729166188568735
0.0434804318381348
0.0657860332490747
0.0509827146493399
0.0676898010683113
0.0577406237068303
0.0622761694254511
0.0576488542004104
0.0659643844112294
0.0551956293198867
0.0742990715076152
0.070287122595556
0.0671339824909521
0.0584974390606185
0.0640409554693157
0.0500907499442826
0.0655197472208218
0.0599526030051956
0.0672901740277725
0.0532246074229541
0.0636102162300759
0.0515853458201231
0.0621654301643028
0.0429863835072977
0.0589173055710566
0.0533468980087074
0.0692015801418421
0.0636621504148738
0.0533063710903453
0.0537134920060215
0.0633041864393087
0.0551319505534521
0.0640978254987903
0.0550075786856987
0.0589492636835694
0.0567149008488192
0.0528551216772093
0.0625380159175518
0.0601202111430281
0.0700434737851006
0.0694384071633441
0.0548801461678651
0.0768351148850776
0.0475720462054232
0.0648573720856069
0.0557191347693431
0.0696563747956972
0.0485080053377961
0.0591264320032209
0.0523199740416554
0.0560102718394202
0.0579129485384544
0.0511845494890094
0.0580396355235864
0.0681053479556983
0.0553426463783071
0.0551029960434061
0.0448887569137924
0.0459340868176274
0.0699213462585177
0.0764099593425521
0.0600709682266216
0.0553701040907458
0.0629815139071512
0.0618975360326814
0.0625725160896601
0.076259743390217
0.0625298440259691
0.0588364157441146
0.0545417392796027
0.0541995681099503
0.0583423843348067
0.0618303636611751
0.0576468893218455
0.0611176670691319
0.045497606461385
0.0780458379000006
0.0524577307179388
0.0641123924470054
0.0526088312088501
0.0527704147083194
0.0590867113794078
0.0699088994960044
0.0578872491033825
0.050989447853025
0.0504638650555125
0.0655186415116161
0.0567818773370478
0.0483701092648968
0.0455514252408604
0.0610433338657184
0.0520892337431845
0.0490591250278577
0.0818780466671908
0.0736331293341288
0.0672270598163153
0.0649592497160118
0.0544535406849109
0.0683072642235134
0.0441734663501722
0.0655949681494027
0.0426020195534479
0.0621410544150802
0.0500519245371857
0.0697328186626597
0.0554544494416975
0.0675406749868973
0.0519063326046854
0.0759004046720831
0.0575351178416049
0.0636063189304252
0.0719534638667879
0.0541505512689932
0.0567862699618742
0.0628516505008132
0.0606380973626765
0.0597084485243168
0.0548309716369417
0.0610959878633157
0.0527686422210454
0.0576151303279603
0.0513922028135165
0.0668688008131346
0.0561325429688399
0.0612198009297753
0.0515911491586152
0.0536883429187594
0.0575770750919694
0.0686912236485078
0.0681572195054636
0.0710989608787003
0.0595928803440103
0.0600997586897912
0.0457951552242468
0.0695656792329737
0.043793156326571
0.067466338685739
0.0432957393241449
0.0527875731644128
0.0520808028600657
0.0521356331505029
0.0522214750442424
0.0563467436979686
0.0494844461919643
0.075288833698667
0.0451979222101756
0.0717588358627739
0.04701467840179
0.0596008307997591
0.0561621888312045
0.0859495148836324
0.0387511654287345
0.0726342528538745
0.0519960340802364
0.0620950468961119
0.0542669939986724
0.0724671870701822
0.052732976269033
0.0580463268341254
0.0451456988887932
0.0602669968086454
0.0575721832622804
0.0636837562666306
0.0560820838284815
0.05391992099606
0.0527890617944022
0.0596293295693487
0.0544151244278163
0.0641565144688339
0.0494791459516107
0.0646374113689024
0.0532560154176788
0.052061910611062
0.0542128308256549
0.0648465232815579
0.0634840089180285
0.0620705880896447
0.0508215555977563
0.0599939703943905
0.04736931859674
0.0596010946969722
0.0572586355477709
0.0612778922708204
0.0580610213742406
0.0847459981727924
0.0503139285106533
0.0667930107686273
0.0431553763134034
0.0769028562611768
0.0444604086675755
0.0747643908752255
0.048417103649082
0.0630452896668211
0.0414302615150119
0.070702490440599
0.0534563496251514
0.0653780889606008
0.0554448425343809
0.068169551806813
0.0479569267234908
0.0638892667989362
0.059062913121124
0.0740583427253863
0.0826204526652655
0.0571300449551489
0.0588255510689328
0.076057464025869
0.0408931934085408
0.072156713321418
0.0481827463330082
0.070075270247107
0.0869918940575285
0.0600563003064669
0.0549658613033007
0.0587711364365526
0.0656379922878889
0.0579289897987183
0.0604712625091542
0.0599597490528088
0.0684633737568302
0.0590050160688679
0.0772186002308999
0.107764110188977
0.0477585183315434
0.0841757156534038
0.0443856112038859
0.0789850625808336
0.0475831801603348
0.0655443026231722
0.054516478433157
0.0812030030005929
0.0544129823105962
0.0730527341214783
0.0590790107172472
0.0726108988542834
0.074896163390104
0.0664867052165915
0.0592911138942404
0.0769745800161987
0.0680499935727111
0.0668308686188753
0.0689011958085381
0.0637676200925523
0.0675388729181581
0.066700792801599
0.0694303869383039
0.0849903709064935
0.0633794887289021
0.0715692719520999
0.0705993942521641
0.0767754461258346
0.063320077195449
0.0700654301953838
0.0693372356789236
0.0752988772164116
0.0667366997471423
0.0696945754179243
0.0868488470830344
0.0831766878704924
0.0684587866725772
0.0635227345657054
0.0738887243069774
0.0761882332878172
0.0716237398338418
0.0733755904175517
0.0745161126001779
0.082592161862059
0.068804077101453
0.085065484820199
0.09249652211172
0.0760611006908037
0.0970559399585891
0.088868084862289
0.0745735897903555
0.082935670203045
0.0792484423946979
0.0892897869712408
0.0829780833949392
0.0950233791853713
0.0836611147118747
0.09063621932186
0.0889195502849693
0.105530381844223
0.095282793448017
0.101861709322581
0.114399236794672
0.132275906110194
0.0865414342377406
0.107849278962623
0.0850662943142362
0.121636800427091
0.0919961885701857
0.12291970280159
0.10862879245725
0.110421163401946
0.112615043494478
0.116068856048849
0.118867870961262
0.111985504810444
0.121663942492473
0.122019824710157
0.132667422512266
0.127154657627681
0.131804753294466
0.135624185959519
0.143392986333486
0.15389676369387
0.146172480154676
0.14440167198582
0.139526977600265
0.138112348346978
0.158903351497135
0.16660713093253
0.188120255261399
0.171097309765564
0.177541946235959
0.175100904101274
0.161777324742521
0.175501469633015
0.162828828386052
0.182274174327942
0.176485745591079
0.189102928546608
0.188307832308615
0.198045641896477
0.185890751725152
0.197703764227249
0.19072077829211
0.201006490649388
0.199019106153695
0.219811402255841
0.205617161548608
0.223648212359938
0.205096368449288
0.233990916911367
0.220838302663191
0.255724238706236
0.232406779217059
0.239510053815003
0.219748445103753
0.239578695487754
0.238806950456641
0.245858849321261
0.257856255561936
0.254992515531867
0.267497531593627
0.271228143182551
0.27275494272029
0.264874250720379
0.255465370253894
0.281552387818311
0.270289748101394
0.279591951512386
0.267896342004616
0.287768995469911
0.28204648453161
0.301564717185105
0.296352298117662
0.303529585579799
0.301478357996281
0.303139516837324
0.316564318413842
0.295626016800618
0.305879453692176
0.318924777956481
0.325575934511176
0.334084304388969
0.330103207709099
0.328743080711898
0.341474306095157
0.340932723932371
0.346513263063549
0.354854367923874
0.359500289744428
0.358387543198121
0.339839826330416
0.371150992490575
0.363213821550327
0.377623904460781
0.361729848891506
0.384337861281247
0.387156617907461
0.384108912839086
0.396364593559022
0.387995439207043
0.39788483510257
0.393969904113189
0.402513677807739
0.407518199197282
0.412274707450009
0.415388893258707
0.424328561485813
0.423952915489516
0.437756649080749
0.442003631945378
0.441966075091661
0.435575928609652
0.445428204530329
0.475698247153443
0.447811715301558
0.471364275883255
0.467841038523926
0.485164660723518
0.502877415851936
0.456430953641702
0.46183462468858
0.468077704066911
0.502734597266701
0.484025692990087
0.508092354245897
0.509852537228582
0.51640742874006
0.491960981300089
0.512874922157251
0.52905780185821
0.528685843848551
0.52337435210264
0.536979603280622
0.538509783828595
0.554303533822351
0.538118395600426
0.561750613827414
0.557885882266175
0.551724703731548
0.556993836831818
0.564497611065
0.568059656107256
0.569503594407264
0.58783901783922
0.600978563269554
0.592200372626833
0.612497363160518
0.610433904576397
0.602502417535877
0.600210782542954
0.604333823327666
0.63463775935085
0.617430714135437
0.621622936511881
0.603547875541986
0.618561237416478
0.64790178663249
0.647218953358482
0.665427282634742
0.64435637112312
0.646396885709824
0.663096645151136
0.692754201892488
0.644754253123981
0.666959143216739
0.66935299890918
0.685566956190953
0.694070914950111
0.707985961196003
0.689226082771056
0.705654760747736
0.725553742248184
0.745632229272128
0.698116865002718
0.733582830574142
0.723738972389358
0.751128756283108
0.737134528872421
0.739455597986576
0.749098999397381
0.782617642963275
0.786339546782428
0.776708531133774
0.742797921323193
0.75319925997543
0.744039219378656
0.763908481112125
0.7769537333789
0.817296747340527
0.797647428877527
0.778120969211867
0.748970592760295
0.818092883863221
0.791907930436163
0.80116156275879
0.851019119502415
0.83537530682665
0.796337122515481
0.831771472109867
0.78224339299042
0.813363986079452
0.839867786480839
0.857038779138103
0.869613340562648
0.854465415226742
0.869828514264185
0.91542165161621
0.798338075046401
0.825655953981434
0.881774581670271
0.889098586477575
0.857742253721167
0.896119984345573
0.857276614019012
0.855562324378766
0.859121868564987
0.931056694541315
0.912536553823128
0.941122852695735
0.905876137458491
0.942364869056182
0.927722158469783
0.902747166477312
0.920577908207054
0.928449810700196
0.911765475773976
0.974179031119793
0.896422895104693
0.998887122622335
0.951887818531043
0.957262863956779
0.939066244009443
0.98514302071517
0.946389337364054
1.01379825942309
1.02903269648123
1.03498531720209
0.975761753499331
1.01473463424398
1.00119538265365
1.01829095263653
0.960356235711213
1.01511891645164
0.989534228754302
1.08880825846683
1.03915952939667
1.04579507678951
1.02816293715867
1.08316446447157
0.961597295747034
1.03160502976548
1.01107713090139
0.987850265909114
1.01856957785241
1.0751204330327
1.07434509402687
1.05634562078457
1.0355684770173
1.17737357991208
1.15608823783432
1.08829011530003
1.09686827220617
1.20219011556608
1.08612715235947
1.09679048615958
1.08236949100417
1.1660848847565
1.12273851642605
1.21872409407317
1.09729893195505
1.13876081806276
1.09151070574092
1.23372426834758
1.114467050131
1.20511132095915
1.11900393625463
1.18860768348188
1.14836985236477
1.22592525327281
1.1525182392466
1.17899983085157
1.15150028391466
1.2732523643849
1.11729456268411
1.26931269130173
1.1727567593775
1.14033842411132
1.17118392964635
1.1574420840456
1.110493725714
1.22101894348921
1.19758065194363
1.24605041374773
1.18018865253845
1.2323585315967
1.13182515862342
1.1665458207179
1.19816037758395
1.31820536777532
1.22472068358417
1.23612956943609
1.21121256632433
1.19139493088239
1.20153709460625
1.32835459755546
1.24650668732617
1.5258451872545
1.20772302569453
1.29606806213388
1.25870631563882
1.28922880075134
1.19741281606059
1.2900901576704
1.35253555463216
1.31784989400584
1.13934300697905
1.31801686394171
1.25304091057196
1.27373392385668
1.35215912130802
1.40250221185034
1.30526438237969
1.21943168214398
1.23553737597161
1.3033530588069
1.28117224119994
1.23909772965782
1.26865893316596
1.31550398672674
1.2741103667289
1.30803101032973
1.18797066198039
1.31362989465148
1.33606775067649
1.38890778498164
1.38497205621562
1.38743937064703
1.25528541480132
1.32821580469608
1.32252456688158
1.51880118724773
1.30950384245926
1.55336359136685
1.31568791112382
1.40813942621506
1.37293642739871
1.53875949284408
1.27812294845222
1.3307308895305
1.29867347109122
1.37522298776233
1.35420927005463
1.32592152207599
1.34451333037823
1.40425552875276
1.27926403870357
1.50500971353586
1.32330828608768
1.28437086152596
1.40874050568113
1.40024555541238
1.30315460166794
1.39392105638951
1.26764690342739
1.36424192527385
1.38476612331276
1.29872640780896
1.38174458605935
1.42190633232005
1.32650151325097
1.31244995078993
1.36427741540372
1.4559542831603
1.28311909592043
1.36404792866612
1.37874874253246
1.39206927114281
1.36375674241969
1.45493040686944
1.34477341498387
1.32469513168294
1.26479938655048
1.63972533008568
1.42712869494706
1.39755318360755
1.31970378665264
1.39773957333451
1.20736493283113
1.35304504280086
1.33218114224592
1.42937353679639
1.33916982325193
1.39203040040864
1.41788180307392
1.41320861358298
1.3940994949833
1.45220210893068
1.3020502168832
1.37517942403341
1.41801510902047
1.51242360033948
1.34476894135734
1.31105126916806
1.31979301708961
1.3724689729324
1.2931121311922
1.41232783848223
1.35574271171207
1.45238931850832
1.3759393420802
1.45470908411291
1.34868501005286
1.32163606245069
1.38030134866773
1.35740625922119
1.39932093679574
1.43496486947813
1.36152442182957
1.46233963203495
1.27734261839434
1.35457490418574
1.42012687902755
1.43401710412257
1.33743401909111
1.36072821269517
1.39223139866713
1.50827045967522
1.5443206487065
1.39720506567009
1.36064103662577
1.36740739549419
1.33261736240572
1.39498599054257
1.39242158199284
1.45908217457071
1.34124561011469
1.42141227211374
1.35222426655096
1.33630592212477
1.37315688256182
1.37157418657521
1.39426790967485
1.52100502924488
1.3213084621725
1.43754183315279
1.32101908817741
1.48751499980342
1.34083818545448
1.36084547046143
1.31522145843617
1.4005963075379
1.25725946695387
1.40832598686101
1.2952335166038
1.41714782262955
1.35668144040096
1.3069636184623
1.32480736256024
1.32653148279007
1.31118485204083
1.39334824551949
1.29489965821257
1.39880337355116
1.32333256487904
1.3793400849316
1.29100382714647
1.42381594754931
1.43456876406565
1.43819991405995
1.3440584331924
1.38827008708149
1.36235376727276
1.38335526700777
1.28121394066394
1.28315138883162
1.30999975002144
1.27837125096924
1.30262962681268
1.31349554801995
1.27062805952719
1.34538793226428
1.26097371600389
1.28622348500635
1.24739435867779
1.32558713552237
1.21091833616598
1.33409956547566
1.27632234133884
1.30967083930179
1.24669512361194
1.33641081280088
1.29370175441893
1.33910827174077
1.22228263097535
1.31257674547906
1.22257662964599
1.28431591207585
1.30688649627037
1.29363627221514
1.26499641151313
1.32546130926085
1.27685306660504
1.27165269274002
1.18968356509633
1.19043979480416
1.22497824362566
1.27741006733781
1.21262171353643
1.20620205303163
1.22903873009254
1.21264768000174
1.17522696392916
1.22224247364213
1.17581989111658
1.26317276262862
1.19638497370234
1.22433736912654
1.20864857998819
1.2308474626921
1.16717650693392
1.27497228711838
1.09773408445724
1.16996206036899
1.20935801496875
1.15638588262777
1.12380099099271
1.16184062566171
1.11820202636832
1.16444339025822
1.15023612711901
1.21052368909533
1.17051936385412
1.14593454219374
1.13309899297555
1.1456380113027
1.09724293186906
1.13874544225083
1.10777300617977
1.18075232888281
1.11957806087029
1.10505375265748
1.13341841703302
1.09639773824952
1.08060524158875
1.09386782476001
1.07814867509314
1.06114120687646
1.10895905678009
1.07475032007906
1.06931369256712
1.06650442830679
1.03996339410915
1.06252925211589
1.07345418911231
1.07888779511517
1.00273215512699
1.06435013480284
1.01721851756845
1.01822713584861
1.01072385897753
1.03076638746855
0.968816251711223
0.974450815021337
0.978474907534472
1.02138646632496
1.01207570864071
1.00787278632591
0.973419874349422
0.979584472473607
0.954687759463567
0.976698478934192
0.966026355469841
0.979147630131429
0.938389464577216
0.970367470776841
0.912344212678912
0.914542204625686
0.925879191231144
0.929083735915957
0.909866868819179
0.924205957930696
0.911404456315391
0.924957948956063
0.898249876481871
0.926337887597311
0.917724408669951
0.905947883570471
0.873970168324661
0.888369542085452
0.867000643265785
0.898948754616213
0.85742722916085
0.894952464389515
0.865289749277594
0.882404912674085
0.833369689295939
0.848870552329645
0.827722542067508
0.836281471108316
0.825173820774877
0.822110915374137
0.819097286158747
0.836864077890019
0.818052857875142
0.845272651565123
0.799026093863304
0.816257271197688
0.805052588761261
0.82218786279498
0.779069102768594
0.811304384884681
0.787664858878341
0.781966120293394
0.777871265798764
0.782602466213602
0.760056187294944
0.796148119160765
0.748072456814742
0.788293553435069
0.764641855980941
0.764148620768717
0.739995058860305
0.759110488611609
0.731487096488616
0.748129002200024
0.75145886470458
0.744224899614974
0.720423437742025
0.736826890004289
0.707934363937525
0.718881941014934
0.707590160269411
0.717597176480238
0.68158307118792
0.703463772608117
0.694390238926814
0.704296617533755
0.687895130397286
0.693141764136246
0.682636506338012
0.684053504886131
0.665237291713473
0.682818654740109
0.656167568275032
0.672696583336312
0.663472399085825
0.690646292986569
0.647720340853413
0.653987916301975
0.641082768170566
0.656829451046272
0.638785681702594
0.630179810737627
0.609686759669155
0.639226173238443
0.633709618969702
0.646520047260304
0.620908743952166
0.631334865492772
0.615479028292512
0.61322399056095
0.60702153723109
0.619931358027097
0.598282793510502
0.622247679928997
0.585833480075399
0.602041437300132
0.584336397315062
0.599060069522099
0.576472763478906
0.590280397162229
0.570122925032324
0.59253709042378
0.564688095846222
0.570932947046964
0.563708969954944
0.574765747837055
0.564466650174236
0.572008609238042
0.545559085964795
0.562039829051575
0.551982533140058
0.551093425705056
0.541281054018111
0.552249643438101
0.537599322529239
0.540015615716753
0.526285529679115
0.543685315662162
0.511642029299782
0.53086554152291
0.517495264847746
0.532047685388554
0.522757259535917
0.525343033468736
0.51044143444629
0.515114891994422
0.498261309227564
0.507343375267512
0.503385785835728
0.503649636766366
0.505128845432045
0.504700640051748
0.485599501421078
0.497223353416593
0.488963219761806
0.490575159467871
0.475942666355983
0.480868921027189
0.469192727322236
0.472205432608319
0.464898629565414
0.471536117682118
0.461566360830127
0.472518636259032
0.457800556615179
0.470471905457704
0.462009512865564
0.463740645521954
0.450448850571104
0.456470333808324
0.455902111534612
0.459421124491795
0.449924912531677
0.452781859697727
0.44387924881103
0.450494842729332
0.450216392741291
0.448901055265947
0.440846888105289
0.450600897391648
0.437252924912274
0.446858035574807
0.429235149082286
0.443962475041052
0.434655067813038
0.439798234936401
0.433577081233647
0.444024028967492
0.431227876660269
0.452862545937342
0.435531232327309
0.442598003156754
0.434935115429205
0.442027249182671
0.433888060254325
0.435379338866458
0.430686266294628
0.442401056758056
0.432363452951213
0.446592036043065
0.43007273478437
0.443896876758278
0.437314352316826
0.453062418425809
0.431011743576625
0.444707370498045
0.440043070275871
0.446748919089116
0.435949759145173
0.453051354521887
0.445894978007349
0.453135946431265
0.445310555178778
0.451752365499324
0.441344913275104
0.450455531119153
0.449365772109743
0.457897555118637
0.447682911239629
0.455232762582753
0.455369187417243
0.459966694530893
0.446572387291519
0.454851791974737
0.453355017327716
0.46237581223206
0.449933312361503
0.458995422727284
0.459855806190633
0.484097257470506
0.455413696428638
0.47017567725238
0.464988984542881
0.479769235567615
0.464182435470519
0.476968595839442
0.466564914001502
0.479221004574181
0.466916158008275
0.493520473799602
0.492197762183941
0.498909802137351
0.485865521087283
0.49892554934809
0.484236148791832
0.504951918291343
0.491850283470541
0.501084848918121
0.486020645151872
0.503071929687289
0.492552486627918
0.508709336297831
0.491284832642122
0.505734711612479
0.487269673393045
0.495357128623403
0.489209416547461
0.507304671525448
0.503272170611276
0.497141801896552
0.490492885018269
0.499044935112856
0.486158739624381
0.496242915435126
0.475170964133131
0.494266814719555
0.488836682102948
0.484409194912804
0.470284362962878
0.48731689658924
0.46919969132948
0.484915945465013
0.470826721864511
0.484044429993146
0.473561809212064
0.476651396121713
0.470778259782015
0.484978700824611
0.465555925594169
0.478317783375556
0.477083780925379
0.483388658378256
0.474851718953607
0.482106704512256
0.480681491740341
0.480512609451024
0.472300420552151
0.476512012510958
0.470788230615449
0.473036308286698
0.474482888529016
0.47550589057343
0.462568253683617
0.469707821155703
0.468730091487391
0.478278670499177
0.47039761396522
0.476316141464552
0.452153018815018
0.464366305684539
0.464335250854579
0.471166394359593
0.456889252566411
0.473839492262166
0.460516461988004
0.457653142320796
0.456473075235256
0.455754935897629
0.457233579338691
0.448378802652949
0.455752968767754
0.458588201014736
0.451022865799135
0.453901386034786
0.44219677124055
0.445299457979477
0.443791184134317
0.4371212793534
0.432013348843682
0.438385585815249
0.417659918033228
0.429553989594541
0.415804248369532
0.429184876363815
0.414013422207682
0.416730229834935
0.412458834136773
0.419004975307784
0.40636725825248
0.411630453296728
0.407311261438374
0.408420788041384
0.398151219790001
0.400576255311274
0.392241591800008
0.397274279707907
0.385585182756093
0.393712192099804
0.385826992526998
0.382738689736265
0.380832085230611
0.380255241166088
0.378712145096148
0.382490320382591
0.370526162664498
0.370476748387005
0.361991219939902
0.372808680189196
0.368147083318706
0.362290515490672
0.359729262442617
0.356444949911045
0.359159460488112
0.353685600720412
0.347167251983623
0.354871464525222
0.348466782617615
0.351244040457191
0.345825689925181
0.346655783586671
0.333550770221005
0.343042905598717
0.341000768926125
0.345115822821892
0.33491516648499
0.341870028296525
0.338422000708255
0.339720509070486
0.332921096559637
0.330154660023328
0.325497699124237
0.329482505479845
0.329880544691581
0.325541600204846
0.322606087320445
0.323691332607452
0.315385240617166
0.329693127936654
0.316296614739192
0.320150458723193
0.319018794847074
0.320944196877775
0.31866193968282
0.317805786061353
0.31071134340825
0.31385183191207
0.309606468476028
0.316924544654965
0.307997889591422
0.311996326287392
0.306219791039092
0.310825871013524
0.300650761809803
0.307997015802461
0.306869825796016
0.306597213298295
0.306063227554909
0.304634653815222
0.301133976859212
0.301976163306726
0.297237905576938
0.30016620157566
0.291604053003575
0.301710109809271
0.290003266697636
0.295246502904206
0.294021539612841
0.292568385066393
0.29006648271386
0.295429335185543
0.287672605622576
0.288491327692017
0.289144949528637
0.291163373751515
0.287268618576833
0.291648467902834
0.280817739145367
0.28864469601942
0.279112508452483
0.283354834831182
0.282285718182795
0.281456344458833
0.28227309365833
0.278780037620398
0.276118530302007
0.276086702880502
0.273705555232504
0.286357991866283
0.27615308570774
0.276011918131756
0.27638165101202
0.282943874958757
0.275971883007579
0.277358879242798
0.272466485133019
0.271016088017038
0.270877899404883
0.278565326512177
0.26971917973767
0.273925663374421
0.268335470640222
0.273927709756799
0.264833384787725
0.268079570710952
0.270151337889866
0.268756595788788
0.26100225861993
0.269737586024002
0.260392034109236
0.265011920492312
0.260439021912791
0.271656137187496
0.260545183051449
0.265695962260692
0.263189135821676
0.262518556506899
0.258608827187227
0.26296940672619
0.256566994532846
0.261514416021382
0.258235621699856
0.259718171829565
0.256426778538117
0.259969571487192
0.25759691629316
0.26399479065543
0.259144565724741
0.26624415537713
0.25570675668316
0.257298735200802
0.25175733361649
0.25721090192559
0.252203799240166
0.258036830781356
0.246781375378128
0.256501751548816
0.25706786093358
0.257860998260743
0.249500308453595
0.253489898304078
0.253330093670006
0.252332491376494
0.245357333014716
0.250829656295136
0.247719161752335
0.250782271042845
0.247508982993427
0.249742859562514
0.247060196717216
0.251565267216472
0.247678007525647
0.253426297019866
0.242831767316611
0.247364989556032
0.245980544176603
0.242812846862693
0.240185589700184
0.244876731552431
0.245388211912283
0.241619236934924
0.23525435552393
0.243815988390695
0.234972545015086
0.241592615263146
0.23654167932934
0.244855477212713
0.236275513815128
0.2394644198713
0.236431368236012
0.238542569543244
0.236792996249588
0.235487961585397
0.228846904385061
0.235139967770721
0.231140929039812
0.23450247392812
0.232500200478122
0.23942633261012
0.230598270638388
0.231752621451113
0.227649787394773
0.234168399575601
0.230233548264782
0.232287347335503
0.227011784829805
0.230258193508311
0.226082298693311
0.231168092975495
0.227420762096202
0.227958820737833
0.219959554296928
0.22671927591159
0.225646450628036
0.224118404776633
0.225407078132918
0.225274913533689
0.220074576249404
0.222068568970618
0.221550575166262
0.220946978863835
0.217017221021647
0.219447133351686
0.21452272424548
0.221094955953323
0.217233004122435
0.225187268931023
0.215338591976995
0.214079407454795
0.214350245418984
0.217931866652979
0.213712347518181
0.2114739856869
0.211157072688855
0.208713570528489
0.210406972015923
0.213865808341867
0.213577693550781
0.215105842983933
0.209773507927718
0.209072254473569
0.204507822214571
0.207794389490811
0.203644176021098
0.205026400270389
0.206533763108707
0.205350472440938
0.206979847131392
0.208061054030052
0.202046834609507
0.20759427356525
0.19916473142513
0.202652419107297
0.198280524814456
0.20303086201226
0.198145779839203
0.202356112918165
0.195135594943488
0.198497155002847
0.195428046588379
0.202874498073434
0.19236476919488
0.196630482193347
0.193240896059483
0.19750653313044
0.19473790814221
0.198277474610025
0.194703889142607
0.19489047170878
0.191825834041553
0.191176071854585
0.188633620176538
0.193840173328053
0.191355347078404
0.191559820159766
0.190063178993501
0.191410459008372
0.188549736776098
0.1887183105362
0.188555665363808
0.189708587378898
0.185662060486636
0.187824011469005
0.184714663056686
0.188650314625185
0.184742308700457
0.185055826279203
0.18385410128771
0.187193642842133
0.180483689922343
0.183444675986706
0.18155650611591
0.1829733451905
0.178683741103551
0.181616383698358
0.180261529857859
0.180882528110006
0.177746353168539
0.184151019206224
0.182088013810283
0.18224058801109
0.178717983704806
0.18152250884342
0.180450426489667
0.182028406287313
0.177410101962942
0.181094130543514
0.179443521812036
0.183084069829487
0.176831238274216
0.176015875101175
0.177170628021387
0.175848541246476
0.171861972200312
0.179207534227089
0.176753081897106
0.177542997130424
0.175290167946281
0.177374638338699
0.172978374306691
0.176806644057815
0.172822035158067
0.17582323505484
0.176978064033611
0.178615865153271
0.1733713661702
0.173649822000112
0.170503292559411
0.175143093122358
0.16825235574892
0.173895713169873
0.17218135390396
0.176235536144447
0.175835259307812
0.172376179159742
0.170157793982194
0.174730487748071
0.168588207900942
0.173587141742868
0.17125364475379
0.171917694496909
0.173521566699549
0.172791784359653
0.164522053106167
0.169630042780827
0.171635600340105
0.169678046254198
0.164619082505459
0.167680001213287
0.162691733497934
0.165115594308622
0.165907834553832
0.169032288521389
0.166946650485656
0.167154160492573
0.167981078668216
0.173429980180036
0.163104752950235
0.164214191258527
0.16351005727717
0.167585021398875
0.165659321502623
0.168954054442445
0.16462473413666
0.16664752180388
0.16399507652308
0.167815388516203
0.163450063394753
0.163538631944555
0.164444912746297
0.165021228504165
0.162641821272704
0.165098723772161
0.15898606446608
0.161088098991461
0.164190044115735
0.163209325985869
0.161118067845194
0.163796429272957
0.159525515981213
0.162173409663487
0.159359277088448
0.160800919750218
0.158352744830052
0.160257072758579
0.157362168255798
0.163349785697262
0.15863889655214
0.159979792762752
0.160113968878992
0.158603307283205
0.158493396442875
0.159632824294481
0.157771921197695
0.157411362536517
0.156408805648702
0.159494888801242
0.154646640591009
0.159108986256168
0.155593800479634
0.158984828584693
0.155912728125409
0.158805928904026
0.153810170010736
0.154610379949796
0.155525611182806
0.157585055715639
0.151934642504273
0.156906325528168
0.156998090746216
0.157600918202616
0.152921843025943
0.154950244334172
0.155273601668818
0.155218342459804
0.152418132443127
0.153991049820803
0.152991464810679
0.152763595356114
0.150271062140343
0.148263026359449
0.151022872185238
0.153386777887215
0.149144456829517
0.152404110540418
0.148841188360082
0.148844802849133
0.147831206479895
0.148809603395225
0.146480062135829
0.149055606044075
0.149053355332822
0.149522870554821
0.145331829986115
0.147710933019806
0.146428909373426
0.146357775640716
0.143390414172526
0.145973518010038
0.144635619012251
0.145882247572061
0.145757389030911
0.147346367433812
0.142847349556692
0.143701434760605
0.141914874324015
0.145749125356435
0.142917779179736
0.144891774685822
0.141854379516195
0.147929259959715
0.144570461150306
0.144884769298999
0.143099842238609
0.142482474533876
0.141880841725711
0.143511500972063
0.141579133712697
0.144976660401762
0.141823038213959
0.140938530439911
0.138846061594476
0.141244621930463
0.139456980204399
0.138894033899573
0.142215657172089
0.140630974728153
0.136710309989791
0.139404213012016
0.136428510487123
0.138929170603939
0.137062092091125
0.138031007579037
0.133809356800655
0.137028557419414
0.137691463107823
0.139546126987511
0.138498780089894
0.136686922249256
0.137559252983724
0.13461935282239
0.135517878784554
0.135936209617247
0.133154098182341
0.136497795987776
0.133455451167772
0.137142410660552
0.135108471440873
0.133581198510103
0.134313203442715
0.136134292351322
0.132597952485208
0.134104526787483
0.132208445396053
0.132972122646362
0.130913090032724
0.132332545500292
0.133339325015575
0.134785906844094
0.132089005287084
0.131211410457155
0.130168129131242
0.13422551450587
0.131505595870148
0.133083070077332
0.129516297536428
0.133423725856439
0.131176118431381
0.130674771378662
0.131861432802576
0.131515176648316
0.128268487048162
0.132276768066143
0.131845967011547
0.129602590466566
0.128095633391246
0.130333161866305
0.127969574383995
0.130761760986666
0.129045832022298
0.133350971243016
0.13268158999028
0.133123581712677
0.130640952125267
0.131370831674522
0.12989689610046
0.131272605148141
0.128401234679396
0.134052058941486
0.133166379125854
0.129832033546056
0.130251342833017
0.126705216661045
0.127751926201831
0.12931853830569
0.133330250266191
0.13321993934517
0.128286418164033
0.129569764806105
0.128868775576438
0.130432501028552
0.132027269257962
0.125055117683034
0.128520657615798
0.128406845770247
0.125760863204956
0.129279324578844
0.124632284749687
0.133895079876607
0.124761323872478
0.132533078626451
0.127657227506606
0.127344817451745
0.134165576372792
0.124245817328048
0.128475371745071
0.128800508416128
0.133149261349167
0.129787242095789
0.131171126970393
0.129689237541052
0.128540196278082
0.13197491295818
0.127440848772525
0.135672522958157
0.129948839155153
0.132106613165674
0.1268175117505
0.130477480729837
0.115985097084199
0.129605710660123
0.113962156078233
0.136618123736506
0.125475994129485
0.145392153323584
0.117690500855722
0.135581125562816
0.102667749763027
0.148959831116537
0.108766501124741
0.152092517028813
0.094215706872986
0.150742453482378
0.0952399959320397
0.1591913408203
0.0934925026751209
0.155810658970261
0.0997245930479905
0.158780076373197
0.0967143695948658
0.143694321684188
0.106050358726959
0.135020111816451
0.115418038887393
0.133104992064991
0.123975208605181
0.12313952029242
0.132448563326159
0.118426485589784
0.132276115175385
0.122383171822965
0.128043761350708
0.122485867686011
0.121551058033834
0.125752754858178
0.122042097867886
0.126739940926124
0.12002463928011
0.127712604235571
0.121654953209848
0.125009669820035
0.122521918736381
0.121193702484118
0.122238169527595
0.122993770429043
0.122448784381825
0.124644365181359
0.121513767887729
0.122845956748002
0.120909694614205
0.125302193823028
0.123021540229323
0.12605587167633
0.121508563769929
0.122859099648326
0.120793936096236
0.125626601819696
0.12303082127323
0.125418823055709
0.122180435004885
0.122306818480509
0.122518834261429
0.125540030985763
0.120428298279726
0.124980398269242
0.123652035910362
0.127227581953946
0.124086350239496
0.126270869833548
0.124813236587979
0.126293395070497
0.123295837063061
0.12635840611337
0.124605573617702
0.128646875482541
0.124946274951407
0.1249611917266
0.124475982266722
0.124725661591321
0.125275537270281
0.125292269108183
0.120697103550378
0.124509423740613
0.123482175264906
0.128688574958088
0.125260175609048
0.126435951824422
0.123539110086745
0.126011089158241
0.125331578055449
0.125740515110149
0.125720878052968
0.123892650062417
0.124363778247147
0.126023130887065
0.126834404199662
0.126981223282859
0.122989859237826
0.127566946721779
0.124378566026575
0.126064221848262
0.127126320943306
0.12505285245378
0.126537616417214
0.126717175624977
0.125917743162386
0.127531620589243
0.126115324714329
0.127146517572249
0.125305331422745
0.125616158449515
0.126068880093618
0.130082604377402
0.125793638890187
0.127431211867296
0.126078597923303
0.128686867813626
0.12704010751469
0.129756660269101
0.126004057816526
0.127445507394325
0.128291485203647
0.130243503516619
0.128493198294406
0.128662273529413
0.128726083767093
0.128636917374791
0.127287326157472
0.126979363727964
0.126975388093444
0.131551351584897
0.127969807448988
0.129794533160063
0.128729480586145
0.128113745663482
0.127773620588824
0.13197625886234
0.129533489960504
0.130654147211844
0.131086951837077
0.131519936751289
0.130054230793858
0.130961900406189
0.127064547157291
0.130141397197223
0.130135564235059
0.130305033470701
0.128537129084667
0.132796227568493
0.13018897472234
0.132655052523326
0.131857902345449
0.132836344338261
0.134084108283545
0.133955638951345
0.131902281961875
0.132965531450498
0.130153199474544
0.133388266963063
0.131439536207206
0.130442912470725
0.131230521401654
0.131378629682204
0.130675459490352
0.133562887561388
0.132015450134592
0.134097351039328
0.132658113062101
0.133249426889035
0.132172691787803
0.135019549158828
0.135243565939491
0.134568591737012
0.132862931389593
0.134764453776055
0.132676402386824
0.132778074448337
0.13517212153884
0.137587999668536
0.135457392842608
0.136810696961369
0.135465167122353
0.133900399998463
0.135402931824628
0.136768357549308
0.135303903771499
0.136391461899691
0.137431006845345
0.140901303356784
0.13697070573338
0.13639651594301
0.135346658685999
0.137953817431578
0.136008822590084
0.135400938221003
0.136241490469552
0.137465031451153
0.137572006223272
0.137251049591162
0.138438825580651
0.136303042939507
0.137072792302819
0.138255481996037
0.136528806040797
0.139873540911485
0.137731859641048
0.138060245221908
0.136587118634058
0.139534834626418
0.135678451524778
0.136137699666241
0.136275620349364
0.13797878498671
0.136258081528496
0.137701139993304
0.137944425517396
0.136362773901104
0.132804116344782
0.134779829591079
0.137370573858255
0.137300522785746
0.134485512700591
0.137559554406297
0.13415199010477
0.137476769370287
0.135454490609711
0.134246296108026
0.135208446334951
0.134906209731447
0.133037610621739
0.133809072447351
0.13487599071725
0.13804129163312
0.133752369552505
0.13497843279174
0.134756421097398
0.135707667159116
0.134970622932848
0.135385512380636
0.133816705776346
0.135135338430223
0.134894126929886
0.136880445293722
0.134624645735201
0.131773906139349
0.134367494132816
0.136207787782927
0.134821446818083
0.134218736445589
0.133537913803005
0.131333281339026
0.133712162794542
0.135798266110165
0.134361780608899
0.134711738937532
0.133015426223822
0.134352965966939
0.132392562149492
0.131892202474077
0.133830157393752
0.133753464681041
0.134452100271243
0.133131456336364
0.131466419957751
0.134937071775032
0.132331080493571
0.131228977961534
0.128545511467756
0.132039470489788
0.132143730097118
0.132438518929663
0.128866848530133
0.133071770585653
0.132289685055992
0.132720371017811
0.13130774880958
0.13117171927075
0.131127896502622
0.131729135557452
0.130918740284118
0.130238572739278
0.128693836984878
0.128058678291553
0.13009185836553
0.130341818037341
0.129647724694662
0.129204205554728
0.130061831548144
0.127104553605791
0.12764073394406
0.131634676999278
0.127225422661969
0.128635640417117
0.127809450950847
0.130686836558787
0.128491588744019
0.127786105079275
0.125646168874768
0.128793149839661
0.128658493590531
0.129016144787643
0.12774207640685
0.127097345918419
0.12786914065032
0.127826470011026
0.12541587699034
0.123515050026253
0.126376033878088
0.127762468273448
0.125383983458209
0.125206261481609
0.123424793359742
0.124049074268156
0.124457962656561
0.125372841889376
0.123738907536
0.123828681761648
0.123612395686102
0.122389286485146
0.124157996805055
0.122815356399604
0.12111306464965
0.124335015610591
0.121913152402635
0.121066441901778
0.120848318102123
0.121166811191154
0.121319050064817
0.122333041349473
0.120405113818247
0.118955651392847
0.118703345734167
0.12042233977397
0.118338090104776
0.119853764637853
0.117422863499392
0.119864309201744
0.116031109620479
0.115896617309015
0.115551347007561
0.117035419243052
0.117131405666489
0.114081011271871
0.118077469790933
0.114705737722966
0.116279422474141
0.116753236325353
0.115355668827084
0.115291313353541
0.113571004952254
0.113314788510661
0.114075613836715
0.111714993915582
0.113937088280488
0.110232846473656
0.112988045034522
0.112010733690067
0.111586589067144
0.112526748078521
0.110545404910233
0.111398169222245
0.111364912318227
0.110602595235799
0.112385105806242
0.110949750359926
0.108633204944957
0.1070655114092
0.109207377201512
0.113571400419873
0.110607159373017
0.108950390373045
0.107045662592187
0.108831639075659
0.107528337931094
0.109046735042989
0.106808220589561
0.110051709117339
0.107206632653721
0.107071397564492
0.105586392594179
0.107318832595913
0.105991601409182
0.106393363251701
0.108036451679018
0.107163675359555
0.105776151447544
0.105298127525327
0.10375097674256
0.105854490831162
0.103934263322072
0.105215684122802
0.102471609686651
0.104561403751919
0.10386509843002
0.107896296312416
0.103866140106045
0.104794531150131
0.101688106264701
0.104523077575517
0.100252522414861
0.104466149626687
0.101067019900635
0.104082614896306
0.103022676551554
0.100064184819034
0.100411610109585
0.101897591840684
0.100978467445392
0.102421120451085
0.0980798720880695
0.100466691409502
0.0997352320650318
0.101752277187998
0.0989854676310487
0.100980299847088
0.0979585337178035
0.0994326510654947
0.100661728085551
0.100543037125397
0.0979093723788853
0.0998127172563004
0.10385873283233
0.0977841804901194
0.104523985098813
0.0952007395526539
0.103559806167732
0.0994812306759213
0.0983607184082192
0.0962678375116668
0.0982546281587531
0.0951770286137883
0.095496423479578
0.0958850469419968
0.0986762877186394
0.0981751680659391
0.0997539168805981
0.098152087920872
0.0978332034228895
0.0941870938716724
0.0965200060430937
0.0946787585361183
0.0961032704955526
0.0981760390420561
0.100430700749929
0.0942239093697809
0.0987634153949565
0.0932339989040241
0.10691222541801
0.0951779879355526
0.0984692581707532
0.0958496813186947
0.0937623995297822
0.0962349876347121
0.0930307940733578
0.095652112057704
0.0938828114731309
0.0965246048670547
0.0939379284201989
0.0973846218490665
0.0901366349997272
0.096976437000066
0.0932020988790909
0.0934359237029571
0.093728524732592
0.0945993445000891
0.0932126745554061
0.0926611815387316
0.0938910095455169
0.0936699805455966
0.0937833754170555
0.0942450352797886
0.0943954346860104
0.0944333977634117
0.0908957176417979
0.0945661574721376
0.0939582196678456
0.09190870662618
0.0913821314783343
0.101243436576632
0.0859593414900962
0.0990041365509561
0.0888923379987134
0.0951502266568257
0.0908355900158437
0.0926286784736789
0.0910750548196134
0.0921387403633451
0.0907541076539118
0.0928954625510553
0.0920105593062817
0.0916301019569859
0.089348934859741
0.0906127175141885
0.0933391078547504
0.09234681513134
0.0929707141662582
0.0909649228949635
0.0949720753516195
0.0891507238347878
0.0978370599229837
0.0958314557472861
0.0945096578598474
0.0984447397191727
0.0905880378620544
0.0918870344424463
0.0897955686919929
0.0956109736602749
0.0883435323914696
0.0949886012516833
0.0897846380119726
0.0937049489834692
0.0881648231223524
0.0951110321871021
0.0889497863104245
0.0937876154331231
0.0861653537039564
0.0946534625939211
0.0871907412572549
0.0961414417844573
0.0883805463560628
0.0967270903767095
0.0862262378840383
0.0978308593533511
0.0904613384194381
0.100365141780157
0.0850368885817657
0.101722868134339
0.100876087158003
0.0896161848065218
0.0980486852820513
0.0838356332739804
0.0962805593790874
0.0908357846658045
0.0936985211498477
0.0919532339038606
0.0945358228799181
0.091039745274192
0.092097858745064
0.0894323301700625
0.0956292087016387
0.0883120518616123
0.0924713562156932
0.105739589957361
0.0961565679015456
0.0970324305637442
0.0925539822195931
0.0893250970365924
0.108481592796848
0.0907621732227009
0.0974944344624311
0.0910850850907809
0.096062377315441
0.0940967878460291
0.092892052446877
0.0914270279003019
0.096300363390778
0.0950722465810519
0.0909487966306014
0.0975703696173293
0.0899391503541786
0.0960582967555479
0.0925581413108557
0.0979028715330281
0.100366721367815
0.0942458015212876
0.0978927185446691
0.0989019885746277
0.0967060963448948
0.0964648798504235
0.094884319570849
0.0976943330399703
0.0965218271334207
0.103018520839098
0.0963158162503019
0.104355564120086
0.101243012795085
0.0971149635263401
0.101106227443045
0.0993701475056149
0.101191026112993
0.0985551545878207
0.0962079736155365
0.11709410789608
0.087568694078463
0.12326372021489
0.0910877356655864
0.107654864985969
0.0933863024367912
0.108996340627493
0.0914602318452386
0.111664616090065
0.101780613336453
0.103875407702143
0.098440433036455
0.100521302338527
0.107547243352265
0.101260342066661
0.106411177688569
0.102729906875763
0.106377867152725
0.107308939520591
0.115660522695078
0.0983215662173035
0.122184286592569
0.105900725884198
0.11275270593375
0.116729034240659
0.100146915422661
0.119295304372162
0.105281824560579
0.113958975441632
0.111002281196762
0.108897653560155
0.111446313362607
0.103985701552196
0.125897276427295
0.116279549017877
0.114922790964413
0.117863523338395
0.107942936718972
0.123952795528786
0.121005947859249
0.120041831580403
0.117909013722788
0.121120349707692
0.115460709466532
0.13255869341427
0.138314351836309
0.116491781554844
0.146008047596784
0.121203783932355
0.139980348324472
0.122692323253023
0.138035649162291
0.123208428834965
0.141358540261969
0.132982554222372
0.136285620102622
0.129411859827802
0.157561495501195
0.12405066112195
0.148402059592139
0.134198822973947
0.140398533236096
0.14603659248284
0.166320984090094
0.146539482792488
0.158285378426014
0.141838225260523
0.156627696789765
0.150119852191439
0.156275499617913
0.154490930998539
0.153786589415386
0.156936218126526
0.156673807555401
0.160608867832452
0.162877773887206
0.161817846221023
0.172512457406436
0.164092731203454
0.181299426771678
0.174635537647754
0.201108811171711
0.169662542403928
0.19393683498491
0.177878095544171
0.191081917304916
0.18959636466378
0.187652086730056
0.192091561903595
0.194281082877712
0.200240843876447
0.197654619790683
0.202161713760629
0.216745372663819
0.202516490173215
0.236132996543021
0.206652064925927
0.23318803906868
0.213132280384649
0.267999963411648
0.235257872779822
0.252059972665642
0.251680494509618
0.245804994185469
0.289151270806108
0.260361900394213
0.277948848556708
0.278610599197722
0.285178097534613
0.296252015896381
0.303010837288766
0.310835180276166
0.318552659276399
0.328744136867366
0.329632885136738
0.342053488192521
0.361716140141077
0.368003781620182
0.392026532365152
0.374457768459985
0.379297391322495
0.389732358158143
0.407081886858703
0.408999825345021
0.424846718103418
0.413362545158893
0.467466533064679
0.443760827954004
0.455958532953517
0.451859842381786
0.479000933756972
0.483633953617157
0.494847018058412
0.521022086580855
0.51113510808826
0.530055991109377
0.510152361641732
0.549224712238102
0.534917515248292
0.566328718147474
0.567236741143783
0.583918496650749
0.58603423841858
0.591151156546597
0.603332920148472
0.612866462722959
0.623172469089071
0.627948639987834
0.632774004227698
0.653239766876108
0.66684077044665
0.828953573780991
0.655493170266684
0.669981957695201
0.635813450453764
0.678570058497477
0.675480402075203
0.664902388180301
0.703547566247433
0.685066322594846
0.68635378639354
0.682246089038139
0.703346948259576
0.678660511273977
0.689787502404676
0.706635789445385
0.697049905777348
0.723877775798111
0.693848173329711
0.750259244095311
0.709351263539294
0.705749099933207
0.684031104413895
0.694697222125919
0.685207507108488
0.70828601666054
0.692443741534867
0.709881402495465
0.686350130141309
0.704820214406937
0.679685040859125
0.661708989574331
0.674653505693203
0.66430199576746
0.653326682929436
0.645802573586268
0.625404849717998
0.627439648414572
0.60502756218261
0.643573893184244
0.646142896004506
0.612359332627631
0.585696320510531
0.59430486192343
0.587869522079537
0.582159946531108
0.564261047222837
0.575751449661116
0.545311225764178
0.55724464474297
0.551500947610093
0.545380460855951
0.532258624530352
0.537727398104546
0.531283851185614
0.527311793979377
0.524216233673322
0.517579837649568
0.516281015786232
0.520019576092791
0.510312641195517
0.508798265772026
0.499386702862173
0.507602788805005
0.500758197899131
0.506411386650137
0.49696501991007
0.502047900356262
0.496400791978925
0.495619971291658
0.495044825413435
0.494213418180607
0.492648397316692
0.494482000619518
0.494697489888591
0.487044206981413
0.48970052100199
0.480128152382006
0.484772655984459
0.480575464402655
0.482253368476023
0.478906396111329
0.489264751580539
0.526578298714418
0.475396043050072
0.486589978116517
0.46582364737686
0.491557473296687
0.467603856092458
0.475798169436721
0.502022389194858
0.478762837851481
0.469489040315442
0.467870768372658
0.464548186654434
0.477316258902688
0.458089233756974
0.468000091982871
0.45580754398701
0.452685158299298
0.49261037195631
0.456345803787212
0.51368084518889
0.458654344975797
0.468999226736478
0.445945574466057
0.471862768461803
0.458484933139503
0.450714595628935
0.446012988882275
0.440198656503383
0.464302706180112
0.439318675014816
0.443036169609951
0.42976708642106
0.431196364036762
0.451149205341525
0.455050518167664
0.427144694046702
0.446852554337771
0.422656726631726
0.440574418739966
0.457422940837456
0.461520163710961
0.417162347328762
0.414414321548697
0.412861109389327
0.394889918951833
0.416583619129258
0.420465890780505
0.398542439199069
0.411721602892121
0.380207725859966
0.39152311211221
0.373552409862421
0.394632890200212
0.3645280916386
0.387233084792562
0.376704206367134
0.368017795876666
0.378642394066102
0.362050056257382
0.395602092219445
0.371760992964945
0.366591479414289
0.343863143988557
0.372443772829088
0.355212709552358
0.354686721366112
0.348974834394258
0.333122903042248
0.340607434755023
0.338524622968758
0.324923745728698
0.340401965874181
0.325925244308781
0.341033996612587
0.342424993133141
0.350951546526111
0.333848607357982
0.308640231525972
0.306214589161096
0.302273817309489
0.305634655974769
0.302858305851056
0.290961307379616
0.333404668404395
0.28400316297936
0.312641922663828
0.309746034664298
0.301998542296158
0.300469092385458
0.296016297794327
0.293197929054408
0.305884738477877
0.303036665835063
0.31260868429879
0.295296653712854
0.323966192407114
0.31032763865087
0.306308738558435
0.300383472748279
0.317056287740683
0.308323103383501
0.318388142253606
0.324594417154028
0.323294925749664
0.32724631758034
0.330630505659102
0.321692961766792
0.358034886286385
0.3440676320005
0.348397020800623
0.377992725290824
0.351823965784092
0.400909796874059
0.368862110542436
0.381165483975796
0.379355444874939
0.389595800902429
0.391552148897107
0.391215230053586
0.41541994586809
0.407838262676051
0.402183301076125
0.414306861564533
0.412531165284372
0.418623262415692
0.416530627443798
0.441982677351227
0.414365951038889
0.487604766674427
0.431551671620373
0.463470188586636
0.43724599633728
0.440122641257673
0.4501585006145
0.444217378643369
0.449070446061131
0.441487802398274
0.449549359485795
0.455077066077805
0.447225093111208
0.451747671424546
0.447118651515444
0.45615066793733
0.457078971517716
0.462088507866543
0.463499907062326
0.47017336575204
0.46607414363657
0.475715494125926
0.479348318514098
0.52748202299544
0.479751829189576
0.493267269562988
0.481606265047912
0.496927841304537
0.486276774141902
0.501557330652893
0.50788601574314
0.509024751737994
0.502685177560864
0.50873801966357
0.509779998648754
0.51825217834507
0.512145105625674
0.536698058379089
0.509211327521039
0.534351543608863
0.509473453558284
0.569755372427141
0.528940644708546
0.548661758171409
0.529886512403623
0.540042616576176
0.530622730652431
0.540304093959969
0.535022286882758
0.541801439548303
0.546926268885081
0.539063690341508
0.530527099255237
0.535478368324804
0.533501131049938
0.538684529812629
0.541815698508983
0.550929065111711
0.534110845564732
0.544087434183972
0.529329451664936
0.543303549733083
0.52064123933427
0.546899501232043
0.525705566616966
0.533444150638142
0.527744215724298
0.542032277777213
0.54601760303302
0.546585088119747
0.535469300327602
0.547494819986305
0.538106259926255
0.546080718023625
0.529056032871388
0.561891894063427
0.55209592583265
0.545841529839689
0.540998673348675
0.557718745827729
0.547673279425906
0.547172634522129
0.545041792991176
0.545402070557905
0.546054723838569
0.550157896243299
0.552323074819468
0.555256653618232
0.552479988833772
0.54946682150592
0.565999627555015
0.550182042116669
0.54339284980351
0.5488740222537
0.540151052684775
0.548500786959037
0.538634992839723
0.545478780742228
0.535009814091649
0.542234793017074
0.531895664625124
0.53604267108366
0.545867363546833
0.518736436571575
0.534845905361304
0.519541006948644
0.528095161177626
0.517721678992697
0.523456136698547
0.514364444159921
0.518278172868433
0.510237532252989
0.506197816031884
0.504793329623916
0.499920298901484
0.494902661333497
0.489482753070116
0.491581507819616
0.493574356918398
0.499436118109343
0.490616669419362
0.501097768098273
0.493535237083836
0.500179084335316
0.501523875287714
0.503412002954026
0.510991089079582
0.503645257720804
0.513903211664376
0.501200289634171
0.505770442099048
0.499094317188955
0.493663019465091
0.500470826490468
0.49304850758952
0.492982302721646
0.493248594181663
0.492533500260063
0.486650082352275
0.491136020353074
0.481440332370321
0.489218322465084
0.484881060703338
0.486446822850817
0.487316353494707
0.485778482723483
0.478739758681844
0.487322090639593
0.477231858068801
0.479169159113292
0.473638895380177
0.479016555739843
0.475118899501344
0.477077604668023
0.474306124884052
0.46988780247725
0.471057839094727
0.473048681770584
0.467519031659553
0.473275548066076
0.467130464342488
0.472800205586116
0.469102651013992
0.470955844764632
0.466361158484316
0.469631643790805
0.466890418939727
0.460463283270835
0.45926938022333
0.451862298180652
0.456534828547446
0.454778715319859
0.452417694961186
0.450785625467504
0.451042443128591
0.451171851149555
0.445269669462782
0.438680559557293
0.438939567804837
0.43912322130886
0.430497112296719
0.42862568451792
0.428006219687566
0.426271619963996
0.427017826463732
0.422507365529344
0.423277967835367
0.423127904891102
0.424679345490747
0.421752004223302
0.421497930124236
0.424297531034129
0.420678941869638
0.420876671940801
0.423285062517057
0.42540925579405
0.423002119620227
0.427094068653881
0.430029329892726
0.429874147597874
0.425184312907295
0.429613053790098
0.426870479386015
0.434763772272657
0.430233786128744
0.433800422908397
0.438368164831022
0.436998223169756
0.44201335562652
0.444103081725061
0.44598420607638
0.448625152510067
0.452743419784232
0.453556437536477
0.451841618703334
0.447964432075937
0.446325976805723
0.45205355617183
0.450749770893965
0.445844310164621
0.444895832793023
0.44491324525669
0.44196646508202
0.445188256097682
0.437158385973901
0.438970601735888
0.4370689631389
0.433885857796228
0.437702727148838
0.437856845430106
0.435189785193534
0.427964927278341
0.428427095867325
0.428066771982394
0.428483093352943
0.421952771729502
0.421891483976126
0.42162912973058
0.417639159776868
0.416814639774727
0.416099208370915
0.411323465699269
0.41442716582553
0.410668192533068
0.411584845860691
0.407023118423383
0.405687665693512
0.407761305626369
0.405190470698061
0.404478040915679
0.403971462250761
0.401975858757854
0.405852510509367
0.400146081051556
0.402039896080314
0.399772357904247
0.39646985717885
0.395911563155318
0.391360445339864
0.395982614807055
0.389079615631453
0.388300859975022
0.384459091386863
0.382048349719336
0.38040372530711
0.375564209399737
0.374985710237115
0.373862392137633
0.372454466434599
0.374587673113796
0.374780012643657
0.37468823954709
0.37631375741577
0.379148871835123
0.383141142268015
0.383365261655837
0.37882535885801
0.380126983652855
0.374480253140566
0.371272759149664
0.368324499022701
0.365869708616638
0.364836447480761
0.357994617779543
0.354646640588796
0.350890827759166
0.345477262190175
0.340802968917331
0.339381022448907
0.334989627931258
0.333614949070118
0.333636860330825
0.331206652424352
0.330126530332265
0.331985819159928
0.333053654371131
0.335265527775553
0.340703933530016
0.341380824695304
0.349510493664667
0.356784676273333
0.365640127785152
0.375369389492904
0.387144878306111
0.395949342894355
0.408267620512546
0.421763929439148
0.433597747410762
0.44764791709163
0.460359892622066
0.476220489295709
0.487663921054975
0.501011698260191
0.521404099414894
0.532910457482311
0.545220126072898
0.554740995596188
0.567977117211498
0.572762102653834
0.584366084568822
0.596071361451967
0.607081681379485
0.617366286127194
0.629747376296799
0.638981981511613
0.647718701784981
0.652300914213227
0.658362170529811
0.666416911283089
0.668300345348834
0.670478523075474
0.679121982143197
0.67758872784275
0.676908032377125
0.68039938327822
0.683617632923208
0.686121171906499
0.688995214912928
0.693713890160733
0.697488571046698
0.698495326638508
0.697746659274823
0.692165714902636
0.690948369982277
0.691840817502386
0.691165423758306
0.693626161595967
0.699681127652015
0.699998432908746
0.702942169927112
0.700896058906777
0.706496135071402
0.711682055954638
0.718738306797123
0.717692892870332
0.727970133457856
0.737869866868575
0.734235768427908
0.745601127111916
0.755927861658301
0.767468566815735
0.777578653500019
0.791815703776275
0.80559488557274
0.804825004789753
0.809721462237703
0.814093871490498
0.831148096692882
0.834141450929363
0.836483636569031
0.838228977227742
0.834952957720345
0.826329647958163
0.833266204565582
0.830834811630217
0.822466298308184
0.818392490214432
0.811159769259939
0.810797461841291
0.812443239807202
0.822763414982786
0.827551681983758
0.835577718401501
0.844945907949544
0.853542084980699
0.856396911425468
0.880985354183292
0.889422249007579
0.898458858172551
0.920571127042849
0.930360968181736
0.949906361279127
0.954831919574964
0.965295461447289
0.978930881519644
0.983492018079747
0.996588489241098
1.00340409298984
1.01447603386371
1.02232702773851
1.05374361862845
1.05786452680309
1.09547016514162
1.10133463462318
1.11874854540471
1.13559265616471
1.15636782124057
1.15118972882997
1.19658028874845
1.17809260906306
1.20508195705408
1.21087523797015
1.24905846862666
1.24773582543327
1.26775758690566
1.24716538287356
1.2734770343419
1.28401024882569
1.2725188542337
1.25039168601995
1.28540127569841
1.23600821846122
1.21663829038111
1.22615404093561
1.21459948109024
1.2212121488608
1.22091258921128
1.21861926714587
1.2368870026943
1.21514783847322
1.22849218427995
1.22878258584157
1.24585215030086
1.25407272930584
1.26017961803219
1.27397892925736
1.27572113444148
1.29944537584269
1.30239550453229
1.30694403030443
1.33626708430695
1.30467583332526
1.31580676889092
1.34547874565963
1.31702953012066
1.35265331214787
1.34513732448349
1.3550710133182
1.41485276486906
1.38184225738186
1.41151545635349
1.44269093458069
1.46421656720918
1.45916643737562
1.45885452641177
1.44569601976215
1.48142003075087
1.50574835652491
1.50590673590322
1.53257620312186
1.55520647128658
1.49834320872782
1.55787344309257
1.58382999552179
1.62050140313121
1.53221758763604
1.52475343425006
1.52937432423677
1.52928045509148
1.53250568913931
1.58366910282954
1.55675540249488
1.56352202854418
1.51970029320714
1.49900983395623
1.48786287651018
1.52984681470651
1.48783955063631
1.44019593837611
1.41450357749312
1.40401312301783
1.40173959206346
1.37491157714258
1.33021759361392
1.28800526418635
1.22808801965448
1.26073677828145
1.23885607489068
1.2028743404133
1.18428717540707
1.17876677759012
1.15706520878822
1.13429815485254
1.13231540817548
1.14546765731211
1.11270698201135
1.1340035035303
1.09899811799828
1.07864891128401
1.06208062919437
1.07770894052991
1.05801747921617
1.05756460474629
1.04610162086446
1.04063541541442
1.02305416945899
1.0300955413402
1.00753594170638
0.976640877471923
0.946345611034007
0.937377373201915
0.914756306124422
0.891700605831949
0.859048920743451
0.852925323352383
0.815378344737985
0.795472301143847
0.769954830403718
0.735712453678124
0.714351762819993
0.689873226559598
0.682333397504749
0.659997956506645
0.632632032096205
0.625868732970542
0.610821395795102
0.592215308483673
0.581767242598425
0.569881654362364
0.553966309344661
0.546066321757336
0.540170864003606
0.534940861763552
0.531113266424235
0.521680812503019
0.515758888058065
0.513771739678908
0.509090352090156
0.504276232473702
0.507518688349828
0.503585641543575
0.49906530975957
0.507175975948096
0.506971211288413
0.505403493784849
0.509747631159145
0.509478321018131
0.505529420318768
0.505883243184582
0.504095315040494
0.507169167514903
0.509986462669474
0.508210595586671
0.503762476813112
0.501586435470917
0.504643420422776
0.503292727976623
0.500444017716851
0.501175980810123
0.493678148799173
0.494270029241117
0.497488098997202
0.503683054581077
0.498712587867667
0.499017106650296
0.49966506481157
0.499689625364705
0.507605812451082
0.506283588501988
0.502546932119393
0.505299669993393
0.503254146056391
0.507482736289818
0.511840551049569
0.50965605385785
0.500626431602856
0.50418673779468
0.515021331641095
0.51044016326502
0.515628139525233
0.524483823881997
0.528700850375169
0.530370687792211
0.526537743183798
0.531905758713916
0.524466212711301
0.519384484365264
0.516518338635649
0.518555008042489
0.515338244558251
0.519744276076146
0.526572781413669
0.528162419301453
0.531424948780877
0.531837725760546
0.524052226182652
0.539321240222896
0.549329056387621
0.556053429920514
0.577295503367399
0.590065104071566
0.600419329338094
0.608495590757512
0.610028896923552
0.597888131873955
0.599587625333547
0.613316320599513
0.601852975404268
0.603901701352889
0.59092260968802
0.596589407621786
0.584713988333359
0.588163886299854
0.582489405091329
0.575523494250575
0.575957519703241
0.573946177589371
0.563592799888394
0.56819287987
0.567700257587911
0.575586730204649
0.593573879607682
0.600339281182701
0.602823484871076
0.609309958938498
0.622872525844516
0.619540324534208
0.605568672291817
0.612252455307539
0.605888530282041
0.60512965685121
0.603792623079687
0.603675064748902
0.581808533939304
0.588425271351604
0.596207636401067
0.591726474480785
0.587957024148163
0.590373183465794
0.586196698239386
0.593587185830194
0.590277693450739
0.590398677116959
0.581543687126321
0.589046023020363
0.589576650697429
0.599891464916115
0.588951548390244
0.586263540793991
0.592079907462427
0.591272323287252
0.608167179834669
0.585492644608724
0.596015627452274
0.611316224248625
0.596415503095729
0.609324481651459
0.595957193780499
0.592447639264894
0.595023197339427
0.603055422414781
0.602268767376347
0.598903179522784
0.589179533326933
0.623486681184944
0.609857755728197
0.581335856887065
0.583214154718989
0.611451999720492
0.592813472488635
0.590623237976078
0.594555781202451
0.602305113888927
0.60114328949676
0.591741456230204
0.599508126284897
0.609490981176789
0.594448823835034
0.587986967753278
0.59919839275005
0.623288419139426
0.629403024039192
0.60924826211955
0.611372828514342
0.639400311874965
0.6226197663706
0.636822629716158
0.612863395146613
0.607441033383832
0.616431888931127
0.636621034894306
0.64270953545052
0.616351771800793
0.621943581256591
0.644815380394809
0.651036840746452
0.664667853083922
0.645925878294002
0.646628461256005
0.676233446810211
0.670193021527141
0.672143817365097
0.69446267926725
0.694457600044116
0.690349257079154
0.678314763618277
0.687326686191559
0.687202435842909
0.685542734554126
0.701288255632919
0.704242364876065
0.724547373180032
0.731280129165086
0.736225859543716
0.792449863849486
0.780225641977819
0.776769287042635
0.766791383939989
0.785140135183434
0.813129321057706
0.831658590804269
0.81340751179364
0.85559156705181
0.890941187244305
0.873909088735421
0.830123711149901
0.862515844256219
0.873600932880633
0.873292034701963
0.87313166834139
0.868844419741089
0.886851261779602
0.906964285848431
0.882938832754441
0.89650047099283
0.926875282442213
0.95354278677981
0.968789313896295
0.945143859802517
0.915674518302931
0.91071687773311
0.924378781976007
0.91389722709969
0.942417833610561
0.969988000452392
0.94908510163702
0.919135257295335
0.855939563184142
0.91918264170003
0.938318109692009
0.90993061955986
0.931740916823666
0.89955452136445
0.927680336842547
0.939004617654197
0.951304503222888
0.918584194020301
0.899593780294066
0.923350519153253
0.886454567102384
0.906119514777222
0.921626805081956
0.910136491988748
0.913512316069084
0.937050313914654
0.999926382373608
0.978823327128246
0.913439669043111
0.914328886400549
0.954437625203836
1.02995238739642
0.967897646903871
0.97764273534744
0.971696560616611
0.987311992798148
0.953070355814723
0.96823269431486
1.07371702195094
1.13482254590816
1.04025855495725
0.956946979521161
1.07891219633052
0.955757378879106
0.997804914286998
0.971755507629281
0.966580564724784
1.15485785546072
1.01579125960759
1.03317908495609
0.958339290082572
0.96928762572969
1.08555035034833
1.10303239329428
1.03764698972397
1.03233238225787
1.12218416064034
1.0959042287385
1.06980929027508
0.960988270538074
1.09263788496986
1.13441472655756
1.08628737190817
1.05481845269185
0.922618164673875
1.00165081259256
1.26511895367736
1.07880042755251
1.01608199872837
1.24176192653843
1.19443652699763
1.00911206341705
1.17421219574775
1.19578575273083
1.14760051931542
1.30141726324004
1.54377320467812
1.29625316567258
1.06453976541665
1.07725378076215
1.21804278584492
1.13284437052767
1.14523737018929
1.23386294387198
1.12357662505985
1.12366192934175
1.08830578655164
0.950191519068921
1.27525064295587
1.37821477302676
1.63325677214647
1.10267196686036
1.01657769156029
1.41726291411801
1.58643133176477
1.12812743682366
1.11938884887533
1.16974667065998
1.48958083843702
1.29558193396684
1.16857470763197
0.901226900809039
0.903951576689287
0.924395980113554
1.02654068429807
0.966196977256834
1.04529932129475
1.37996001984618
1.65110114139084
1.17388735637583
5
1.41287259676318
0.940415571279449
0.89400052831315
1.01462159086918
1.29676044959453
1.36238337826201
0.867801254236637
5
5
1.19942144984546
1.29853383599433
1.74900548787284
1.5277511028159
1.38485893216765
5
0.843705302806983
1.15719740130818
1.31988253823999
