3596
4000.36533379555
650.420452594757
1
2
2
0.0436157508923696
0.0586257136595459
0.0368789358194454
0.0675981461816166
0.0472175169027716
0.0668429657475792
0.0496717451698503
0.0645514222445997
0.0469930883922164
0.0689741219425914
0.0493619994170234
0.0595877420396003
0.0532254967882436
0.0636223373255137
0.0480899468963154
0.0580900110217119
0.0494578173936822
0.0659417024896391
0.0546173539717682
0.0684470392757241
0.0423557179389514
0.065714549143735
0.0467308694949431
0.0577003348817513
0.0549185593031952
0.0609211740332065
0.0559127793488123
0.069322048743916
0.0487718944320949
0.0645725321421406
0.042620072442161
0.0593953546813819
0.0440946668783609
0.0549675706747775
0.0524885525467415
0.0648934085980766
0.0427885156779794
0.0688387416837879
0.0466443546079213
0.0559634402821955
0.0450172508101094
0.0668740749187513
0.0552689745459367
0.0689695839107359
0.0521862627640226
0.0645184045656474
0.0558886392055868
0.0636460953540968
0.0474579743777963
0.0549800408682207
0.0460063065682201
0.0631533345461667
0.0537183574025248
0.0598895348907334
0.0510662752632336
0.0630222803842771
0.0459381162098064
0.0639001801287199
0.0539436283853441
0.0672115516616664
0.0532682770421645
0.0623130673091173
0.0490899844803747
0.0624813590627372
0.0382567822737445
0.0689470960206695
0.0563357274430964
0.0624980008018105
0.0504960195440916
0.0686488835427799
0.0488228811258628
0.071040053829813
0.0575868335762723
0.0607618821494052
0.0412736168125731
0.0639455396529091
0.0391805497297445
0.0559402672578618
0.0494493327016628
0.0671346924233213
0.0445087221604049
0.0653501149234622
0.0432911155635664
0.0642027806116659
0.0418077680006144
0.0650309889557781
0.0457227537589302
0.0611315817853941
0.0525322389534253
0.0619815857468422
0.0433557547476202
0.0591874098383964
0.0481392212291789
0.055506420227511
0.057672486661414
0.064653376028749
0.0468824587842669
0.0535444065825463
0.0528124857530857
0.0577707759411915
0.0580408256776004
0.0577629468221296
0.0547568989013489
0.0687167171095874
0.0531489339233111
0.0600965724453613
0.0370467349711222
0.0768099360745273
0.0436115013137228
0.0621356068277153
0.0416986882811995
0.0534468096607135
0.0468542708644875
0.0519933992692508
0.0489890608458735
0.0745764208207045
0.0495323512701697
0.0547885396814002
0.0395376833294737
0.0463872086427566
0.0503956535814814
0.0624622575207953
0.0457535107472399
0.0473400030410505
0.0498937718307851
0.0516580350397409
0.0553152099143529
0.0734486721028341
0.0519525028163353
0.0528296327535464
0.0438542116889284
0.0529856635277306
0.0544846942063694
0.0503458218874784
0.0534491508846785
0.0597719067445642
0.0316370977393375
0.0680791495248932
0.0481563866349881
0.0605894978568349
0.0503246203456413
0.0536954334653993
0.0511205687049236
0.0647274843054274
0.0498454819016462
0.0530251758741967
0.039813211325864
0.0580813010270602
0.0526369709676902
0.0476960586188983
0.039632648843776
0.0564438030869314
0.0505196887409842
0.048471831294313
0.0627206747845632
0.0658133845009187
0.0716436665335983
0.0647517809524962
0.0473406182956386
0.0612934117482346
0.044839701615747
0.0574965544158643
0.0431118795579776
0.0530293769113825
0.0467545173967621
0.0623980244851649
0.0397076405956849
0.0659420245879773
0.044556079388633
0.0604828787613199
0.0482287176682663
0.0571586071080863
0.0514679852076313
0.0716732985590634
0.0480141248784813
0.0515209064317445
0.0556982608679383
0.056715504093644
0.0512883999767259
0.0574083214024821
0.0516884552247246
0.0533581923283783
0.0403973965019389
0.0569788816421694
0.0393720952479691
0.0567656044711569
0.0515530998117443
0.0493423186265431
0.0443549973899408
0.0575728025765736
0.0550904982325182
0.0600560333195197
0.0538250176000013
0.0522398390440184
0.0460532643306672
0.0651096741854221
0.0590173301976829
0.0683165631656468
0.0352859858076619
0.0489850155186581
0.0492652346043153
0.0449542920962406
0.0456819383035477
0.0549119341318977
0.0501773687605689
0.0639584878863443
0.0433379422525589
0.0567248023640462
0.0315429910028158
0.0509612928090863
0.0552631299145727
0.0757257704131352
0.0312620793540942
0.0725300497066843
0.0406853303903315
0.0589437490878775
0.0441605629675348
0.0652608050315403
0.0515050457452313
0.0555750730810257
0.0402177845712229
0.0559974398734142
0.0443343438397626
0.0498389186151923
0.0444132105166625
0.0520053411905254
0.049310636279164
0.0534321715909026
0.0410745669730507
0.0571987694521128
0.0544077495643124
0.0572703311826717
0.0420294873804834
0.0527136111360798
0.0523900816364786
0.0604202241256027
0.0622808541789891
0.0588289610421396
0.0453929194648829
0.0518979748948667
0.0401757741030706
0.0512176453805806
0.0550469242167823
0.0570448180081153
0.0515218269886346
0.069111025997474
0.0507858033612796
0.0606865724518984
0.0350254723912794
0.0656904464343877
0.0437229189892802
0.0703417962354136
0.0485227131926406
0.0629321864059495
0.0352050175505275
0.0659546547591855
0.0480510600234352
0.0638231902142976
0.0497818514307489
0.0629553715102718
0.0394086880938416
0.0596967223751058
0.0485453730643849
0.0640114614381655
0.0650131335199058
0.0670600009331543
0.0526117394908829
0.0677068500004403
0.0427499078159126
0.0673758302002701
0.0486725620225832
0.0625304727166265
0.0684453208147333
0.0815228845161809
0.0486743209069276
0.054984961567142
0.0566833581282134
0.0581296925927622
0.0515878004690373
0.0533538806535638
0.0586340589565368
0.0628756974650944
0.0706151649120832
0.0947027995267666
0.0533611557415762
0.0762760656710769
0.0489359529502658
0.0745505854577501
0.0442366525320383
0.0579418960707504
0.0473820062702486
0.0751366115835122
0.0527164066626114
0.0734140860353648
0.0546502446650746
0.0675135921741905
0.0623639944855953
0.0770411090062426
0.0554206981226864
0.0657152425255287
0.055964706869916
0.0684538313461761
0.059839972098381
0.0578989350166195
0.0549474821439852
0.0641580381772653
0.0605442876492587
0.0723859177971872
0.0553111233317288
0.0776361740131352
0.0611883258498734
0.071004832320735
0.0564755941064527
0.0639396932035129
0.0564063895090118
0.0671442017989585
0.0569151558499271
0.0701639675749157
0.0694287823978412
0.0802936632396743
0.0628045726838525
0.0583568404806222
0.0660357231555384
0.0672987167345441
0.0646189577343866
0.0701637134212006
0.0632768028701155
0.0716515376278046
0.0626654818270186
0.0812507431541524
0.0754486148768405
0.0624976438386284
0.0725526521077859
0.0806008211062918
0.0674374660442328
0.0705173800094526
0.0681005247864561
0.0751277410832396
0.0672308068185313
0.081616872543362
0.0719877089146147
0.0831108477173845
0.0832469828541428
0.0960748766878421
0.0832419897492895
0.0883532448756676
0.0929145167238729
0.126728163681906
0.0928325974580578
0.0949497428387417
0.0741861209336818
0.109451602544253
0.0810910046809214
0.113095531809717
0.0854805757012364
0.0972462969116679
0.0867506801668795
0.0971983444530315
0.09787524590519
0.0984489199810778
0.0981798426405583
0.103759081612505
0.108920969095486
0.107851002813611
0.105407999080832
0.110777188554262
0.118271604822745
0.137642756750417
0.125060504688318
0.120885608815029
0.114465010707499
0.120755432254185
0.129768184664724
0.130386358577299
0.145772703575957
0.138110814251971
0.149237172335521
0.15434651152063
0.136186958309252
0.145366978119924
0.140680371970408
0.153078196573921
0.145936412426534
0.156065541449766
0.145669388007312
0.159310324077781
0.150705002616453
0.166421303750957
0.163726116096472
0.164765889098607
0.161081886874826
0.180087657288641
0.172515394892027
0.190807923254818
0.174591468952618
0.199519355576733
0.18467499693597
0.231465367439111
0.186580603068282
0.206881362455382
0.18877128193626
0.200815760121091
0.191308869903504
0.210328487534155
0.21293402244554
0.221216816652472
0.225415619238875
0.234852738727756
0.238306774154913
0.236162806141046
0.223162710454694
0.244500267253096
0.225224471076077
0.24536674200825
0.235016948381157
0.254785618104868
0.23638618390876
0.260578882395894
0.253790326218468
0.26647922842029
0.260306181971845
0.278839176231757
0.270025401494638
0.265196618211886
0.274943422144069
0.278376869274755
0.280972960089425
0.296350471742494
0.292724770555451
0.309395075161914
0.290750146502218
0.302273632256577
0.304382211514954
0.310166914050392
0.3199873947068
0.327783535709183
0.302772164131664
0.330548683391855
0.327768348181423
0.348788384964533
0.32595442540721
0.35970221447325
0.340105268796372
0.337373832162924
0.339701247906443
0.350876127637579
0.357035409512112
0.360618364616273
0.372186497681139
0.373703540683654
0.369939169839651
0.395161393262105
0.375565286501337
0.389750911605153
0.390215039433304
0.399339549408914
0.395280815937221
0.399606398072125
0.402498605737242
0.421144329290762
0.425601880124428
0.440540333389904
0.422618138442238
0.463200106922464
0.439017933898731
0.439759494991812
0.461478131726779
0.461171124147076
0.458311630661503
0.445637393728042
0.450494888945901
0.466688305498547
0.476520789432118
0.477097972245214
0.48161395056457
0.495847403063514
0.481852829486111
0.493162180156474
0.504055606989351
0.50144622892515
0.488228461478523
0.520378922429453
0.510352654065683
0.527659899636581
0.531743224742884
0.528869274258417
0.52615870162009
0.524613028820131
0.562509596375451
0.559673665180649
0.552865227830023
0.56951309584469
0.559175760302516
0.564753009943473
0.580115516727295
0.601711838075493
0.56431796989155
0.616116704315492
0.626307023470718
0.591842257433744
0.584473260420795
0.629536721801309
0.631588769283806
0.63245110566722
0.640880224251958
0.660156720649128
0.62951997037701
0.63577234168367
0.664366739673467
0.647206842828861
0.657824384411675
0.675919169780377
0.681345831222413
0.707636184931778
0.69492597401612
0.674347003008857
0.67990293332064
0.695228998520568
0.692175105625977
0.711735888722829
0.703079268893636
0.706406946753412
0.758869617640299
0.76203416239964
0.739532783309352
0.769600525614872
0.765545751352904
0.74289102612894
0.732597283247167
0.745437142627726
0.738059963280679
0.768070675201543
0.719399865694672
0.780286374436077
0.802266369846683
0.76256920842384
0.744106363060434
0.788896439399545
0.80393642772979
0.81740336081325
0.847499594669229
0.801110866437461
0.822572356001746
0.859737821451017
0.855804243380678
0.843582188760736
0.851375059929041
0.857942621181528
0.864019639848179
0.796627484207126
0.829160197421445
0.870392706896231
0.905161955735926
0.864592473384033
0.876992291506473
0.899266533881106
0.886101983364869
0.916713619813973
0.925964700696723
0.919783059712102
0.905289842050572
0.883898043123459
0.932347763409563
0.89865851297127
0.918472552198785
0.930474926343511
0.933188187830799
0.913970544175228
0.959124569738723
0.942414393801596
0.926139937926242
0.9391067137334
0.984378371558576
0.98704875258304
0.98962032286469
0.996035180788554
1.04282308110995
1.07312289524356
0.970697178158378
0.972367591318219
1.05825507376391
1.00711844760541
1.03294200768749
1.07994348366651
1.02292651065385
1.01884227333199
1.03691425570599
0.989215278349931
1.11776366888729
1.07664474466802
1.04771695005812
1.12164861489051
1.02957868634234
1.06817062328465
1.15112443011771
1.11309846304075
1.13441671185193
1.10427691899746
1.08304531698728
1.06033556704657
1.1604042292121
1.17607031789133
1.10315380774679
1.08993626610154
1.10916412064044
1.11030365256984
1.14289896826462
1.16609026368663
1.23137011215184
1.17513298010408
1.18109361162997
1.18307713411437
1.28198849794745
1.21220520300898
1.14831274899078
1.25073077166566
1.29108482065881
1.23930091847622
1.25865800880285
1.21128331952004
1.19422575163253
1.25847585394917
1.28305425375739
1.17991192049065
1.2797976221728
1.2319045069388
1.23368916841847
1.27369605668264
1.30340269626699
1.22440264711389
1.2496955993596
1.1885421877879
1.34970138134704
1.21417891832127
1.2887961980791
1.24796184132663
1.28907449845434
1.32778975778602
1.32944060022646
1.27330017185622
1.33178305720807
1.27362050141631
1.35691102047166
1.416861795252
1.40148349884306
1.28381462931222
1.43808969726696
1.31259756736638
1.42750823026202
1.32292059535108
1.24723931149992
1.29073891462091
1.30577054230618
1.31475335690616
1.35646243055825
1.36417963543134
1.41351781440762
1.38012492977723
1.45952575318517
1.37614951670499
1.45593117166153
1.33616253677097
1.38184894019843
1.24273213121743
1.35935398611058
1.40540634944468
1.41960208356078
1.36368194488362
1.36230741858202
1.33738258614626
1.51065027637894
1.38926884200854
1.44903921476188
1.40414713601316
1.36702109175089
1.40647374652298
1.47067468133978
1.39656305476618
1.53382822160656
1.44879510029736
1.56682973440869
1.40450399118739
1.32223488093777
1.37298692692356
1.39477266497981
1.4482681008778
1.46964464775345
1.44371983928989
1.50753812647359
1.39858138002286
1.5123086098391
1.43589436364996
1.49395536013737
1.61626068050846
1.48815412103651
1.33628181454649
1.54459418307416
1.49003362174708
1.43141559298395
1.45094364168368
1.52509918006659
1.38654691636312
1.52772226672436
1.45959003219132
1.6483897432662
1.48485790590907
1.51292778277959
1.44785287051935
1.47136502756312
1.4131444987027
1.52423905261717
1.5082213900327
1.48019520570653
1.52310011229695
1.46762849974666
1.50874239127588
1.67036072738444
1.48062153439167
1.57498746144767
1.53550072430746
1.46267845842463
1.5203733747962
1.60604475350396
1.54991814404877
1.61348474659069
1.48529078485793
1.49065478261884
1.58006253364108
1.52255104897595
1.44402755876633
1.61650885278301
1.48187236956743
1.55032589772825
1.4588420885375
1.58862490213891
1.32819802533533
1.35489637379169
1.44479538325086
1.4811064756637
1.44597804867674
1.62344841417793
1.42134119711106
1.45072476981904
1.46970302633264
1.51310179822743
1.51593245462787
1.5771703238446
1.39756729980914
1.55606389673446
1.50746169785189
1.66932283622801
1.51909862207941
1.55140993098807
1.47967718767
1.62276571521257
1.46712576989125
1.56637689190705
1.41439528758835
1.62769874586838
1.48274159437253
1.51650480080987
1.57832281242817
1.5080086812328
1.44908954412689
1.53827575714634
1.52232649788516
1.6279275234977
1.41282945531994
1.54434665792186
1.47497597094744
1.58470860079688
1.49347020510948
1.66910871813646
1.40242733405922
1.53827038586572
1.42952666750256
1.55822148916036
1.41800367650228
1.46195716260522
1.53038925976764
1.46835463936461
1.33575203408583
1.51647973659077
1.47585602516098
1.52054781912935
1.47202231441136
1.53903734866248
1.53094811705076
1.58315511482623
1.43468995967964
1.57815331452879
1.52665293024186
1.43549205032382
1.37321862854252
1.48469110654525
1.5571703420068
1.3932996261493
1.45193041141152
1.5687938591188
1.34213657009229
1.53109567946737
1.48572576705217
1.50108177943247
1.41954331165379
1.45780863032419
1.50595079663392
1.45724195692493
1.37210089174545
1.41574165480171
1.47406156123317
1.54068141958593
1.49096969784744
1.56412438556398
1.38638261468687
1.45474869609633
1.44621663577863
1.59669188918049
1.42847403192782
1.53941793638782
1.54947723323779
1.50864049662751
1.46678767500035
1.41028816993531
1.37881090708779
1.48041706500972
1.39857533549826
1.43196485131146
1.43577786258493
1.48484118718739
1.36977482647888
1.42987080430231
1.37927415302914
1.36282442617801
1.40662211742654
1.52302676243348
1.39824034873811
1.35298769100485
1.31753165499179
1.41445394665175
1.41272157492433
1.36512033428654
1.28622681976801
1.4083154864736
1.39415921328583
1.42475364022925
1.40181401883627
1.32577107254101
1.33877795732042
1.43651015089071
1.28908946659072
1.41633173146912
1.38074876850972
1.46281905508173
1.32600762160282
1.32385328286654
1.27004641651659
1.3658467253796
1.29414636332936
1.29864718549266
1.27255664838352
1.31801073742448
1.2703841040849
1.35469391316849
1.31412936770212
1.34703423129892
1.32275775728074
1.30092212478732
1.27516629145298
1.24862886577854
1.25939208983203
1.26589538604779
1.27837180763229
1.32156959058427
1.24643569240108
1.25465182647015
1.19884360353963
1.19131407062681
1.21345729196658
1.23566926652758
1.15322939926043
1.27685314861215
1.21121930983639
1.22427730729817
1.1767400880859
1.21608008381788
1.16904236608719
1.21388128359573
1.15240817169415
1.21704565120875
1.10656664953656
1.17002439399161
1.15789197598446
1.18189335811113
1.10358810725513
1.13848834885989
1.11809112311287
1.18584332136247
1.11776870875141
1.11229012710029
1.07422494718838
1.13114419349832
1.10154676927278
1.12500715765103
1.12728256239021
1.0930926789773
1.08511656623121
1.07719488763067
1.06689994521197
1.09458989434043
1.07549904808175
1.05990335498305
1.08041591757553
1.09180373311138
1.0559962699116
1.06488407298379
1.00694288753576
1.05885835162005
1.01363970857941
1.06423912983466
1.0096132132799
1.01513577935693
0.992524791632932
1.01701867317779
1.00923502971781
1.0023845614618
0.973890211875554
0.993036847456429
0.982524999780868
1.0040277488538
0.971040180093476
0.992913278031358
0.955404956234302
0.93728768386409
0.934185009679027
0.958161714504624
0.939803036700444
0.944047875426522
0.923170662266723
0.97184366326454
0.91683222781582
0.938280513815765
0.916659462991574
0.917639099710077
0.887860836716387
0.913432628625474
0.886910885648761
0.906154104168377
0.890378647921218
0.900777015596998
0.906523867600395
0.901371331883382
0.86632080412522
0.850392785442839
0.842618893389991
0.863951125455943
0.846316325013586
0.888522606551598
0.828907655505
0.863287153706163
0.840713332337377
0.870756228403694
0.813322775171888
0.834846834533846
0.834184019940007
0.819307506290341
0.814668075643003
0.833166570894949
0.793905706710217
0.804600173360736
0.809757765038523
0.790172598347279
0.787036593745643
0.804482054243699
0.796278710024315
0.787637609448594
0.777932956905334
0.802556196856
0.768492705982982
0.780612542924611
0.749374081168196
0.751180783527282
0.740944279939015
0.767469677603375
0.748951150225453
0.760084155195187
0.731898087708978
0.749456848258068
0.71210209205821
0.726328114668474
0.729980643481999
0.730752905597955
0.698152542908578
0.720773872659892
0.702683199291056
0.700384749881528
0.689947854186606
0.711789210146322
0.698743926215391
0.697470077706932
0.678104362995436
0.692331716015024
0.68568736542922
0.677019279885384
0.665986503625446
0.676373673588103
0.66969752388058
0.673053093408862
0.663035939894894
0.653195716148559
0.656771399209123
0.667863243484701
0.636081734743168
0.645546730567684
0.642904511552742
0.636504819532643
0.62613890876543
0.637199545277588
0.60910318379528
0.629664370824971
0.621598894273636
0.621988358106537
0.602809262054089
0.626776544260597
0.60740448705195
0.614197936446537
0.59470636601593
0.602313409961939
0.59566477781515
0.585663885651345
0.58779129426447
0.59120478486256
0.57662363612457
0.586499736820016
0.56770216167108
0.580884715163346
0.574301749430704
0.579915007396604
0.562450028410084
0.568542855076548
0.553419421419605
0.56675409753027
0.557961085018985
0.561122209479259
0.546425603756698
0.558567199019453
0.527028602456605
0.546319306125608
0.537540690019088
0.552351534423265
0.532393013192741
0.537743953021038
0.512021054602046
0.533045662643848
0.516013720640319
0.522944165118784
0.523101445697846
0.517421471361901
0.512146230609011
0.519318916219872
0.513402626186737
0.505046136336745
0.500518934788746
0.519108204552511
0.514945923679361
0.502987091794595
0.49428404056854
0.508655599328421
0.492079090075729
0.497931732340148
0.487887149166401
0.508521543739252
0.493570181874832
0.493493029487877
0.480204307562564
0.483570529809897
0.482391326825668
0.48966423263608
0.475132451031135
0.499434833802778
0.482765307479573
0.494891955749577
0.480796284813074
0.478426379439949
0.482905686804069
0.48416418286575
0.487949070918097
0.500662074383831
0.467898824044367
0.483805933823956
0.47588768340106
0.493447979550523
0.487808283557186
0.503961134751279
0.483404865695403
0.498510311535443
0.493454326470792
0.490594237871522
0.501821032669689
0.495512936125337
0.503103041751614
0.503643360763828
0.492603088009165
0.507841194074901
0.506892205351217
0.505409805628061
0.503311078646687
0.518020573187076
0.50463371493384
0.526773426858234
0.509142618916269
0.53015498590987
0.513210232941323
0.528695916377287
0.522269337767671
0.528647935067598
0.523368913240222
0.530415769483794
0.534008921536742
0.53806760592885
0.540740218930832
0.544385499268314
0.545224434496184
0.54568126245812
0.531194118675349
0.550799503400225
0.548193008233464
0.557918125939205
0.556516470628179
0.576622322758903
0.573956578674883
0.572293928426531
0.568157883051032
0.59511695049477
0.578060867205493
0.592565872434416
0.572820608938371
0.597217368261849
0.601991914321688
0.600695467600033
0.599699427253438
0.607231420363462
0.613656998325027
0.622732986906698
0.617799231512202
0.61854131608194
0.626204589607331
0.616457586708796
0.634015272070084
0.63343607784697
0.636016442019858
0.648127451551307
0.611506418830355
0.630953658337709
0.615899225200941
0.638100463646559
0.617081064833631
0.647319936066275
0.621402960934276
0.634118278437234
0.622149523699893
0.632094885059394
0.615314560071155
0.628566989915417
0.625953058482782
0.625163407453771
0.60087011226815
0.629458973461369
0.614135728892419
0.61980176293539
0.611422860642662
0.620054319130182
0.610085281003269
0.621125758075646
0.616792820434133
0.61514865392114
0.611852043701118
0.626586626823185
0.624179050604387
0.634057019939224
0.613533991292351
0.616950089533143
0.606452979863451
0.621345133756344
0.632254934751464
0.625737917660873
0.60453581770523
0.624629764412202
0.61403892244072
0.613559119885111
0.612834377912628
0.618073596719795
0.615696881784321
0.628705829704403
0.62061862182583
0.63222598393488
0.613259498050357
0.614699280995001
0.614858652566608
0.61340106859674
0.60482517147497
0.621395636280333
0.603875741132772
0.614978434901877
0.587921990901
0.611645365715763
0.594415556857262
0.598291163097175
0.592865058397892
0.602567737457843
0.596263241665853
0.584015583385447
0.574316253967222
0.588637264254689
0.581242562574231
0.583220678127108
0.573738262817295
0.575225905073442
0.574387985324229
0.569758383723435
0.558316822319877
0.558785214376027
0.556886746097144
0.559453426457163
0.546126283131498
0.540866744090513
0.533110310352117
0.536798586778967
0.532532222333601
0.533978370214081
0.528071291993069
0.530027165108431
0.511804026868799
0.523929744171147
0.501541481300408
0.512024691003404
0.501502345364063
0.504015091369677
0.509357093088049
0.492304955568004
0.486710185912517
0.492762630370508
0.480833125258494
0.48288949727464
0.47605588875299
0.478428894110355
0.475320887737207
0.472674996850832
0.456609548589827
0.469260836662678
0.458998049461887
0.457520027112723
0.454114616093844
0.451403728819042
0.451555401904272
0.455479871665863
0.450580046256688
0.44941406820662
0.434783057927735
0.439066517846081
0.432318542880831
0.439731376431373
0.425369957958896
0.431900622351631
0.428287583804196
0.431883254310762
0.423961598475632
0.427358985497762
0.418211142241483
0.42255860092619
0.417982334118339
0.426246374535337
0.420200325163078
0.417531590107739
0.40522013570202
0.419425629016484
0.405587549231511
0.41492310386223
0.406797039753347
0.40723057795019
0.407665098999418
0.415983185017351
0.400470806906259
0.406411420694584
0.393522340220578
0.404150218014726
0.399782663731917
0.387592998943392
0.38578569443125
0.391414689629288
0.381447906603645
0.38157636069585
0.386528401233828
0.388579684596446
0.385607183363719
0.391894205748067
0.38006390973389
0.390827280622076
0.372846574890953
0.382655177347294
0.377158292757366
0.380894336023998
0.370948622356193
0.371107018386967
0.368809402937638
0.377424640486986
0.366966117418344
0.372873668842186
0.360177324477824
0.365223505773674
0.359250619344759
0.371369372858753
0.367522366986287
0.368527899556613
0.360493187240165
0.365256031917437
0.363017593693364
0.363661471011433
0.354638864442253
0.362330176520783
0.355326808551634
0.358915858756466
0.353860956525861
0.352331954793443
0.345982063745917
0.359664795642539
0.345745051178093
0.356815638937788
0.351939676755141
0.350625127669044
0.348338948296658
0.356089763485763
0.341517246580386
0.350533593440013
0.344195375124177
0.344792007957214
0.335263711770316
0.349809737469578
0.342063255512331
0.346174186342783
0.336570683216738
0.344013084414929
0.334996109728488
0.336383468047333
0.336449792579963
0.336793556138011
0.335163614550719
0.336003403820675
0.332630966670866
0.346385041185436
0.334804516990581
0.338864318434053
0.332212439026268
0.335787674265941
0.33416749454633
0.337713778341433
0.327567206995664
0.333465576330223
0.329997647176063
0.33410086920819
0.324171603800948
0.334045443280271
0.327558323810653
0.333492729208011
0.32656253688115
0.329743322446015
0.331437435587761
0.329545597103114
0.321874259847858
0.328664133784082
0.324955849872718
0.326422916304757
0.322294208608816
0.329852750396609
0.316893736513962
0.32263268983397
0.315417553054997
0.321335363255001
0.321366742585171
0.32044936210644
0.317045544463176
0.326043913079185
0.316566435829556
0.322240705451207
0.313195934586427
0.319275893390143
0.312824495396011
0.319123413577624
0.317337097673311
0.320010852177005
0.307076060393276
0.313283702987731
0.308650513513726
0.309917625454902
0.304742364626316
0.312758208824832
0.31144485218664
0.310646724111255
0.307103089656728
0.308754277677333
0.302315625883782
0.307766711239388
0.305682956828895
0.304287690970481
0.297056048054077
0.304583913750808
0.298944955050118
0.304464383610612
0.300610530656231
0.300953056278777
0.292218134429476
0.298128036074747
0.298815853044184
0.295930167160647
0.291242016948054
0.296541683858964
0.298154127832835
0.297929050358391
0.292785642759202
0.296773536111472
0.28878703647672
0.294353279968192
0.288341154386868
0.289693599774643
0.286461681122834
0.286100653718278
0.284079999121804
0.286329289748085
0.282412212653447
0.28689392749095
0.283308634825459
0.28387532295376
0.28164857535525
0.28206055282579
0.278060476738492
0.281003004306886
0.277910235183307
0.280731147598157
0.27393015633062
0.274850936951051
0.270873842640388
0.275605335755985
0.269218101896182
0.275040741024288
0.268057912814268
0.267435352460854
0.264572127521755
0.268259411320957
0.261747268166469
0.266110684651555
0.265471245452339
0.266119936624899
0.258501978171892
0.265152889139929
0.25886573682887
0.258335507726654
0.254734639484786
0.259596645714296
0.258437173391287
0.256210015167703
0.253891234680969
0.254096386312608
0.249051225790831
0.253715288642276
0.250770069952178
0.255417760892332
0.250110117836279
0.248294369859358
0.245789760250231
0.249603937550527
0.244234148516776
0.246058930561722
0.246728612662122
0.246299758549828
0.239560619123374
0.2437656656356
0.243018749438293
0.243651516868969
0.234823437195025
0.238124297328607
0.236405534166705
0.240720132263973
0.23369693339406
0.239787540255616
0.23645362513622
0.234629389482676
0.236568450677322
0.236599543738235
0.228344813707993
0.231258164377552
0.228319910008053
0.231313020504307
0.229529338187594
0.231677327895571
0.225017329977557
0.227903845497291
0.227441298848449
0.222819833540569
0.222395274367212
0.229511557294017
0.223017941356602
0.22537660624064
0.224157824198395
0.224350585626948
0.222730196905429
0.224507652665608
0.221141563249375
0.219355916262434
0.218175472690083
0.219203673282169
0.215890868446459
0.218346140469748
0.215108735808056
0.215989973008944
0.215139782900957
0.217743077491698
0.214988579464661
0.214257874699392
0.213343161631031
0.217472967139738
0.215716961356715
0.213527402162301
0.209049073370648
0.211407739608262
0.207468334940538
0.214501249956878
0.21329404069098
0.20922413080453
0.20979575420721
0.210836395408931
0.207435253128202
0.209219229800278
0.209617872717859
0.209046373162461
0.204893040644296
0.207501910674455
0.206756146051858
0.207036007746336
0.20601624011507
0.207453995200634
0.205995485984837
0.208308759891038
0.202522968395481
0.2057096048087
0.203553872057465
0.206466412650032
0.201356109074126
0.202358410305406
0.197750082903042
0.200191915383696
0.200361322577656
0.202215425017364
0.199933831295146
0.20298967848723
0.19877443427658
0.205729078787431
0.201771996800663
0.200376469023649
0.197585660374686
0.201062324619786
0.195013338304928
0.20062618128069
0.198363086380612
0.199570392822295
0.192430637367371
0.196096146911944
0.196682412873994
0.19996518033673
0.194540043205084
0.194478863027103
0.191822200145239
0.194698851089752
0.192912925050795
0.194883513165901
0.187807423131364
0.190341570878558
0.19081352747854
0.193887130300371
0.187811324853001
0.187336599063445
0.189456883284373
0.188789086496989
0.188071210907476
0.190904597366374
0.18669018237573
0.191040351377458
0.186089017813654
0.186953013008982
0.185886132867825
0.188546464069169
0.184393765253436
0.183873425221435
0.186034823910727
0.187803678311469
0.18199752569282
0.190625126895422
0.18432896962742
0.185112691605111
0.181019719613382
0.185170485431746
0.180428570866006
0.184467412991597
0.180497355065946
0.185494435573512
0.179438875668614
0.185147928346157
0.181273252483696
0.182321711946385
0.182502176795682
0.182238673929704
0.17710815082182
0.178792920978814
0.177891151764123
0.179865461965538
0.174656749836317
0.177209511035761
0.175046332938989
0.176695646980279
0.174850986925272
0.1782699226965
0.175187364004514
0.173401036001034
0.172589924102399
0.175598212597872
0.172682402500615
0.176365147676853
0.172923143440852
0.17493763723571
0.169285859128288
0.173150148824318
0.171466304044317
0.168264765901947
0.168586421014608
0.170064269440802
0.166817840043627
0.168008095815411
0.164800974927088
0.165657533190078
0.166724689244204
0.165792574025729
0.161088892732784
0.163849810457263
0.163238496130087
0.162652949795822
0.164499606783057
0.162525431894678
0.163307102455316
0.161693401592818
0.162720182860392
0.162295283270509
0.158808190600287
0.158221457070576
0.156571228715318
0.157985661120502
0.156241832994314
0.15585360158908
0.157483623815733
0.156491307290756
0.157371368026624
0.157360046844195
0.153308442177248
0.15595480440485
0.154623788236364
0.155342964876867
0.15339456129721
0.154224272475321
0.151220735676398
0.155124529667927
0.153752474140937
0.15243407504745
0.15132881023896
0.151912706725277
0.151276735525675
0.152296915685209
0.148701454905434
0.149459383558767
0.145564516027898
0.145305437271499
0.147399561302909
0.150622984094555
0.146562889793163
0.145056205097892
0.143163180691197
0.144579676402968
0.143428867263539
0.144088568930704
0.143241513541697
0.142386074272049
0.142871450598306
0.141786017749838
0.138359254846725
0.14237632315177
0.14100960627838
0.141959997283441
0.139404446469402
0.138060892765195
0.140593413075815
0.139452679438566
0.137814930352736
0.13734281681833
0.136212185539964
0.138332462065446
0.135577682966754
0.138062581581273
0.135489919967171
0.13432761673514
0.135199236427818
0.135511943451366
0.13532766772609
0.135633200572584
0.133723901686561
0.133562784124718
0.131614239896916
0.131235130927204
0.130966157306603
0.132929518391005
0.132902373039302
0.132768087366928
0.127841349415819
0.131878896489864
0.130373590544589
0.132962955254718
0.12881103429186
0.12982203682675
0.131689572817093
0.13021875207977
0.126997194058463
0.131543055717649
0.127685689436405
0.126979507564417
0.128092500379843
0.125851262499593
0.12622274579102
0.128653442329688
0.128967283258894
0.127184361400719
0.12722046759234
0.128468570618889
0.12510700432871
0.130890595740466
0.130430980200814
0.126892846536083
0.124828706918216
0.132578171408544
0.127671603340872
0.131790871651944
0.130928360829913
0.128385741002197
0.127503938924573
0.123809076451533
0.126035083152453
0.124770650445526
0.132753906769794
0.132071938452742
0.131136138898267
0.125306207480593
0.124749067477536
0.128882174431396
0.125007332813341
0.126792332503361
0.131473038233346
0.124609316238169
0.127896755034503
0.127965578614537
0.125348886661226
0.133402013007637
0.123418428816984
0.127838380121372
0.127659113321389
0.121621156896764
0.132407579914867
0.120040604247124
0.121009870034261
0.119183471396606
0.13085407098172
0.123262780784903
0.128935059257869
0.126049069933628
0.123616544342395
0.124626510834291
0.124909225749169
0.123894998783459
0.129177829095301
0.12311376666557
0.127399146048434
0.122059665066411
0.115233934276513
0.119927315214252
0.11014821518823
0.12578266538187
0.118553084966381
0.131573484338873
0.116680230645817
0.125893736420959
0.0982770632375732
0.136158333185443
0.103261180973487
0.145243040945678
0.0934584400239542
0.141391676467957
0.0887095346662607
0.154060692819471
0.0844972090198995
0.144800533188377
0.0856142783342678
0.156516668381736
0.0832531395704397
0.143377984883452
0.0927542734544003
0.133628635456434
0.0996207394875078
0.134779423477041
0.112154057926513
0.119903679845488
0.117341328962579
0.112998311535436
0.122223355634388
0.112943515003507
0.117249136052414
0.112674001853081
0.111221812975747
0.117934772140545
0.111587910856503
0.120050616149766
0.108966167184998
0.117008028937372
0.108696716994107
0.117045462631727
0.112182700945522
0.115893673640482
0.112254711710148
0.114386112655036
0.111384133291113
0.115383474665762
0.11023228447637
0.112664833676865
0.109930599519008
0.114544404933659
0.109028691088362
0.116582025033413
0.109812484330721
0.114054889574546
0.110393312756541
0.114670037137243
0.109673511179575
0.113226362512322
0.111289583404645
0.114143785530992
0.111715969304984
0.115620040705295
0.109787258802645
0.113916853126096
0.108622131827031
0.115139543725283
0.112162519542855
0.116730519863118
0.114038359743919
0.116598646861494
0.111330354840625
0.116235445124025
0.113244398793857
0.116236306708213
0.11431729091561
0.115254928903115
0.109907276514061
0.113858407784434
0.112962527362581
0.114965912872521
0.112512272102342
0.116212742823
0.110851066794413
0.118084294131735
0.112494471250177
0.115504977877851
0.111311139079339
0.115031528049453
0.112831291619783
0.11168739680617
0.114151417351357
0.115539268256958
0.110098874538589
0.115597013054031
0.115579830120461
0.114488269860997
0.112202325312778
0.116987914564636
0.112137160157012
0.114948718410984
0.115330318005314
0.113681604041906
0.114786122331925
0.117118245612288
0.113519914494977
0.117899017490979
0.112960054722657
0.112933296297333
0.11140943337843
0.113095138852112
0.113419860115928
0.116411480824046
0.112811951510131
0.118128225777696
0.113661666101728
0.117952539582649
0.115079637456762
0.116950300196037
0.11686856941438
0.117322288620254
0.115597184477636
0.119941876452767
0.114517786607133
0.115326932779115
0.118626855805257
0.118060007099613
0.113930933278146
0.116161039601283
0.115422605379351
0.120800214542933
0.117132645252716
0.118628486939618
0.118499522325067
0.118788001242715
0.115380398425333
0.118460013244594
0.117145834631549
0.121138830959071
0.117518474427319
0.117620698634787
0.117680593545978
0.119461792542807
0.114335649765664
0.117291887773985
0.119814362909278
0.1228832392268
0.116033619103403
0.120337098857362
0.119531342411625
0.12342867303921
0.118309184725667
0.118048716046961
0.118728128637831
0.121903212389994
0.121143845814232
0.123457718835435
0.119974482748219
0.122188417127127
0.121265173666473
0.121633251567089
0.120656525281094
0.121755852883839
0.118704259740738
0.120369183535033
0.117674507390495
0.122396415158257
0.122240718093117
0.123541187672147
0.119236377836828
0.120065605452282
0.122964645164471
0.124748423312741
0.121971324756056
0.123657353676317
0.121054549605856
0.123734893116963
0.122412752413051
0.125909248218296
0.123426815827225
0.125288726509555
0.124299795093963
0.123505875307939
0.125323165716891
0.127136490423084
0.124343860149384
0.123590389715265
0.12318344929779
0.126674588354781
0.125354487973563
0.126823716320399
0.125301024309807
0.127972566661873
0.124270112551819
0.125081556893648
0.125003851424594
0.128131707898722
0.127910764080645
0.127478747738052
0.125147941739119
0.124203836310711
0.12436037589914
0.12694655678261
0.126137520195557
0.127601290447971
0.122150714335901
0.12600631124941
0.122202439536557
0.126374701241118
0.124407952494257
0.122786627036898
0.12257888481914
0.126635150912381
0.123777771207093
0.125173487549446
0.122812023105235
0.124060016521605
0.121859648275884
0.123683829750132
0.12432834818481
0.124270630542467
0.120644733477355
0.12305117414196
0.121158843856048
0.125323791452054
0.123151973697726
0.122422513200841
0.120894290404515
0.122362057488188
0.119887112836026
0.120443105139738
0.121625255382504
0.124108465281867
0.118627263516657
0.120605605615913
0.119987890060155
0.121851425939881
0.121426742509976
0.122254240048511
0.121384766181105
0.122267057974376
0.118786253188599
0.122312904389961
0.119105877367324
0.118955597883347
0.120612249867408
0.120446877726739
0.118282570731947
0.118092307733237
0.119305197949145
0.118762270965646
0.117770835310948
0.118290814442144
0.11905466571116
0.118252685506639
0.115905087615368
0.120430002540487
0.11880436588039
0.117933772038238
0.117829882025874
0.11923580207017
0.116597890459502
0.11698220933565
0.116709459561341
0.118962840769329
0.115604726652006
0.117352910321116
0.117568522436218
0.118118191060558
0.115353239421146
0.118133170513589
0.114733250408297
0.117378573830005
0.115082710105869
0.118888445189387
0.115098318191594
0.11691017682044
0.116977202679783
0.117989838786861
0.117272046663923
0.116756785220782
0.113927011247866
0.114839570225303
0.116481157369776
0.115182368847661
0.114000698486391
0.116872363587173
0.117539990422585
0.115526207144065
0.113904119725186
0.11791440032116
0.113405798005289
0.11533341351775
0.111716907429322
0.115333527779742
0.115888789826312
0.113325012728398
0.110310714303695
0.115245007918259
0.115267614381319
0.115161073359207
0.114005890549253
0.116033657892223
0.114190098756961
0.113866802686464
0.110911204722369
0.111123012077616
0.112973763868357
0.114960846929559
0.112117772825102
0.111364488249614
0.109513844046935
0.11044888597161
0.111736565509893
0.110339358917392
0.110278008569099
0.113771055586396
0.110121916372118
0.109219750641666
0.110124653744777
0.11030479629438
0.108184753287749
0.107346394840184
0.109905593129394
0.110492932355042
0.106199930828338
0.108526072856148
0.108026588621776
0.108392293353958
0.105850414875723
0.103980130239648
0.105002910037145
0.108420350286515
0.103164586988408
0.104836903662168
0.10380756579898
0.106996483236788
0.102701180847383
0.105211794888702
0.106209359450731
0.104704098384102
0.103826896564996
0.100489224445047
0.104519232602844
0.101732328798177
0.101949387354564
0.102656085906647
0.102872031025349
0.101697582034402
0.101059947069366
0.100421600373834
0.0983492201888704
0.0989094154065297
0.0987975858004998
0.0978908344418589
0.0999538796507457
0.0982724041522499
0.0976296701437703
0.0988312277825874
0.098112112653315
0.097314186058308
0.0967635079734753
0.0973360748020568
0.0976028871239573
0.0980089191758722
0.0969036263677663
0.0958356963662495
0.0967254373385455
0.100547842636616
0.098520723398371
0.0974985828555077
0.094302770238167
0.095427021970714
0.0938289084329166
0.0963239601634505
0.0942505042336689
0.0979764824454552
0.0942314211841103
0.0955488713332301
0.092201050700146
0.0932858628868495
0.092624870385513
0.0955979742250914
0.0940914486030889
0.0946650887856532
0.0928492267960676
0.0928098840751796
0.0907987183803414
0.0923324880067964
0.0924807151638655
0.0936264846686356
0.0894450126222833
0.0925389265510022
0.0910167537038164
0.0964000837762521
0.0920901697597327
0.0930830710202119
0.0887547517902405
0.0921310821069059
0.0913094574889117
0.0925680283042306
0.0898291180986154
0.0928989213334623
0.0910663167807872
0.0899752236219861
0.0887909073417896
0.0899379637383966
0.0869048187164401
0.0898642697851401
0.0887941827279055
0.0908214101565013
0.0890435408578993
0.0913440206179446
0.0874689698899218
0.089554194843103
0.0865436351920321
0.0879044984773743
0.0874715096381975
0.0900049657198624
0.0855466009297463
0.0862441077055217
0.0909423824203481
0.0870442232462437
0.0921317942937363
0.083665968803748
0.0901666199197985
0.0870389912637888
0.0879208848323687
0.0858840264606067
0.0872103280027859
0.0841413442666432
0.0853981151864178
0.0857133798433516
0.0870615912673338
0.084084454043805
0.0860245873273914
0.0859485416382869
0.0876266322782886
0.0846196834284932
0.0862876959025992
0.0825100461270812
0.0863647868633577
0.0861793045805811
0.0900359965985659
0.0866625351061614
0.0876723794538811
0.0822633876066967
0.0938777633742789
0.0852507472909549
0.0903625255524776
0.0833785634775025
0.0836475527158788
0.0864687763749299
0.0845666857055975
0.0848407751891755
0.0836794468029674
0.0873083354733239
0.0838099628972122
0.0871703107571669
0.0813755200197213
0.0866090851133715
0.0829371629029204
0.0846954081382615
0.0834246357900056
0.0879469455216632
0.0870081577149013
0.0836230405237644
0.0833064508674881
0.0834678102929804
0.0838588786397611
0.0843265722609313
0.0847046237753769
0.0853977153109579
0.0852416472010905
0.0839577849193055
0.0847352960436881
0.0837655222947439
0.0831489263062917
0.091881704250899
0.0809404513136425
0.090813653972091
0.0788526559502089
0.0873382864454656
0.0801807329847696
0.0862802955745462
0.0812071008502525
0.0836960036247103
0.0822736758637931
0.0824013950051193
0.0844092928676725
0.0844266659805698
0.0824938039163252
0.0840139676267657
0.0814667491512511
0.0821695541169535
0.0836187625528257
0.0841944158014754
0.0868100191035128
0.0797277705598817
0.089539538683643
0.0883212662836493
0.0894942642846356
0.0916403051034192
0.0808657279503762
0.0874042346497789
0.0827552020501673
0.088420569029632
0.0796536736890843
0.0878890876439439
0.0832391769965385
0.0868636094428081
0.0796945756628383
0.0867201504672354
0.0802797503047792
0.0877822099907706
0.0799399699917755
0.0872035183046602
0.0776163727256133
0.0897219979993925
0.0774000493120006
0.0882373416205265
0.0756578627046932
0.0901253432477584
0.0811258203305913
0.0954037209052907
0.0776432420927851
0.0957231965928644
0.0917435205592058
0.0877122540613591
0.092454786054225
0.0771713169916186
0.0894611651241232
0.0823174710927977
0.0869852523969024
0.0883089712062027
0.0864437412619214
0.084086642627215
0.0877619943346008
0.0841808517971447
0.0897427927064465
0.0809604702643833
0.0889464315364241
0.100580729538403
0.0908693749765216
0.0927742816933503
0.085166524098838
0.0822790334902476
0.10366582240389
0.0872349847674527
0.0916274810257575
0.0846219994171564
0.0913173375642084
0.0905343105640508
0.0877212333977836
0.0864996552602654
0.0905599709975503
0.0916388325486865
0.0871442349622691
0.0906805826106928
0.0858647253801053
0.0921349832997762
0.0865330285006499
0.0926835109670124
0.0929217455352278
0.0900842213691012
0.0920171683324771
0.0906665211430862
0.0915580040827838
0.0904564321522964
0.091841722179294
0.0918433629386302
0.0907860951553419
0.100336584913689
0.0914243492388879
0.0992059693120856
0.0962489236961933
0.0920800964094635
0.0938780407396013
0.0920929712051352
0.0994693056934187
0.0925418710317652
0.0908408268540051
0.114356575584831
0.0852474425166864
0.12244264112281
0.0864042353101413
0.107301255203672
0.0882503564114549
0.10590471117097
0.0836413597734431
0.108591464389005
0.094092461354628
0.103391934690322
0.0909553768828883
0.0963170336339136
0.101846136796019
0.100101313476038
0.100503212041641
0.097618742519272
0.0989235674878018
0.102836056553454
0.110636925818204
0.0941485156394567
0.120084946096706
0.100790886884636
0.114776297375559
0.113103691659962
0.0936251381140551
0.117543561102896
0.0977908875767548
0.114557810638976
0.104106036414196
0.106095648551285
0.105198773455133
0.101018799862696
0.125733800074755
0.11447496006186
0.110990062100322
0.115264812659954
0.104604776433358
0.122189628874204
0.114705716493851
0.115324898688164
0.109495451317277
0.11724493478377
0.106020416098043
0.127569448013605
0.12742066510965
0.115791772074695
0.135696848270304
0.114270337580525
0.13631781445918
0.117236050783248
0.130794777819771
0.119292507697066
0.137419928016273
0.126811358523976
0.128400358295158
0.122649363607877
0.149849622359182
0.12250328100216
0.142174791044264
0.126549592734644
0.13461403602323
0.138539432682569
0.158701684129653
0.14092173600612
0.152720658661514
0.138525745370637
0.155495029718728
0.141851287435173
0.150789205285929
0.146971896275521
0.149234252342143
0.151055944528257
0.150203592117336
0.154284639171971
0.158011068794664
0.160337565873907
0.162910367911749
0.158501879942857
0.174228354800723
0.16883401557028
0.198098244493925
0.159813014154038
0.190339748497586
0.167479573461806
0.184878688068099
0.177869052122814
0.17545233904257
0.181898209786746
0.181112506960678
0.186615482569162
0.185174950266032
0.192742510836066
0.207568145769168
0.194105470165773
0.225348723287256
0.193824987579608
0.218912676155021
0.194313391109814
0.270245822180614
0.217543132451079
0.244054153958333
0.230335534073202
0.228942789273194
0.279306323997625
0.2421003321211
0.261144015000054
0.260007250966525
0.265783330188641
0.275122182135306
0.283481446206465
0.287175225204576
0.296699665892595
0.307764377928659
0.30779633201744
0.323720709515434
0.348607801908576
0.351010541298023
0.371736350591608
0.350084084444559
0.364912788856536
0.375782891376022
0.377622496330984
0.381300665512969
0.402553724434774
0.390659243442834
0.449883576989597
0.430406721973232
0.447612554384165
0.421568866795332
0.466861320270225
0.449432690291603
0.473672358963461
0.487572421147642
0.490114259441924
0.505873472348297
0.498397652749834
0.524347885149267
0.507521883132181
0.541746266755706
0.542712327988278
0.561881502318575
0.556866017615251
0.568751376391777
0.571445728375115
0.580038568284777
0.592832726288267
0.585709716498849
0.592892538063939
0.601772409013538
0.67944618906564
0.747578030988082
0.61604209502888
0.625182765567716
0.601094675508625
0.627347464318458
0.625985118554138
0.64745661248122
0.659150670257848
0.63104565130909
0.639724266418662
0.632753372081654
0.641558437757336
0.629105591265807
0.648885967003517
0.634852514651897
0.632138652158874
0.673869146399277
0.627931244580253
0.725240403759564
0.65599540462614
0.652157203621178
0.628476659597573
0.649369782496159
0.631059441550345
0.645993985090236
0.615940240180637
0.652092035298516
0.628112689048598
0.642817477158369
0.609889290565344
0.613907924740788
0.623606244642651
0.623321274270586
0.598989953213182
0.589653796275026
0.589959971760432
0.58983225040385
0.5561284346013
0.62677020652105
0.580392589541758
0.573480293811231
0.551755880557448
0.554170413228621
0.553997488634831
0.545652794628259
0.543307800429096
0.541091014046959
0.534353867304551
0.537897513929858
0.530955713879498
0.532378261405657
0.520905879787981
0.521072093026564
0.516227919351982
0.518050818163576
0.515764153345991
0.516217338858315
0.509487470239036
0.512723200843231
0.496152265622889
0.512377198860606
0.50476952603432
0.505601039401514
0.501314585058532
0.500528422700102
0.497272932547238
0.501448908866814
0.500556967632647
0.500680589882013
0.500475028386185
0.494558751691383
0.496034852608948
0.497786057265803
0.491137640787309
0.490415053358747
0.487727084558869
0.486135639612823
0.488601197760365
0.486419290948021
0.482840386406691
0.476366237042151
0.496874833403114
0.527456810770247
0.479175649965773
0.487469228146925
0.463771087933192
0.490233728146276
0.449173208506166
0.475212354186725
0.489895877938621
0.46665000895114
0.461629560591593
0.457685059606778
0.454981151610454
0.472500876642857
0.446528985756689
0.456496837205305
0.437830427291063
0.440817149637432
0.48204975200409
0.463062070511965
0.532172000031418
0.44658447323851
0.452627925766511
0.416878257631964
0.46048859670408
0.431416169442129
0.433953171159841
0.42246006157131
0.417078929280528
0.454246683591162
0.419591264612089
0.426909494128857
0.410846044426485
0.407179307017865
0.430970164037883
0.426994500675879
0.411720201116435
0.431178190801048
0.420234272530179
0.4164130361501
0.433160417856901
0.432244993574493
0.389442107458647
0.386374772842489
0.392190175024503
0.387000962070514
0.391969726326616
0.400671127891376
0.375432435574605
0.384531225937063
0.363040842903481
0.375329807586935
0.362697519157213
0.379548510636189
0.34745201039643
0.387341862388234
0.357315525369851
0.351993052278812
0.363215928376885
0.342787807504005
0.379709490352004
0.356658226604348
0.353487017616323
0.333354183104291
0.377694364609661
0.341716750779747
0.346514981009756
0.338880800873853
0.321984734219699
0.339765603691159
0.328170204407002
0.315465402210155
0.335920184634832
0.317693962381538
0.331251868796556
0.337762820323773
0.344352267893228
0.33486555237123
0.306748148847476
0.310611327646236
0.306401208372195
0.311144967558412
0.309185465787355
0.302345323066419
0.350235523460232
0.297757088359966
0.322560310361528
0.316099588390085
0.31454062153921
0.31200298047105
0.310005928126431
0.314040615571971
0.324737749798016
0.32686630181528
0.342733524442656
0.319566033498444
0.350199815856481
0.336448312884558
0.340777368358694
0.337522407785467
0.349062556879706
0.34751651072886
0.352421887281132
0.367300601805447
0.365882996912208
0.369080325714306
0.382534279332901
0.374045878124939
0.418284823404172
0.398155477185463
0.413544087538534
0.430862554561734
0.423391753563678
0.474743428020849
0.433488960160848
0.452684770195165
0.444147874360502
0.460168533589351
0.469266477828495
0.467252621792782
0.488702712457345
0.481889625262345
0.48476135416515
0.494804698973701
0.496260183832985
0.505637130157364
0.506212775821003
0.537639276735922
0.505388754405597
0.585874360717452
0.523651301019387
0.554813999106416
0.527470052110427
0.538469304768528
0.530825693981157
0.546514211551815
0.541874711178903
0.538398510598964
0.546760546789259
0.570858817460262
0.542797170313563
0.563442262972084
0.547577930921259
0.56704048067078
0.564944919813967
0.569771744484469
0.565792610643877
0.573935269843487
0.581561527961243
0.582345027431362
0.581125083460632
0.644069766440505
0.59443001760723
0.603752657535488
0.588305113598444
0.618953062198799
0.600418206755065
0.623099107633313
0.616210570897436
0.619891544422661
0.628567852802276
0.634976689126421
0.63051490064092
0.635487297399654
0.635280080365133
0.661564902449931
0.64238821831461
0.661319601742461
0.628083648907758
0.715396495385413
0.645337950580127
0.683259099384561
0.664142287453052
0.67042082939675
0.663578974466963
0.67199319575441
0.664208640134922
0.674409779460124
0.680788725550661
0.693096951238679
0.678410983310746
0.68052476471258
0.682177318915223
0.673700326374206
0.682226038892961
0.703445212023031
0.663090436703339
0.681338154597484
0.681200551766928
0.679535709389355
0.669753569205382
0.694813287311112
0.686643256896234
0.679581309567762
0.66654080593363
0.689087167232018
0.685812985991443
0.690472833004035
0.663090582065622
0.686465835949556
0.66401756983982
0.69090302983646
0.666101807806472
0.70216395550008
0.707410091061849
0.691063243437452
0.694474550540301
0.693309905657844
0.694891048431267
0.705883884798336
0.703688076381957
0.705358872218388
0.701722336321071
0.714911051961797
0.712898637288798
0.716367397439898
0.726386619557419
0.712529946688484
0.723081894144777
0.72156496534073
0.702013465223971
0.723176503376916
0.703499065659463
0.711813324996301
0.709062920742911
0.713900793516208
0.696060162007874
0.700856661510221
0.677846337360801
0.693063313725143
0.693159509148573
0.678090148820729
0.687291492355948
0.661281359478093
0.669766666650108
0.66007800553138
0.661272517796754
0.660426024766389
0.652323540421197
0.655017070952782
0.637689881274443
0.643308842444517
0.640107405331177
0.639104474724096
0.634511657913845
0.633880220418906
0.633205319141147
0.63573388379503
0.631467500050419
0.627640207923205
0.626877491486765
0.627538655461339
0.633394681262849
0.616150223850738
0.636474451597858
0.628281253664373
0.633953025086816
0.620146695437447
0.636008733029749
0.628708299204029
0.624971967611693
0.632034962163478
0.629801041143088
0.624841556495495
0.625387572803735
0.626046955452282
0.618848827278686
0.620844512761398
0.620233818810081
0.622162184979843
0.623540218604475
0.622930031930605
0.620009939499589
0.620936843833605
0.614537524348914
0.621479851460056
0.607813096650204
0.620244518581067
0.609586320880437
0.611519383672742
0.612126154762012
0.618108777185191
0.613523917360298
0.610706373315438
0.606834173138729
0.612766112261868
0.615979506009623
0.618910628223564
0.60993340727293
0.618129090685333
0.613131853264522
0.609986270829095
0.606461569322811
0.606431729887301
0.599347143054024
0.60487021469969
0.5881529382788
0.593808567967514
0.591995171243864
0.594102729385238
0.584521758621645
0.578403160741726
0.575359153766252
0.575290206376626
0.56465947980753
0.562194843537024
0.556539341793933
0.557125151731712
0.552249303032997
0.548336203328446
0.549113330467904
0.546527503609977
0.536050197979031
0.543983536676829
0.538518580778111
0.543157647007905
0.53586014619278
0.537064701523167
0.539525896871164
0.537489574395503
0.536302629344749
0.539505235720075
0.538907420957427
0.54036519258618
0.543127100756588
0.540105105280482
0.542767838258705
0.547801165985867
0.545691616062999
0.546707050920586
0.554432171851521
0.550282963471007
0.552791083525536
0.553867303214176
0.557857293701723
0.562274553187736
0.563133860056249
0.570166700383219
0.564045503709782
0.569450539790153
0.569658082952982
0.567847696370264
0.567909945524514
0.57516085216929
0.5682424291258
0.574402486893763
0.565914534688121
0.56830977916682
0.571146678245568
0.567831309785526
0.561559544439231
0.564262729458043
0.562188159710957
0.560754344878749
0.555148848714421
0.555734757606578
0.557320901071754
0.55143417142171
0.548967665935411
0.555292152477973
0.550407162758332
0.544422616942721
0.543559314451813
0.544426435817305
0.536455394025582
0.539258622769348
0.536929208315591
0.536016708792946
0.52857808555188
0.535024303068573
0.533170764168062
0.527730967600219
0.526798084877234
0.528001739715098
0.522298318396964
0.526193005936201
0.523916162402638
0.519916621720781
0.517899345258057
0.519387831686462
0.516289175287746
0.516821813045499
0.507489620092053
0.505158290021013
0.507168289300447
0.502565925545206
0.501074749342102
0.503114231378574
0.495940045135315
0.496004067937077
0.489662561888481
0.485638025719191
0.48185437181973
0.478192618807964
0.475073322388543
0.475962876257277
0.468822146570021
0.469716893028296
0.467427939044281
0.467324233727138
0.464307821973837
0.464206467467257
0.466821625720965
0.463153298330906
0.462325689519951
0.460156033888763
0.459290028368644
0.454881532547187
0.449871147079458
0.446917798266899
0.445334200859554
0.440054730930809
0.434163638436772
0.429158660377435
0.422942369880298
0.41634437080626
0.412749306125097
0.409700547056403
0.404617767856301
0.403470197979642
0.401265125606885
0.405477374533153
0.403972460639103
0.408321544170023
0.413673795244823
0.421470729353993
0.428919486110273
0.438485976127356
0.453130261044842
0.468590950897896
0.477054318747178
0.496782522463637
0.518281713339634
0.532735648803914
0.550182240227076
0.567262996225177
0.587762693354763
0.60463473545233
0.626410937396325
0.640755760060411
0.65749638283507
0.678650353139269
0.691390832271336
0.712474231109855
0.726942145242999
0.747809345966357
0.765459426998517
0.793172829099503
0.794089779928667
0.81304013784532
0.817808462929544
0.831168934624882
0.843763980573856
0.856144711137451
0.867082448344854
0.878362113633193
0.888258411959547
0.896684005150109
0.895312398372588
0.898772737067055
0.909271255036472
0.906031074935548
0.910705806140667
0.906081037302827
0.906407247055716
0.908216108261383
0.91152488416336
0.914072389922664
0.905741487146133
0.917229505542017
0.909375776824819
0.910654787384486
0.916326723058515
0.921724804379679
0.929693269982955
0.934957991505436
0.929291215951319
0.939034128952884
0.94946159344272
0.953512990591595
0.963059464030878
0.974613878498086
0.977140924571471
0.993203597780278
0.993158883681061
1.0098581465133
1.02326851711564
1.04233873996079
1.05075679271408
1.06758552671443
1.08383471588607
1.06895186980193
1.09327279257917
1.09696409234438
1.10385867451604
1.11693378484659
1.12297021617023
1.11825785179358
1.11786024863546
1.12134086406024
1.10966196625085
1.10408141650321
1.10550958919786
1.09447205074158
1.10618406915542
1.1002909720888
1.09980518733618
1.11330107917829
1.12389443544142
1.10740447416509
1.14794050790097
1.16697874731276
1.14959975256655
1.18917252769172
1.20000404214599
1.21068980020835
1.2423727204796
1.25361139791328
1.26296560732895
1.28474313966413
1.29509383331099
1.29816953621825
1.33812861701329
1.3459575741256
1.36690165435371
1.35140344142018
1.39089900440685
1.38449221443878
1.42354211997789
1.4282437414755
1.51801332046509
1.51099415951207
1.53673214644599
1.52531737935579
1.55743556509828
1.57042425278818
1.64394107082177
1.63129147688102
1.61980334275298
1.6852069240051
1.73802363947157
1.69315033035607
1.77042429764159
1.69896740774644
1.78500811697746
1.79486009603011
1.7662852574688
1.78470628915906
1.83591506934759
1.81077932514516
1.78236879082493
1.71699345492999
1.78146651948081
1.74438139517547
1.79629398951169
1.77777000391912
1.84814983724307
1.85683788506793
1.79402404484522
1.7936781364622
1.80988343924352
1.77358453545906
1.80965298150664
1.71497121622051
1.80364515402067
1.83323309127827
1.97968471239374
1.99680068312916
1.89222414797317
2.01229822342512
1.98766886403231
1.8582619994198
1.99315037293528
1.96897466730248
1.8864576495288
1.86470441365093
1.98084252346783
2.00931546168242
2.14373219678864
1.90862281904602
2.52366334504376
2.09482699841979
2.04152271616601
2.12743715008397
2.3273049747483
2.20200536964883
1.98792446733806
2.06819451701071
2.01396703749445
2.22966969356599
2.5256487376448
2.08585775418289
2.06878186421201
2.02880654754914
2.18988435509867
2.08076625995318
2.38015267577819
2.02061143852551
2.41050147294995
2.20258597884005
2.27495499234218
2.03055606589502
2.06934146951214
2.32422511315296
2.20843901496962
2.02953640953686
2.06609146866537
1.96943500430068
1.98142162230049
1.94244244639136
2.08664212901606
1.97741474083961
1.88712594582705
1.83980871572455
1.8264218259921
1.71151009436609
1.6657295360308
1.72086343066316
1.64695604180344
1.6122007167275
1.66260485518968
1.59361780743736
1.5535922454913
1.53269978653445
1.62576830806822
1.52946052097572
1.53458799702281
1.5187557444513
1.50751178733723
1.50893762924775
1.50622023301079
1.53237051668813
1.51997649585372
1.46936464154786
1.44386712640982
1.37146793062557
1.43841738215822
1.34308574022848
1.29980983675417
1.26323763928725
1.26213042603006
1.25628283852229
1.18114467646642
1.13789092690332
1.12320843235687
1.03576853858041
1.00184354395398
0.966746515064375
0.947037627768082
0.884754494524925
0.858460218793496
0.832993123619211
0.810757786504141
0.770459461988932
0.757949287727574
0.729837267254118
0.705837893092374
0.682241005424819
0.671377011406179
0.652253777655806
0.645132243941801
0.629289580483549
0.62288291476125
0.616677972569773
0.606129155386315
0.59854860203825
0.607607070213572
0.599516989670645
0.591570916605501
0.587728441461357
0.58573355662445
0.593919059171223
0.5963144212037
0.591978032160583
0.599781279025346
0.595600619058411
0.597549810259701
0.598661450154694
0.603306832033605
0.590369786170378
0.59842406165501
0.58577620393913
0.585661748459012
0.587225562388685
0.580129646236761
0.581658374321896
0.582712871924167
0.572727690914015
0.565937517907236
0.557794662305903
0.559527126032164
0.564586163109012
0.566379201282375
0.564054755610703
0.561554495247465
0.567356069313479
0.569911480323939
0.569365142594595
0.570057275752722
0.574301441670834
0.577596715899288
0.577835928829492
0.593022431872792
0.599939863289584
0.593205743535001
0.58777571938545
0.600892066680326
0.600449856384307
0.607895798698699
0.603398057212763
0.611687735230117
0.606021260489105
0.605161639965526
0.60232578788193
0.610039292635383
0.60845655234638
0.607603988069473
0.616521501232909
0.61999416095405
0.603978299239572
0.618169942692964
0.626432105596467
0.622983519810813
0.626792160819069
0.645247523961784
0.646217920660435
0.66856989695902
0.67153810811028
0.692394819577639
0.713810280807282
0.731464531775052
0.739834334044465
0.748305602815962
0.754761020750748
0.767328218074244
0.762347868537495
0.758273908292939
0.743312414912838
0.743516482457351
0.737303553727542
0.742318360029387
0.721702954033966
0.719781772440715
0.713753840349615
0.703324612059936
0.704803664432056
0.703909437797678
0.705798241471502
0.714347787335754
0.701408504692303
0.695927798401273
0.701028150177773
0.710538979090921
0.700793247010646
0.723007886663098
0.714192636815954
0.705948688080648
0.694572118112564
0.696620401927096
0.691678011978581
0.689618908771292
0.684048010608172
0.678692899388262
0.659439241203556
0.662592063752304
0.658377673948184
0.65983001499864
0.661514572171912
0.666209765191802
0.644976560282803
0.65751217441444
0.662358591926339
0.65642895330448
0.655041831750199
0.653103101734571
0.644606920437844
0.645725750831889
0.637701110520502
0.627339906759049
0.624489143886537
0.637412831222004
0.637556072925935
0.639180319466865
0.62377344601294
0.636539020417552
0.623939499767495
0.619152161667632
0.631588583736346
0.654809492974306
0.618253860170018
0.613058667240633
0.622447688861925
0.623278053727533
0.616658893431419
0.615807373370434
0.60847421583972
0.611364902660065
0.596265639071687
0.599734696709836
0.596168666209316
0.603093797994653
0.605380966886325
0.604516041150124
0.591047866321049
0.591349316980038
0.602330006512507
0.604229274976567
0.600699550736964
0.599993412131412
0.598434794745595
0.612577136863936
0.615108161576305
0.605665811204819
0.608563625395425
0.619997575778563
0.600905580361017
0.632608858504995
0.635960783677834
0.637776644973596
0.633283561900019
0.607828563473099
0.618209408425366
0.642286298093445
0.628198580338148
0.628802789139681
0.641019515345475
0.648332916934619
0.671592073435783
0.675024141171822
0.657136461947302
0.671354618536515
0.684457209983998
0.70121701176171
0.696365208093253
0.71040657525467
0.689302906057599
0.692235854752558
0.71932275175443
0.749786528315662
0.769028470419991
0.765253167795478
0.80725114850417
0.826602255909856
0.860820896548874
0.884483369100578
0.866986476394275
0.874162676671156
0.890739615091368
0.908859346546692
0.939936089952764
0.917397989082197
0.921999486320871
0.979635513991152
0.963394825750751
0.985416841880027
0.89907259164005
0.930722733668634
0.961713469943554
0.939423396506856
0.935074639240991
1.00361326014882
0.929361870228839
0.935415351626774
0.922636306818419
0.951277051908752
0.981411954018724
0.977735711753569
0.97333454303084
0.9542816265339
0.919645264644572
0.936689384000086
0.937770260013883
0.959954368988148
0.969908948944526
0.951340868627237
0.93820005896679
0.968661860137276
0.959556575483312
0.951003190673748
0.942047967965102
0.982335382938516
0.890453378039044
0.875483932483412
0.974100307144674
0.91697730908081
0.922543027435697
0.939236644601223
0.884344725740704
0.916471623547937
0.884476127344832
0.907562223086424
0.922011744094475
0.8958008986262
0.903419108052488
0.907530212581303
0.876091157976446
0.923413880085998
0.923649029798435
0.845211170782973
0.881901984541306
0.921497028201801
0.877518723017929
0.969984624734509
0.949408804495789
0.879744554976375
0.871070995304064
0.879664393805441
0.923238060170152
1.00942798800245
0.910319909806614
0.958979005656482
0.999127463593397
0.990691361815188
0.971977173574762
0.902282589013361
1.05911884371307
1.02845974807498
0.903398529202241
1.00312383371025
1.05600358570364
1.13916098605317
0.995272328843218
1.08647115782975
1.0450060562013
1.0345411144301
1.21777876163544
1.01896310207071
0.877947806176464
0.969809030245238
1.20299529523587
1.11582165929938
1.04356028146385
1.12236774341549
1.16519868345369
1.27189283676254
2.11353345525946
1.32384464227224
1.13063554373591
1.47429270247567
1.07927003290086
1.05081275768378
1.06420537627513
1.13890307742392
1.70138298747628
1.16295024057124
1.18275331257594
1.225820755873
0.939000623287504
1.06870697929958
1.00303491683624
1.11249678982354
1.34519974290635
1.13289094612112
1.31753545163958
1.16117531288896
1.01626178692825
1.08209996831792
1.61732915097397
1.26850816141567
1.01387884996597
1.18386386916023
1.13077856227085
1.06830569115438
1.0478671272885
0.946033192029597
1.6167026082965
1.0547164754692
0.802998289410301
1.29142787479388
5
5
1.00504512956708
0.942380406779688
1.24336728241747
1.43179904966718
5
5
0.815191304354657
1.14825762171771
1.31818499120802
0.974950601737944
0.933823284176087
0.985108273954484
1.16090324135679
0.875573009396705
1.46790725745129
1.15018156667097
0.871253617489406
1.13135081154453
1.37021525353788
5
5
5
1.19208360270608
0.557722067373086
0.674468742454724
