3596
4000.36533379555
650.420452594757
1
2
2
0.0512431323267323
0.0707606031966952
0.0419381984137583
0.0734395850731789
0.0531404738605075
0.0693438626922565
0.05723119626202
0.0702412261444483
0.0584867990270597
0.0730294024127157
0.0608816161393925
0.0714684591563199
0.0526008194874625
0.0711276097084531
0.0560705669191301
0.0688806868234469
0.0602030738205056
0.0683524942152171
0.0450423614824491
0.0746827939620256
0.0504496160936415
0.0715366758936059
0.0497799683230709
0.0667075838990865
0.05424967280285
0.064356470840079
0.0593320537346729
0.0701100971932438
0.0503334560969082
0.0710887888227651
0.0484923480168094
0.0698894003626334
0.0503491219588558
0.0623749069967407
0.048327872306819
0.0737773093581141
0.0554336146415474
0.0734518429779151
0.0508700811440643
0.0705044999988676
0.0487980657567684
0.0772036395906304
0.0543486344911355
0.0732823660870314
0.0526275102563113
0.0678841786889126
0.0519229881115717
0.0686974806057599
0.0592225777016578
0.0603377060266398
0.0549133834031739
0.0652947905062472
0.0597533726744761
0.0638657806181696
0.0611958057952972
0.0803888298430321
0.051538476458823
0.0702911621064956
0.0612939073347425
0.0751219771553217
0.0586329590302396
0.0738436739326172
0.0480731415580993
0.0695982395184202
0.0501153012994267
0.0702562364556562
0.0500989496326079
0.0710425366893321
0.0564476477209608
0.0742532682799899
0.0484555595390685
0.0719263722267691
0.0565397993829234
0.0678140461307374
0.0547633100030565
0.0713450509605752
0.0406204405995892
0.066999618417583
0.0607451739497702
0.0672826312199494
0.0425260644306364
0.0669664797363996
0.0467313363519488
0.0632589747857546
0.0535004356596017
0.0728651669904964
0.0368895403735121
0.0765897591782383
0.0535891991742376
0.0631525500917736
0.0503178568129827
0.0658024037373568
0.0479663271253327
0.0665344718950117
0.0505003759246714
0.0646753539138272
0.0430705880285988
0.0600490935946711
0.0524503986946111
0.0695891383461364
0.0620479211669493
0.0735767999360331
0.0574069962516371
0.0783800783632852
0.0674852740551892
0.0672032465892308
0.0543785567645057
0.0637790271458316
0.0541689557351408
0.0642712904527439
0.0458987893289966
0.0614849961877449
0.0529737382099103
0.0630347346289469
0.0531863072029733
0.0833071547875845
0.0501675485704257
0.0613012363968882
0.0465498893709358
0.0524272358015425
0.0541971235872833
0.0822097489030468
0.0467187117654796
0.0573338899538649
0.0547893101564665
0.0547394080300839
0.0539038740773318
0.0819631986344303
0.0500506119882144
0.0534276172333564
0.046269941809913
0.0590437222126882
0.0487448651360722
0.0585004011749921
0.054231453678593
0.0605495463636554
0.0427671461872148
0.075566925641426
0.0553295648830034
0.0713113187250374
0.0510524882448378
0.0596938197786427
0.0529046001176788
0.0769669357379485
0.0545652576279778
0.0561036285318763
0.0439868693200039
0.0681184427827192
0.0506629417239159
0.0549800311651194
0.0457100180025325
0.0624901272285385
0.0510020702375417
0.059059009326083
0.0610878250315015
0.101050246651513
0.0527786926245308
0.0745297571857674
0.0444780261975974
0.0649626579702513
0.0499160238961391
0.059833523985176
0.0435499197139142
0.0541094166560112
0.0547395460925519
0.0663333654309533
0.0479915208238247
0.0649244313832816
0.0451617665562176
0.0678915080003852
0.0457866874558929
0.0675588445370652
0.0643048725777667
0.0641100658052037
0.048990146684781
0.0697151078586472
0.0574083177030138
0.0611871605432176
0.0437059850802832
0.0717652992996812
0.0497919179987648
0.0583537886999962
0.0402629572188211
0.0627141961194236
0.0460411185454315
0.0702239726393274
0.0481939463586491
0.0508959222748143
0.0514231012010733
0.070367372084956
0.0631728730374026
0.0708225515176304
0.0587957341358095
0.0509693879804291
0.042567410357061
0.0688789095584207
0.0627862276827072
0.0682541302342479
0.042967396988148
0.0532794271492869
0.0470664368332743
0.0513326088226461
0.05158649024596
0.0599976312432168
0.0433135942123017
0.073814203191614
0.0569953468275297
0.0619884896501177
0.036073777379406
0.0546252329223634
0.0557287415992184
0.0762379130777913
0.058967718414754
0.0714189486941583
0.0437867971806861
0.0647066111034934
0.0434253386928983
0.0695091096110576
0.0472778516487536
0.0577497273752969
0.0464755552239889
0.0606933534372768
0.0510250953139561
0.0618001472816984
0.0504541827519214
0.0546855353491563
0.0532153423384808
0.059663056506705
0.0489002019428324
0.0610140276500881
0.0521987645741942
0.0646895763913911
0.0467500220587589
0.0523376546666009
0.0487198414968624
0.0641862843601051
0.0573554011071541
0.0645643452006307
0.0533201554342269
0.0625287599439828
0.0434570625731145
0.0613094681343613
0.0570417254904762
0.0577591268483642
0.0517925446013453
0.0725483747496555
0.0598407577183324
0.0613143802813945
0.047917224396635
0.0640244767374738
0.0481439723413803
0.065058315795495
0.0457005604107259
0.0663742073808478
0.0423946986841486
0.0681606547624934
0.0550309726554577
0.0670886076750585
0.0483313826982712
0.0669497486197163
0.0538998847947581
0.0624782482972553
0.053851958483454
0.0675108451500845
0.0610371728947175
0.0743838673708348
0.0441155670283538
0.0674695777959251
0.0467823712089105
0.070621861449998
0.0548715262793044
0.0732427542063497
0.0789519608379951
0.0999167421715808
0.0469642803164944
0.0604951814647456
0.0620175048870768
0.0666155130513317
0.0509957964841347
0.0717450434001608
0.0687160135113673
0.0696781406891321
0.0689632127005542
0.0952167032146623
0.0665513746472509
0.0710501065221074
0.0561564955406358
0.0757205495059251
0.056388695873439
0.0689489215212324
0.0485774059763978
0.0737791404452043
0.0612202021844611
0.0767513443411775
0.0575406169688365
0.0711882592571149
0.0693505280199877
0.077538521526909
0.0605127317995089
0.0745120041817528
0.0590245002120611
0.0722736196853902
0.0556736960260611
0.064361206051507
0.056447700400184
0.0746373062573325
0.0654542806586307
0.0856937435180097
0.0670690454266248
0.0742208426382892
0.0636086243778756
0.0861601318307403
0.0586775062641836
0.0659629686128496
0.0618313682720835
0.0754011915361619
0.061401067081087
0.0753065859836621
0.0763137885646553
0.0865441243065442
0.0664090416797833
0.0714117610968338
0.0682267158908244
0.0719064156878005
0.0732051247686293
0.0770841756051584
0.0676739385220589
0.0858064404416706
0.0685498582146485
0.0878443747555041
0.0925163979401572
0.0872718956640329
0.0831107539706249
0.110716745623655
0.0741346723049676
0.0812091862030057
0.0749521227138593
0.0885146254541858
0.0819059595757269
0.0888334331508605
0.0810766609659482
0.0913300431904287
0.0872884994705938
0.10743537848211
0.0917967281598306
0.101616932704677
0.113618027786777
0.133187218102429
0.0968972251697047
0.105032552492898
0.0864733488267561
0.128901169011942
0.104974963101144
0.123014353756125
0.102609208741365
0.122229938374605
0.0999815516380642
0.119600781235905
0.112246950108906
0.120820895992006
0.11598453404199
0.128514515466714
0.119400189852737
0.12792559231487
0.126923867436802
0.137238540054434
0.135975081737142
0.160544555253381
0.144769768760309
0.147401105170221
0.136565073640672
0.146512379557137
0.146755204986564
0.169299494812054
0.17803099071063
0.189901043831341
0.168541265508704
0.177634176534245
0.160141831839065
0.169800367032249
0.171617669433975
0.186383023855157
0.179536714121749
0.196427661051563
0.184515844714579
0.190677020935383
0.191794909156774
0.202667683593252
0.194979506253416
0.207646010039963
0.201633142046335
0.214130548594291
0.210408955811691
0.221618979639348
0.206623997381015
0.242404524159121
0.247328520692067
0.266974323557773
0.224964998942258
0.245820304611122
0.224786810361595
0.24786206294934
0.234791249251939
0.263564753622938
0.257618548241794
0.268736918109538
0.274884792245104
0.297402558359625
0.27851081201235
0.269729384502218
0.264006540352151
0.295791889559073
0.284607864808097
0.31012797180333
0.295377613328155
0.319640004412215
0.292902918245247
0.326231688527747
0.314738036224871
0.328336598733564
0.320885571516212
0.339316774910978
0.318699867406609
0.327743612651488
0.330907196126771
0.341335222014484
0.328859108218697
0.36374228125779
0.341472564710255
0.364484375968407
0.347085107178264
0.368824585454459
0.35753017261906
0.381564641565056
0.385786923866624
0.388388100900826
0.373289825650677
0.403331090325758
0.380101039066552
0.407339246669624
0.397665178105904
0.437314594027875
0.4210417098809
0.416401291430487
0.404319523179174
0.443039444713985
0.42680324609284
0.431929672874803
0.423973055809692
0.452938161909035
0.447150574472581
0.475022080874934
0.453598198258798
0.474279309095451
0.475864488226015
0.499765037792501
0.472482227672538
0.483343005435387
0.473888206913121
0.493389195164474
0.486566744070892
0.527844188346057
0.540208320685141
0.563821782372505
0.52480416073787
0.52488365762262
0.513291870903839
0.53083212254364
0.519139983526956
0.533798776777047
0.530801511416774
0.572260655417849
0.555521065287244
0.575437320319736
0.554715397798414
0.588098640151165
0.566465987857254
0.592975379079581
0.586796292330075
0.598356520313012
0.570785204129729
0.6018526466839
0.635659262692579
0.645181603201239
0.630614656016882
0.648408557465859
0.640696920005773
0.681037967586199
0.649084955028587
0.652885828420655
0.671435840052218
0.66558352918237
0.652599983256759
0.685917993199975
0.661734834399984
0.670181030274279
0.661443015757044
0.714603717433342
0.687165129634694
0.702564762042202
0.682265664120466
0.738097178219168
0.728976904573375
0.75477627509827
0.710004324290545
0.770698202796528
0.763902188087269
0.719104751752984
0.704899580789769
0.76408905517726
0.764942930621898
0.776260372340529
0.735907936127555
0.777951235153108
0.795671273322241
0.819962333836448
0.805776591118847
0.817898224586281
0.801440562941479
0.835527646301677
0.769046426349071
0.831628447344173
0.840136844657188
0.857089706263867
0.830796893187438
0.869417757413506
0.840172949625526
0.857587558947874
0.906270046798866
0.891268047970291
0.805191589825714
0.887390555190766
0.88577176530203
0.890687066142192
0.889856593273871
0.921730882909625
0.848350634993155
0.927548439935865
0.958086647876112
0.953791900489917
0.944058220590111
0.974223382382276
0.954580510997121
0.951376054702072
0.924988147536285
0.978772049528718
0.95127598587538
1.02622867256082
0.993701435954449
0.931300126496126
0.914505502142963
1.0362384574807
0.997970281301811
1.06256486518472
1.00679814254083
0.964405360079133
0.991189868661378
1.01623205208682
1.02956886870596
1.0661837187283
1.02118072846104
1.06861309166019
0.998570972841208
1.10373611890313
1.114334431634
1.03424039228497
1.00471295634159
1.03327604821201
1.05173259477079
1.11930958198704
1.03767094514406
1.09459782229295
1.16525445703394
1.09506300984311
1.02977368567923
1.06340899896806
1.11166178522973
1.16940807432221
1.07646649396076
1.20659955375145
1.22829089546576
1.14948514839239
1.16450649683575
1.22131653507187
1.18359156195265
1.20374636468949
1.13253624603797
1.20827909639788
1.24630116069027
1.2973011202699
1.14361056030816
1.17229989858208
1.24634825571806
1.26527037532861
1.41260765441895
1.31579132165062
1.21854688991469
1.29389143139829
1.28975565724061
1.27350871148816
1.14902883670167
1.27145725110729
1.37570917161592
1.34485021897595
1.23063260617956
1.22426526656993
1.29872941779113
1.33170334959799
1.30788766118594
1.32852436633146
1.26131626539355
1.36368341283496
1.31952741531004
1.3726486281005
1.20347914777686
1.28706857960827
1.50347360064703
1.4159681977958
1.36624455688281
1.40625302353475
1.32646378155654
1.31787001979371
1.38253363330869
1.43456892305575
1.50298950161585
1.48393538927599
1.3991343220681
1.42474160562228
1.4492327737869
1.5609891073029
1.57630134065409
1.44685771161342
1.40391927323801
1.54722222009904
1.44734894988295
1.46231342544234
1.44384386917232
1.58721472151059
1.58614537659493
1.41467126250208
1.3768081434137
1.38011670622781
1.37377189114576
1.42107472088234
1.53004349321376
1.54940996354088
1.62965656016418
1.5103277701023
1.40333557674678
1.53967437694137
1.51160783873912
1.39913424289735
1.44195975477107
1.50337397808074
1.54328498882172
1.50403044473054
1.45948179987751
1.53739664578265
1.50691677028192
1.5099568918886
1.56049624970977
1.78809222378316
1.54319770448734
1.49007980570045
1.68721487073702
1.53828224199432
1.75890263123769
1.68497613532741
1.46375384425511
1.65777044736884
1.5817918621169
1.48929635827206
1.49511670083864
1.44151500293849
1.70286792637206
1.70884893527718
1.45849681118872
1.54413820781919
1.53065505970733
1.57324726789097
1.69991098234353
1.7307752336755
1.64533324966151
1.60981413258769
1.68177005165152
1.62814114047731
1.93209198694885
1.70226929961382
1.62841233191771
1.76869122739504
1.58739150997023
1.80810281835677
1.56186513821383
1.62603913719283
1.74856624377271
1.60432321177129
1.73137215001765
1.57138501853812
1.53637380713188
1.62083423926656
1.64358425895872
1.65094837835759
2.05651787029769
1.75493925386966
1.62095118617369
1.69483180564777
1.59583084012819
1.5865430426036
1.67867870198029
1.58029169522624
1.57802852155954
1.62469917520159
1.79103722935322
1.55083478397693
1.51118069297531
1.56533193786341
1.67449399006061
1.65724503586653
1.61859148139891
1.66711615039083
1.53627587600083
1.61379186087782
1.77427397014687
1.65852604416165
1.7426650925308
1.75255949751527
1.58319637989697
1.70834962385703
1.67330093827958
1.58850310209178
1.69879520723528
1.69704342423822
2.01371923819346
1.71095794396153
1.76071951093376
1.93994390613019
1.68905908265806
1.72234648216459
1.9005826026299
1.66998685202596
1.58418283344339
1.50988281136839
1.57433976644149
1.75239295214369
1.65580038969256
1.74985566026173
1.8321876691752
1.68505113710187
1.68695653700298
1.62720872235711
1.63299118312364
1.7499473863754
1.70682858479005
1.75422673301468
1.92824981931075
1.79532251228158
1.79314411095633
1.80059465643555
1.85471186194804
1.68837386589796
1.62617224725377
1.69756149344496
1.56105964987229
1.62845087490167
1.76031087592654
1.69552086388437
1.63766372457738
1.5221518998931
1.94567300452187
1.82077043108488
1.53558891989599
1.55119773776969
1.72288257466211
1.72286621259846
1.64032717214765
1.80321921499085
1.87566498935658
1.63018290741932
1.49831117983666
1.52072888302733
1.68771427631557
1.65474292011371
1.54909988758234
1.58373074642026
1.94001551865756
1.77351971251952
1.67786469991025
1.69392539163644
1.76574226189675
1.67757851026753
1.65592651070638
1.63425476605684
1.74957341098538
2.08688838502116
1.85107834908846
1.80872643657753
1.83164030909249
1.64547681343737
1.62265424459112
1.5751278574033
1.80160604759845
1.69591272219871
1.61504254579827
1.72770628430992
1.80211102073287
1.73016264337442
1.61554687325182
1.60247384430731
1.67112239559273
1.67034329149936
1.62597469203334
1.56113014796538
1.62145404413009
1.66840284739843
1.6033516734726
1.49840423083143
1.76464951216313
1.74165591136117
1.60381020412085
1.5065011712605
1.54402583064871
1.51038620910038
1.56519717453699
1.74934875937765
1.63734557505184
1.71676680348381
1.64304890832954
1.55521196610192
1.57369756463365
1.61974390422471
1.63830088329157
1.52768220349288
1.52051246011238
1.6214601027206
1.49498114954787
1.4600619884885
1.56643398740381
1.55928669266785
1.57945417499226
1.53493080523582
1.53844921165818
1.4909616683849
1.41051595475383
1.51502385166025
1.58905884944368
1.49623384469161
1.55536930458599
1.45738338812095
1.56449787974523
1.6381241455143
1.5767668137833
1.59659430236189
1.51228742262702
1.40431814860676
1.52299134116212
1.47934678399213
1.53435620009884
1.45960541332223
1.44127300215231
1.43828861529704
1.55189695660547
1.5461944591549
1.38697432940366
1.50192695376245
1.47855461528011
1.38890190497075
1.43600296251371
1.35771173784375
1.45376975429533
1.44577494432315
1.43399494347517
1.5077128596518
1.49063911084539
1.41020883080323
1.40930437590405
1.4251522848027
1.39220698282362
1.4135945832144
1.40105230651715
1.3216978405959
1.44065139792502
1.43003457634404
1.39863271537139
1.33779904346409
1.37505759717735
1.36704986665991
1.36540659644
1.32383348964738
1.38953072076977
1.36035842915892
1.33263076719439
1.3105139158582
1.3382681061538
1.24850243477898
1.33566069237222
1.3839187382758
1.32356736168246
1.26468546305919
1.28058907262911
1.28561816577717
1.2985277354205
1.26668257129398
1.28802399003059
1.24881594214431
1.2270266881595
1.25531642734396
1.27668795051779
1.23472927501618
1.20680301161476
1.16282136358832
1.22159198006865
1.19716711810226
1.16482259258372
1.24716387474545
1.22351179043667
1.19787783828531
1.22334118382477
1.16014235774077
1.15691717397934
1.19429846666494
1.20387449084398
1.15021948392267
1.16807110228313
1.10478856181511
1.1478487030533
1.10006906786844
1.12006559079593
1.14164795892691
1.10171835000869
1.06735454866575
1.11359418118302
1.12029011571126
1.0839688202257
1.05585383432999
1.12992594411976
1.08650264449043
1.05135475295506
1.03953372456804
1.04487030164283
1.02707695072243
1.04581454984052
1.05696771303882
1.04036863139917
1.01540861113378
1.03718115253792
1.00886071458835
1.05425763310792
1.02771939813339
1.00524287432649
1.01112146562674
1.03459052165621
1.00887588552409
1.00963893284052
0.974413887071137
0.991880563814108
0.972508283219214
0.973580402099983
0.935004276193632
0.958899075309836
0.952903436829003
0.939171998962632
0.910737390064657
0.962366216479563
0.927404988406758
0.927698418953892
0.933724522371698
0.927611050138629
0.899146111313205
0.910345004904439
0.908076338443642
0.914500469193131
0.912636826874562
0.903118620279228
0.887784378552291
0.892252967826576
0.866505806684786
0.875210415195441
0.881236387992971
0.866554443268472
0.848592033774765
0.866200732027121
0.837989151915713
0.847301728493172
0.839284478663754
0.835646433618306
0.817833972510454
0.84040259149201
0.816310185504664
0.823952028901997
0.819519875313723
0.831279617552448
0.806007585060386
0.814807408987129
0.797115916675615
0.808826243967433
0.797841625049806
0.807237186982057
0.773693274123656
0.762895444059619
0.771333071565529
0.778907738744996
0.767542285271959
0.762457226152052
0.753766713075739
0.763781378929122
0.752174486236907
0.749435134864299
0.732694802580513
0.741956292202719
0.743643511136696
0.730302757426926
0.714246268571943
0.727092541583629
0.707386023363252
0.725450541634604
0.714746682532728
0.72206302952749
0.710962274422472
0.711300505936923
0.711633218136212
0.711461510631881
0.6925019653532
0.682585332990687
0.663885313693087
0.669852191911321
0.67639068146649
0.675392493050824
0.665632990323714
0.66616891269474
0.651895217912075
0.678731935977423
0.646905567376636
0.661085621126263
0.652137337628709
0.655179774168923
0.642882120094772
0.640149401431351
0.636361352588296
0.641164974833657
0.630276444431561
0.632205377431841
0.608950402134376
0.628728059086554
0.608928529878172
0.622878393387712
0.607383088726717
0.602244538782874
0.599670162798143
0.597436026749293
0.583960885829592
0.590712295238548
0.58885565955968
0.596123990949684
0.578181034331299
0.589448966467427
0.566181853847599
0.572611611881328
0.572248882031544
0.58238979709733
0.56403249478981
0.580372474435504
0.571241260753536
0.575945677721303
0.572601260269227
0.565706630186293
0.55420031932046
0.560986297481288
0.551717299446787
0.549296574056087
0.545266761054515
0.559441570804897
0.543645804864985
0.551437822065856
0.542493256797034
0.540813293240706
0.541163256209759
0.544938676284104
0.533664276440406
0.541590768625746
0.535884828143365
0.548005342295657
0.524793920035265
0.536056878154313
0.534525359281194
0.536968560656192
0.530936282975577
0.543945722358101
0.52669512944105
0.541369088926665
0.524590776292804
0.539744854037606
0.536504411764753
0.533627915486717
0.526735990182789
0.547817209431152
0.542716666714732
0.545997548036388
0.545529805224978
0.552111632708104
0.552665428580748
0.551008319609417
0.535800063611546
0.556906459464196
0.552248980593012
0.555876385142248
0.561235031465228
0.571702950376347
0.563711941170769
0.561165855035975
0.561362351150842
0.56920847815833
0.565550476999764
0.571789718604522
0.560028827792351
0.574434622680269
0.562564949222205
0.577641564655113
0.572693075614107
0.585162558083445
0.572664991066077
0.589043834484113
0.58920500704781
0.585453386940909
0.581949745589417
0.597400054338522
0.582714048999307
0.593313151978818
0.591895530181873
0.623395117139334
0.613743743080212
0.620857420659093
0.604100517093486
0.627192131120029
0.613154090070335
0.635969539351183
0.631432732503811
0.641183121925639
0.635435974223063
0.649857831045739
0.630018788049124
0.65284782883
0.647159752357651
0.658258857987375
0.657675123508273
0.652574746414254
0.641955890817117
0.660814446858836
0.658865423932061
0.662421357243115
0.658563959253915
0.677128997980196
0.665364306781419
0.662090245357071
0.655017528004656
0.67537310367316
0.661514859718678
0.66686682518876
0.656050033936708
0.665416753446682
0.657403774654817
0.672263278312623
0.654431759021296
0.655334230664662
0.653278796914705
0.6611837479589
0.639596163328837
0.666522330547958
0.646747209324805
0.661409815751532
0.648185996785577
0.662107727563511
0.649158816551066
0.658524147767357
0.644842746289861
0.655782570814921
0.637567621785348
0.664378110584594
0.64867944182719
0.661251136996834
0.641569627719587
0.662676544401301
0.650953277156153
0.668952879092879
0.635410200974829
0.666299118730479
0.654699962564719
0.656464933388372
0.655711036352781
0.65211663244125
0.655559655058128
0.666270707260164
0.645733135965098
0.656888260079411
0.652157026007307
0.666612038735142
0.647431890406189
0.663668352231842
0.65246201370558
0.67004007952511
0.643075097577502
0.660255367611572
0.649744602738317
0.654753642231937
0.623853604326237
0.645199011684969
0.636301667935209
0.644176684125126
0.628334954372798
0.643629389172633
0.64095747799596
0.644638068917449
0.631233908231381
0.622369393353253
0.624416113376539
0.626986979233391
0.599099467736964
0.607257331569405
0.603958532847472
0.610319898484619
0.601358577033794
0.601988650648453
0.588769514109734
0.591945312647639
0.587564797626026
0.598119697129146
0.565593983496283
0.585455790902102
0.565306002880112
0.572080065504521
0.555439092798003
0.562745386444343
0.548188732635918
0.566954168998402
0.550577463389363
0.542324775791243
0.54960563679266
0.553006945538244
0.518163126830118
0.533834491153191
0.520035462697881
0.529961951194425
0.512712987595264
0.512632938915191
0.512259089987917
0.522870504175689
0.497265171804525
0.508153107143244
0.488855685464837
0.496174158882471
0.490414655065171
0.489957585247511
0.482726016755668
0.490457410484014
0.483778874629604
0.481134606162471
0.47291494899435
0.480918621842919
0.465015869967541
0.468049836073185
0.475007075943107
0.471869451985243
0.452567478452894
0.472743895622659
0.458252962795992
0.458849135366771
0.458239182700462
0.460826795091921
0.448025435174489
0.455470466843465
0.445198115396727
0.451861986676587
0.445628831906484
0.443742055342768
0.437639681347199
0.442874873595873
0.43267808972162
0.438179270292751
0.433282615734978
0.435765131938701
0.432691116105091
0.440331467344157
0.421911211318609
0.430720583700282
0.424388567001932
0.4234901485323
0.42499105523792
0.423039639646739
0.413776991454662
0.42226028329724
0.413061227218499
0.41530681116929
0.406638820451834
0.420421205027826
0.412831722202371
0.408436681404814
0.403676784022713
0.405921342182867
0.399373683135437
0.406516875989881
0.394914493872371
0.406991780745761
0.39730742440194
0.399969927514664
0.395928759210741
0.398882450213246
0.389621900845521
0.399971858355769
0.387508671987978
0.389870149368324
0.386357771962019
0.387527897130833
0.384332412518761
0.388298844410232
0.388137326002776
0.387752944569533
0.373267701863744
0.382154080793099
0.379034866593977
0.384067068278134
0.373940470327871
0.379468401420785
0.375944702311355
0.378301637612853
0.372946681119766
0.377436363494851
0.374080161236304
0.378942040794293
0.372706030211538
0.371598806068179
0.367939664126007
0.372825937134469
0.367173359596984
0.368763501460942
0.362276988725394
0.36831193647932
0.362364636462937
0.367499912997112
0.363671753144119
0.363307794799618
0.36193048268113
0.370459453679148
0.352805276829004
0.357913757271876
0.352982953725139
0.360258307772667
0.352553343690219
0.355438905831352
0.35460856332601
0.371659295416822
0.353464235104983
0.355656205769267
0.350208934292634
0.358964573200019
0.348642465470175
0.346548155664737
0.346117851493359
0.350808746534664
0.346464729539183
0.355035745670579
0.347101823836375
0.353416030454812
0.34520994027054
0.351264957047479
0.339538590568467
0.352755287944268
0.345302678033712
0.344445775754767
0.350774259899751
0.349610214035487
0.343373701253082
0.341778032843417
0.339590766307166
0.347224895971762
0.337270371772358
0.344725860056878
0.342673580208657
0.338700259463027
0.333226203300005
0.338243366801051
0.328790078965057
0.342992213063494
0.332136327913538
0.340279320436324
0.334171989536119
0.338673889120986
0.327963918922273
0.330829884471187
0.33134850694343
0.334493923350171
0.328204523679118
0.330465428090711
0.332909073897556
0.326380264526096
0.32158946201596
0.328290980020359
0.318987386178093
0.32735178204426
0.327411382209538
0.326604823244618
0.317693049865611
0.32102303049261
0.318136655964643
0.322811072366088
0.313568670403233
0.322855363117556
0.311391569667023
0.321748991699894
0.316838012577004
0.316654482854239
0.309095478171018
0.31956943921462
0.31154787349566
0.313817798695093
0.309590540863225
0.315719777886309
0.307189867498784
0.310755083179947
0.309885391868166
0.310570222285337
0.309473752515979
0.306066139589259
0.303757278587744
0.309711107110167
0.298481767713361
0.30614246650006
0.302635791820442
0.299861880925585
0.295429477821019
0.300719433235395
0.298956210397126
0.299740760271013
0.29361701776907
0.292968792886741
0.291832661804343
0.295689643018628
0.288770460199359
0.294489468441729
0.286705241419622
0.290771008250991
0.286083286811584
0.287350949239023
0.283955677402583
0.29222239169495
0.27847382197328
0.283666647558549
0.275592343544608
0.286532773012418
0.276127550621611
0.276504257512251
0.279938166329091
0.284136620444301
0.270380665707206
0.27712716385957
0.271528886066263
0.275148894512411
0.264097133157906
0.274021086226489
0.267873675221823
0.271924413846699
0.261661719726157
0.268603147530549
0.271003957233439
0.268387688953543
0.266027695510945
0.263600916821036
0.259780443634388
0.262693800980857
0.25801169318027
0.260629041165909
0.257549716141667
0.261779126293532
0.251364948578152
0.258780427039767
0.253852077086174
0.25575366864368
0.253262894548067
0.249513066802416
0.249428645492207
0.251156178347741
0.249217307907153
0.247849752822278
0.245304306158693
0.252717868485057
0.2465589580422
0.249117289710764
0.24779035972873
0.248670701262168
0.244852403049429
0.249087265040926
0.240905222095061
0.240869226934593
0.238990722651376
0.244432207383131
0.240415375472431
0.239849963515104
0.233688392867229
0.237768473281239
0.234606629350224
0.239692612792739
0.235359589037346
0.23736902895132
0.232712944630817
0.232591137765054
0.231466376136471
0.235381935269079
0.229693758148549
0.233704406430243
0.228720228956011
0.229938943449807
0.226286542818309
0.231063914321984
0.225684879735484
0.229242394640347
0.221275465997854
0.225915763313114
0.223569796028969
0.225861342779044
0.224421445153239
0.228369241764631
0.224140395344802
0.227310950664194
0.22406078523899
0.225234954224901
0.221685209911235
0.224523545089662
0.21997521617248
0.22482133086156
0.218359810793528
0.221393879589138
0.214717486627797
0.222629699517177
0.216328672350113
0.220322640766995
0.213129677584448
0.219831827277965
0.213550541273524
0.220568140334151
0.212540577609622
0.215297113006618
0.214050611076007
0.215862232553017
0.214434214921667
0.215979919482629
0.214767444597968
0.216278894934648
0.207973524030403
0.213395611368657
0.211868683856728
0.212717957789595
0.210190035791736
0.211634747530938
0.211705599685114
0.213879277547406
0.208719645862872
0.212629965705999
0.21030863498082
0.208204966355083
0.207120206599947
0.212189021356582
0.201953353594812
0.209546723973245
0.204716619939346
0.207777382102237
0.203025784443668
0.207585119449797
0.204997121314228
0.20765532596588
0.198997476831829
0.204971879161869
0.201249605044692
0.20466519775505
0.203565820989706
0.203080539482483
0.197043227533274
0.201257624301704
0.20026892046332
0.199926196068717
0.198837369210289
0.201088289252348
0.196065029943634
0.199378123389409
0.197639883809743
0.20130803640117
0.193172080666622
0.197960274793416
0.194676808485167
0.197465867669473
0.194435072119121
0.195442569624377
0.19405939423563
0.194540947856033
0.196304004153253
0.195692338718767
0.192780113830895
0.195737856399679
0.188843418244215
0.193418060238972
0.188876940773729
0.194152481681231
0.190809735824419
0.191522714733796
0.188908372741405
0.190563203572494
0.186775735194985
0.192003046449733
0.187763360193806
0.188318815471539
0.188787942853955
0.191002053036756
0.183957904622024
0.187528865177086
0.187206754435203
0.188024258132344
0.181046462078745
0.189310469440653
0.182784332330513
0.185435775089359
0.185361172797455
0.182347234029331
0.18221221313852
0.185155831247429
0.182049653296907
0.183070109921763
0.18012449690966
0.183092697772201
0.182357040795337
0.18490603201318
0.175835679080863
0.17952426529525
0.179077116906212
0.179734538156419
0.174107172622567
0.177849474590971
0.173272978251467
0.175978835102609
0.17402921949041
0.1751406809754
0.172808477676942
0.177234018413956
0.168826795052468
0.172574125024343
0.170603824690286
0.169777551151716
0.167832354071017
0.170010443588741
0.168846322494458
0.168369792442658
0.168275648159875
0.17117975289245
0.166098969593801
0.16837835999433
0.165850626258972
0.16574717340036
0.160840193559311
0.164866462760893
0.165281698133328
0.163479269027936
0.162895584209911
0.169009542416121
0.159793134552587
0.160357978655644
0.156611774438653
0.163294546929046
0.160143627140993
0.160042170986242
0.157557436859683
0.161320640304142
0.156777123607028
0.158743291149474
0.156600971164471
0.156208571760061
0.155919217608035
0.154712345645457
0.151585580034904
0.157468038620156
0.151279822018824
0.152781411496545
0.152700296714876
0.154191658336357
0.153193117339758
0.152678741390136
0.153752492689026
0.154811653568347
0.151261548653449
0.148901814121196
0.144934719821249
0.150843134173423
0.149015483976665
0.149696785385011
0.145067332539623
0.148189889974627
0.145662925901929
0.148087274215291
0.145012451687886
0.146554539286874
0.146461432112415
0.144879010369594
0.147552032855622
0.145073578931652
0.144716363395729
0.146321157733253
0.143211288136659
0.142807296401426
0.142590071118825
0.141634818458413
0.141642089229153
0.14212336696164
0.137625074279645
0.140577704732012
0.140768667905417
0.137785701406011
0.135465534879463
0.136166149488551
0.139000941302841
0.139704157661253
0.138742685489184
0.135744368590693
0.133918823397499
0.137307766628371
0.133620050688626
0.135696920207469
0.135127448964473
0.13740268413846
0.132922478129143
0.13474748444528
0.136392044512707
0.135144915262896
0.131342724979466
0.133689533190538
0.136662058776965
0.135851278539918
0.134194164776276
0.136253107328556
0.135223238587885
0.134844176602967
0.133230385336327
0.130983363256134
0.13384272660354
0.138527292090704
0.138845253474936
0.137074310887419
0.13366411417552
0.137558937199621
0.136638615719913
0.135948909972305
0.142078804782456
0.138191065272341
0.134678804306775
0.130058048464925
0.133571332376284
0.129573074322219
0.137722170471772
0.138082534902735
0.14044772300511
0.132948335900036
0.137608040552751
0.135369992238218
0.137408030082753
0.130379022090933
0.142208717340152
0.136098843394276
0.136310263871429
0.137567397654805
0.132977443306689
0.138629250901322
0.134377853640071
0.132405978953423
0.137020759274897
0.131582907385991
0.141580155092066
0.125874087645341
0.130002775654742
0.125542416248547
0.142059130482273
0.131107937149524
0.143620906618717
0.131293168014164
0.13341000269047
0.127837869776534
0.135455332849349
0.131110431130931
0.141824781806391
0.127710398569135
0.142599166268099
0.129477002783698
0.125051591061452
0.125121593738254
0.126764307691597
0.129946455186741
0.132700778334708
0.136141459036471
0.13185847083269
0.132494283657427
0.109218696357113
0.137177207104385
0.119322394662097
0.149938350975198
0.108379169376035
0.145377968730205
0.102058273778407
0.157971839657975
0.0983959675089182
0.156453275454488
0.0956739989185026
0.166409283613932
0.0929877506428908
0.156826912680939
0.0975531948698219
0.151544300447852
0.105452981528518
0.148897429715749
0.1167994260597
0.131523692579796
0.121964280962739
0.127438190916786
0.127535515310455
0.123803840129659
0.126923434764846
0.12396988703768
0.12265014632656
0.125807744346141
0.117561651077248
0.12804937397931
0.116881552597145
0.128320192452056
0.118433758779394
0.128537467027954
0.120784242456683
0.124862025542854
0.118356180435112
0.126611585679298
0.120562465933052
0.128119845885938
0.120291559306955
0.124152052315887
0.119509859124771
0.127094334286828
0.120122328105181
0.126409341424885
0.116527560591887
0.124059164557292
0.119422745823336
0.126400402102081
0.119788151536041
0.126021681405021
0.120499374302729
0.1256395852586
0.120618474366807
0.126188242177394
0.12072598372104
0.126681604031846
0.121012861274503
0.128480302143548
0.122803664494882
0.126875058993164
0.121768758430316
0.125417580172016
0.122212564613768
0.128341727774108
0.124802110661191
0.128884600081459
0.120962206763114
0.128031435687866
0.122442224869318
0.127077460749223
0.126236992507088
0.130824018768067
0.121940225600562
0.127621826348183
0.123091927457663
0.127262862332748
0.122869503470416
0.127630706398814
0.122049727058331
0.12857632364734
0.124951088717088
0.129055679141465
0.125111729085149
0.124576633645725
0.124790878049743
0.127690106388639
0.124005907169633
0.128253010830496
0.124185210161872
0.13035133401429
0.122211114802494
0.12593273352575
0.127675933619102
0.126953121421264
0.124856493635637
0.127773432324834
0.126780617246057
0.129922661823819
0.128389574342035
0.130353053610271
0.125054488727348
0.12818148972456
0.126766478488729
0.132542268103125
0.126114316639346
0.130806091009618
0.128913477085582
0.131098762113766
0.125326706496611
0.131382262238585
0.127990647384951
0.131092865572387
0.130192249984348
0.132825141781524
0.129980302161169
0.131588960597151
0.130116723635325
0.13214504964808
0.128139511799069
0.132536854575886
0.130190118746419
0.136249621051073
0.132368977959548
0.135289914706035
0.13299551735605
0.132635865872363
0.129848403052534
0.133914296348837
0.132227026629353
0.137703294453592
0.129819318796238
0.133379246874548
0.133292201904549
0.136042286087883
0.133177821007817
0.13539023337246
0.13454435321931
0.136473671058346
0.132519547218963
0.137905368561973
0.13602048122307
0.137366649626777
0.1331551936497
0.137171383743123
0.135759335769063
0.136649074692376
0.136222294850864
0.13983855222728
0.136245593206678
0.139349039922726
0.135757918633273
0.138607089170139
0.139917600090145
0.14033835576951
0.134195216902948
0.13780978585524
0.136131636414197
0.140412879063887
0.137128911574505
0.137894469056844
0.137226806655478
0.14199816302907
0.140289643601778
0.143879264352748
0.138457381647716
0.140074745622942
0.138822675820001
0.140547237005072
0.139418625912146
0.143194262929316
0.139584490310105
0.142901130352075
0.138993100730948
0.141301087860932
0.14051403929143
0.142004705382097
0.141824920009555
0.144408944787587
0.144016047853067
0.145584320778951
0.143102036459912
0.145748663295762
0.142624511371755
0.146334097850795
0.141393853336117
0.144761269929183
0.144659872273199
0.146954058000714
0.145230568201231
0.145865712340905
0.142645822211509
0.144204432647539
0.142047079282802
0.146097520096579
0.145756343094762
0.148890112544011
0.143032551439632
0.146519153245947
0.142639513437533
0.144300774464843
0.143407776376721
0.142950009511428
0.139558366513394
0.145888965090948
0.142803113999795
0.145885398219935
0.141417341231338
0.142155036315295
0.139832740687171
0.142248881195613
0.14283079885718
0.142626352081417
0.139208633902078
0.143119522167562
0.139933373382538
0.143167560037397
0.139732883051558
0.142110237082641
0.139456548735799
0.141944909884449
0.139388434291317
0.140840533476313
0.141245204005793
0.142926508287104
0.137673883670678
0.141017718947236
0.13808336254482
0.140995410974439
0.139858778713142
0.141241857970632
0.138592566730454
0.13865114801998
0.137104194111154
0.141020953611633
0.137530451132924
0.139266725664629
0.13927897973599
0.139552069043239
0.137449864222574
0.138154932097925
0.138987455808818
0.137488380719451
0.136848278135478
0.139933609322635
0.136600224124134
0.138905497150929
0.136299506898435
0.13869279740522
0.136516194924956
0.137175936772741
0.136635088199801
0.136935022856806
0.136979435739514
0.138811365883221
0.135030139324463
0.138642773756795
0.134678657076235
0.136656659323209
0.133467706422482
0.137134149363088
0.135302024316725
0.136622868099256
0.133150388763693
0.136941669427436
0.134589875805007
0.135119329167803
0.133854747996328
0.137692708470469
0.135361687759753
0.136356698846842
0.134108566206134
0.134839576914425
0.132673689779776
0.133209218717501
0.13197780166936
0.1342105370199
0.13383640267327
0.134330351111857
0.135190192213855
0.133495830000588
0.132012590624691
0.136594461624848
0.132069165266828
0.134062018830268
0.130298506267234
0.133721406146297
0.132423097211867
0.134982179898714
0.131091708036758
0.132722192312151
0.133065257381576
0.13380674043011
0.132137942421722
0.132853712191899
0.128455003460968
0.132549018607462
0.130556832261972
0.128456689330406
0.128887809122066
0.129953941147114
0.126997439999874
0.126483453560436
0.125963992098991
0.130896839568454
0.128352522100643
0.129078598133018
0.129978791611154
0.128609868523973
0.126872716578525
0.126073177693152
0.125067141240447
0.127990986048653
0.124452531403377
0.125573027123348
0.125358626110782
0.125889934812639
0.122472893306572
0.126237503600316
0.123518740508024
0.126113676886421
0.124169972581605
0.122667365792186
0.121002497039666
0.125154376134193
0.121340276144246
0.124039319770457
0.121776162175462
0.122823630613784
0.11830770504831
0.121594801421153
0.120250827913691
0.121270320185629
0.120172735097081
0.117629965168316
0.118989515635405
0.115651824118989
0.119757970991884
0.118519893844997
0.116068878936906
0.117149000184538
0.116115002369809
0.117365161994665
0.116629139388794
0.116589313252494
0.116153587690492
0.112217593228266
0.112748533230875
0.112128627878283
0.113083401695961
0.113933235750823
0.110959478436779
0.112838877090105
0.113226091542935
0.112998206270009
0.112559776221562
0.111051970999221
0.111031839700838
0.110160596088696
0.109856828053013
0.115021185393961
0.11428651040417
0.11124617589879
0.107480844392065
0.110929226654119
0.10846502646811
0.108935798215745
0.107739533000507
0.110382018528056
0.106370945808936
0.110302545907304
0.107177993590623
0.108811533323409
0.106821583911663
0.107550321189128
0.109462915020287
0.109118552709552
0.106151276184996
0.108350595476789
0.104317832395526
0.108419941356268
0.107277097102612
0.106411026147599
0.103548025397247
0.106525299065765
0.104768666234642
0.109987161156384
0.10615447778891
0.108684670327261
0.10296884949406
0.106638330393372
0.103173113257332
0.106428647783896
0.103792979291163
0.106289912680549
0.104077978187434
0.103257353868808
0.102713452926918
0.104882841567021
0.0998304365116232
0.102704315640657
0.100654399101709
0.104333905105057
0.101215039180338
0.104979792795741
0.0985478220657692
0.101461224001954
0.0996420210128645
0.102699021646731
0.10028021266083
0.103689115480185
0.0988078513374521
0.102214444568693
0.106530289934252
0.103581545412015
0.106013158404969
0.0971250365610276
0.102639776382587
0.0997598710340937
0.0996037457259034
0.0985692272851439
0.099673359681551
0.0963481830803673
0.099438526189984
0.0980857934754266
0.100635980326829
0.0980800850307657
0.0977167222427375
0.0994778496991549
0.0991377099352594
0.0960588998333474
0.101076021826834
0.0964109293047085
0.0992922317525988
0.102131579281847
0.104227682317084
0.0993362190800982
0.0996915086001425
0.0953176044863986
0.107904368796291
0.0984364860940583
0.104117095325613
0.0945658024269962
0.0990076084553839
0.0979304520956935
0.0999380088690403
0.0988048638915916
0.0976612969949831
0.0999706329063735
0.0953411179056347
0.101582613767224
0.096704074498846
0.0997259030686337
0.0972621392672989
0.0977171586484338
0.0953248530068106
0.0998756259425344
0.0976441902948265
0.0969201518850316
0.0947242502332464
0.0952751892520954
0.0979850460559627
0.0959555119812914
0.0974357914199952
0.0995183034794679
0.096655836895119
0.0961727302316915
0.0991307723069939
0.0955873291246603
0.0980593744352073
0.105122624182963
0.0894651830455709
0.104552796239314
0.0912114273910934
0.100071428118976
0.0916998277408123
0.0988595029874685
0.0957498378552352
0.0961364499227527
0.0945388530035788
0.0972381178358191
0.0958754676591969
0.0976695573039236
0.0936933313626407
0.0967842074897712
0.093782624446389
0.0970751827881811
0.0968831442739418
0.0956855032825164
0.09857553369895
0.0934394426739611
0.103514544490895
0.10353886266466
0.102903621155647
0.102624735920826
0.0978505931156465
0.0995471336174683
0.0935076629268916
0.100137751977135
0.0925713809751173
0.10164855529978
0.093172282859832
0.0990158321475083
0.0940458789935686
0.101800214283694
0.0941819508350843
0.099911350760061
0.0929118482313957
0.099537975573422
0.0922814498810828
0.104422336040064
0.0917379502961131
0.103244073806543
0.0889791182201054
0.105784830301991
0.0944466317902708
0.110398432015573
0.0901667382044636
0.113957250964495
0.101265479852858
0.102720259744817
0.104007025970584
0.0909539786901485
0.103662726527071
0.0970060744155663
0.0998430454048475
0.102064353726721
0.100173524357961
0.0989871741478794
0.0976572703502149
0.0973265031991361
0.103455530926055
0.0955512146400094
0.102145487930642
0.118785200223756
0.107556721822093
0.108449896788916
0.0974550802403509
0.098173824008971
0.118025994546736
0.102561622014773
0.106987790264887
0.0976855238193309
0.105041024360248
0.102136263762299
0.101348567835959
0.101912745499217
0.10615396733394
0.106110338307098
0.101169679342697
0.106089760060164
0.100244880960249
0.105293730550456
0.101432386928718
0.107846448451722
0.108711079225737
0.105215340048619
0.10677406927993
0.10665248547264
0.106190558699222
0.104635523521573
0.108870442932568
0.107709256638958
0.105935357744116
0.11463775385486
0.105468421968348
0.11609389969924
0.111193685817315
0.108858752720064
0.110565970517554
0.106722705591286
0.115856239186791
0.10918040914048
0.109765205965172
0.129636067866346
0.104556337697447
0.138123036522732
0.103155500793528
0.124773121703331
0.101429393353405
0.121929231953288
0.098209979927079
0.129120493997554
0.110641060332131
0.120805520633611
0.105390778757539
0.118711991203396
0.115260192075235
0.117818762513452
0.117631558799568
0.115069136332694
0.115570577890741
0.122096874954721
0.12594344350779
0.113306905842967
0.138104104381215
0.12204394151573
0.132317360445514
0.131060354250582
0.113895912149448
0.137416277668296
0.112571767376732
0.132301538271648
0.120377199712051
0.124787022585204
0.121358740224841
0.118887979910762
0.142044560452415
0.135784363258648
0.128021315773926
0.131856192066298
0.122898822241269
0.139913392086321
0.131130872093898
0.13743568757411
0.127821773573036
0.138561295254571
0.123945903257835
0.154068524927131
0.147906770597056
0.13927733491597
0.154091306793475
0.137862192055867
0.154838579408221
0.140423879816736
0.150847660577546
0.136873050388506
0.157888625238549
0.146240591448724
0.150091153640867
0.146905529154329
0.167670087211227
0.13974046735134
0.165023934206465
0.145496621882194
0.15767361068251
0.163633318340751
0.182751073474809
0.170000712956681
0.173749774405505
0.16019937616581
0.178967203120777
0.168589406831782
0.178332469204117
0.171248129556422
0.174259587362784
0.17345142290846
0.174039701002215
0.180613260510191
0.179965067301757
0.184824960169272
0.187478273330845
0.182290944463431
0.201354438414101
0.202903702976795
0.235732469992264
0.192621770819489
0.222252755163541
0.193631238902662
0.217781980868133
0.207708259120921
0.209175324089359
0.213422321364668
0.213378192736706
0.21971696102345
0.220501930309125
0.229083613214981
0.235261443825931
0.227249918679355
0.262906969822706
0.228540524642732
0.257876934879308
0.228134816343883
0.306038258643087
0.231151659819036
0.283785752371095
0.263701735038603
0.273090477051722
0.317833804791238
0.281816302621089
0.307033549411589
0.302033663652641
0.308785827917032
0.318196634304396
0.326641502086137
0.332499185194508
0.345222603439773
0.35815763634828
0.355493522326547
0.372256760894074
0.389527476041073
0.412511771301299
0.42707443935214
0.3979821372305
0.411566497352063
0.427097691614979
0.433592971989599
0.439907156636371
0.453785300529638
0.451052180777643
0.498887550792996
0.476505038766124
0.507629660473104
0.481701845927287
0.525897456325863
0.516561410601622
0.542509611603192
0.54972302120901
0.549774088188324
0.562664342323882
0.55712913931691
0.595111552893948
0.575269289387468
0.605877834434185
0.603983449053391
0.63208498140867
0.621558986759458
0.630850061178944
0.646802769863002
0.642076261287156
0.660154694785052
0.654111469813462
0.675661663099202
0.706763316030764
0.737081619299525
0.833277720525261
0.687253257637141
0.697812554233479
0.668424284371162
0.717477487567787
0.694281417107438
0.726138477317109
0.739631784617076
0.722519189824955
0.721005881541641
0.720972654175865
0.726679262833524
0.732240662323051
0.718268389268112
0.716368835073629
0.719562778019064
0.737601643895588
0.719567383144671
0.778068654694083
0.757504733548139
0.745611615275866
0.701903289758316
0.736324496155892
0.708108042500311
0.722453749956361
0.69856542480657
0.735284064540333
0.714468814985118
0.708367281190051
0.68473659528755
0.688416729028122
0.698514324664635
0.71122399765575
0.686839984746158
0.666388794845639
0.672513852250379
0.670177820662825
0.651249682607412
0.694311437163222
0.668446018574725
0.646290652414187
0.616143528024723
0.635175605446534
0.624107761173693
0.618529676094544
0.605675389098346
0.614151416917958
0.604990137193139
0.616521657062245
0.593962926161707
0.599059959710347
0.581923834456807
0.583674077352872
0.590413064650828
0.586814223330692
0.580264748536968
0.580785878512882
0.580072488379279
0.563261889501298
0.563059190824806
0.5664221506272
0.565637959513593
0.576413977940148
0.569200578807273
0.571253721627751
0.558479299307979
0.562171349018586
0.562804901855981
0.558459647328235
0.554404653414888
0.555983691038362
0.550246042765599
0.553218691353606
0.550082386084688
0.554758968238971
0.546287147826001
0.545665472476996
0.548992519437625
0.534443954444614
0.540040636791027
0.530209341788394
0.544900530014907
0.570629420892017
0.533359158049271
0.543515788233301
0.517764884120057
0.548484204673829
0.506060825677382
0.531925874455562
0.540824163258621
0.528246619338168
0.515866380078972
0.509076388586518
0.504049367059686
0.529035528377971
0.503465508806793
0.510150987454784
0.480227926981386
0.493849561077645
0.537015934361851
0.482695239954534
0.592437962387015
0.513798911816584
0.495993345187662
0.466963296059871
0.508646072072933
0.47498204161791
0.484888533896291
0.463085543645792
0.461485388689249
0.482038359853682
0.462131055744147
0.46566347105816
0.446247817046506
0.451303078208518
0.473027478263413
0.461281519127874
0.449802452165586
0.471866773410279
0.434365467929511
0.453583524215087
0.456533896498224
0.464529463012349
0.429158877085353
0.421307303668632
0.423288343327357
0.408543182076784
0.425698473252363
0.425787603058634
0.418217872930776
0.420163338022751
0.394314576896026
0.405626028175645
0.39294734141071
0.413748859920089
0.380657112930811
0.416967637863355
0.385569793112482
0.386255731220732
0.394524272763672
0.383788029116644
0.412550238398776
0.395745830708735
0.381506036232401
0.364087842808445
0.402181186933105
0.374839472044684
0.382700079561042
0.367745126368606
0.355451370347421
0.369700669393789
0.357855128780178
0.349667215812171
0.373157366649233
0.358434030896666
0.37883272941859
0.371623910854206
0.377104513561237
0.372623666559454
0.339418666747009
0.344971847441221
0.336777573888934
0.344995938195611
0.340490142691645
0.335525191904868
0.376320711743081
0.326688705581378
0.365920211114378
0.34642125914272
0.354189794352013
0.351054093132318
0.34921963999465
0.355118034013515
0.357142338142068
0.368771468801648
0.380492701586864
0.358519722603381
0.391986508161614
0.37410750808892
0.383333270478515
0.37209565213851
0.389543618026013
0.386521028233745
0.392952556622316
0.407139990917459
0.409447696892676
0.408763273349076
0.421807798523826
0.41243531318882
0.463334500355545
0.436992147744945
0.452453626508542
0.46208029126439
0.467499564053904
0.511202972118204
0.474020216489252
0.497464882922318
0.489479009610687
0.502338264042348
0.505708488736432
0.505810571369715
0.536944735900183
0.544421702989078
0.532572065511707
0.539869483186661
0.540168570817987
0.543567961907135
0.547980168089167
0.579013971554882
0.553485327963274
0.651419713563672
0.570390240937462
0.595241393211024
0.572922278387199
0.582744132845346
0.579192868625464
0.583249706826914
0.585693477644554
0.585258470319428
0.593893154459947
0.607346962171658
0.593523408560499
0.602521051375351
0.598804547937223
0.610766111473924
0.60608975981866
0.612400157974315
0.612269638224377
0.609931681819126
0.631459109546549
0.615870583439829
0.628892781614692
0.678290420191253
0.642252976182161
0.648594459970352
0.635145561700414
0.659884738764688
0.646253169430777
0.667237943714561
0.68759177687207
0.674014991763496
0.675207169231651
0.674821607292884
0.680523554806326
0.674593928781857
0.684866817408151
0.709286428226285
0.694385842669081
0.718191739540425
0.670233129179561
0.755934624893642
0.709559549237016
0.721922264364315
0.712967070435358
0.722591006969003
0.716335548576196
0.719249517353311
0.71839896393745
0.727025685857832
0.72000701019097
0.728881898115985
0.723415495526793
0.728174502785269
0.723555741999991
0.740740949708693
0.727459874759438
0.749289444018108
0.734948975636613
0.73945202178305
0.721636132297896
0.728885246130116
0.708266328827293
0.743637467768555
0.714156332134758
0.737771752109263
0.722402236591419
0.734931151872343
0.728109568391313
0.738530441755515
0.725223449451267
0.731129267948208
0.709369001913367
0.743061029085272
0.719293496875584
0.751009527298467
0.746738464247972
0.755110390806504
0.735906732400687
0.73936342140517
0.74752866933448
0.750262267226194
0.747515792571308
0.765818333470599
0.756384385263454
0.770068780816699
0.761300236821745
0.77101118918875
0.768278340852986
0.782413529542788
0.782800064262197
0.776806808939053
0.773131194819624
0.772658921241431
0.768251229071606
0.77084807432369
0.76238304583118
0.767579894213816
0.747825483415602
0.758983303281023
0.739108908851723
0.750194829982563
0.759602937219167
0.723298319055428
0.740598102210766
0.72468810881281
0.725428474335988
0.719921275546808
0.71147680832433
0.703863710355481
0.701483253685885
0.702237622118614
0.692575919798906
0.687593230177669
0.689057960891881
0.698599061942231
0.682364620601638
0.687398602202755
0.681771361457918
0.687667325981618
0.681681217018106
0.67447239890881
0.677444577243746
0.686298763522439
0.67742513505971
0.668994151854993
0.678412739263757
0.684795527875588
0.685830837662399
0.680925456471255
0.687100670748929
0.674685229098166
0.674920124895802
0.668964416364035
0.675544995127396
0.67785180327811
0.678600540123119
0.684291621130974
0.672196942106369
0.667754996582285
0.671011545125556
0.668177619444163
0.667039499401743
0.670491967520567
0.670504831858531
0.670827368167062
0.664468063396147
0.674885599087073
0.660121105308549
0.670903203059494
0.662210667918653
0.668174441751213
0.666755730874331
0.67261337787371
0.667561090144214
0.671013640374694
0.666011462925614
0.661468831591275
0.665236364845695
0.656955228040141
0.66061052605329
0.666065052182068
0.660588596702386
0.661902302851283
0.662538326830225
0.658788642826959
0.657754697789951
0.651105760393783
0.650030137295734
0.644915535778645
0.637773035285198
0.63835425809357
0.633054726227032
0.62754100533412
0.627052152388192
0.615854921110128
0.617011942267087
0.608820717697833
0.60493101316891
0.606298708473989
0.60171280696077
0.600742332832781
0.596400469295212
0.593169135721656
0.594934759575315
0.592248686509873
0.587512818058737
0.585469284039339
0.58766674193062
0.593592185435915
0.588984426920533
0.593247800856171
0.58422107649552
0.594185980339364
0.585094035478496
0.58432988525376
0.589000650715204
0.595080044079018
0.588234755327324
0.594927289651296
0.595558917268153
0.598235082956651
0.600285712199124
0.606501744786756
0.607331929119991
0.608423152743472
0.602942643546227
0.615532908761717
0.6177872819473
0.612931695759588
0.619855183366813
0.620498877793089
0.616272800474829
0.624046059002224
0.613825566463943
0.618312156969065
0.623937060100592
0.621921964049521
0.624223715468008
0.619030511767342
0.618769426944496
0.614268807868429
0.614942397121694
0.610949083869772
0.611934964055619
0.609687944829706
0.610347660180253
0.606482144361301
0.608003717532116
0.600232862940824
0.603187596370332
0.599458058963772
0.592807093457228
0.594013450804812
0.589480431736072
0.590785353472151
0.590708855504136
0.587468612211592
0.583234441278967
0.585847844354931
0.581663563944725
0.581134344816625
0.581794843774207
0.57638270228397
0.573526648241981
0.5732679114434
0.57335821632539
0.568294883386842
0.573310928559835
0.568840054128929
0.56620558971027
0.569571222462705
0.565047819708835
0.562006045873872
0.553804875296162
0.557365513281637
0.55145814034193
0.552659041968547
0.551267152984075
0.544916672397661
0.546100403160329
0.538702141357209
0.533634595632906
0.534610949980591
0.527766725901089
0.522312413651114
0.5211700975041
0.513861646347396
0.513022675694019
0.509071288407099
0.511082996461291
0.506890356053097
0.503277739217891
0.509988652005458
0.504411423108415
0.503055734389173
0.501887455766571
0.499398971057902
0.499649700545728
0.492678070626668
0.490039811389398
0.486582163448918
0.480293001570584
0.481494308135304
0.472358043791411
0.472352835799957
0.461959724503044
0.457766591012357
0.452939738774792
0.447274599768219
0.443493919658796
0.440890290985258
0.439877423452518
0.442827037213247
0.443363699010592
0.446116565372786
0.451906989825211
0.464343501441794
0.468906285046378
0.476694279653978
0.489711222832853
0.502867622513515
0.518941795780459
0.530105135557076
0.55574145732313
0.572922215514098
0.59252390915518
0.611669963580481
0.629641280011979
0.647065553105897
0.664908858894363
0.68098915122002
0.702661834480573
0.719875218132832
0.740993974649064
0.761292853233737
0.780050956132899
0.805016981198137
0.815780404087973
0.829852038645944
0.84821190058532
0.862927096309729
0.870067858934831
0.881618729995064
0.887413961631098
0.913111215513961
0.907606789281992
0.915051790368904
0.930209602198175
0.91997022809734
0.938873732847342
0.935326327719005
0.948995101024685
0.947500814964258
0.944592609330774
0.936931193450007
0.93885352315027
0.939968240708559
0.946145837242684
0.945460309587539
0.943390192445295
0.948746216571919
0.954011068342337
0.948791010589325
0.956858000310381
0.944375062465357
0.95696799431861
0.975743306143587
0.978562637973008
0.992044380988717
0.989850391373849
0.996882844361599
1.01282413511094
1.02017830113407
1.02982276837847
1.02687847045442
1.05302246521354
1.06296750934871
1.07380970960736
1.09494087988386
1.11291310798547
1.1218877278608
1.14081621045465
1.13467211306173
1.15153113389827
1.18266486421177
1.1753925975623
1.18499759885447
1.19288194918454
1.17315881944194
1.1816854356405
1.17677682934689
1.17921554300447
1.16223156482189
1.15052195649907
1.1588859002943
1.17118740416515
1.15751880832584
1.16656724797622
1.15108516864502
1.18304871703163
1.17120498809584
1.20226694012112
1.18141600130661
1.22402988977534
1.23066944604367
1.24490222124812
1.24047172626919
1.28947051478897
1.2825611185617
1.29716520727397
1.30480462760887
1.36202390977553
1.36540875556097
1.41190397695091
1.40339294467854
1.44011574546086
1.41849169532868
1.44064631609846
1.4342039018759
1.49383288658663
1.50046929645808
1.52769381935359
1.54176304744537
1.58501083047143
1.58532129189239
1.6807909523255
1.60398155037167
1.67946246091257
1.74047530356782
1.68667046107249
1.67005929482418
1.71760145338007
1.75192840169436
1.8930950362934
1.74275665882746
1.79977851095965
1.8337591086933
1.91685623116129
1.81631398603927
1.84829396473623
1.84696213324638
1.94262917079599
1.80008985793585
1.80360398648043
1.74960786994034
1.82732587912974
1.85137282552134
1.94477786895116
1.81970854828542
1.8002126044368
1.83685817210281
1.90015300690626
1.7593363958016
1.74171038060491
1.92431008964147
1.91807044571162
1.90239429405156
2.16608065078144
1.86115908461305
1.94463379445404
1.92186194030083
2.03756863259566
1.93847243356795
2.0735134773113
1.99534848682873
1.91022782307289
1.97156225760915
2.03289083049426
2.10626278092353
2.25958873390691
1.96157168775642
2.12684375569244
2.00048853813806
2.22618122080752
1.88276667450918
2.16380243740532
2.10689219288538
2.03527954787272
2.20127093734244
2.09308497933376
2.13640164093579
2.25151600721893
1.98697786981451
2.24248390398552
2.24067617663319
2.14548762796557
2.02632673097855
2.02695690025888
1.89787435200325
2.16997519808238
2.05152637758742
2.23500579882362
2.0523954414158
2.25566535557097
2.04728381205803
2.26633055507887
1.97091050740192
2.10162220990826
2.03419130966704
1.94789966486923
1.83410220991973
1.96123416856693
1.95463372007906
1.9147948163693
1.72373292998392
1.74754498049259
1.68648620997164
1.72746161430223
1.63323458849563
1.66438487961859
1.55433128539141
1.65135452031239
1.63248355731965
1.62033736087675
1.5514370743961
1.56896923149568
1.54675640184872
1.56971902619425
1.49602081282031
1.53208810167491
1.50443957011266
1.58266016718674
1.47721842170771
1.51416324887015
1.48305206685365
1.47536844845779
1.4031868073666
1.39513689794425
1.36551597564355
1.34137274772871
1.295747852701
1.2843230126778
1.26957475617336
1.24490880346314
1.17850282180997
1.15794465563508
1.10450866939281
1.070408921446
1.02682509093087
1.01006032357288
0.958198682259357
0.93247100030604
0.884347654767348
0.870186505050886
0.844331290244127
0.812488426584315
0.802373552371044
0.78611354351543
0.752730881495465
0.742876895343842
0.718722972220987
0.712807694391771
0.696369108968326
0.698233017102601
0.684698174029023
0.678433890865865
0.673948023199186
0.67197189103369
0.668754635988626
0.664522914898209
0.661210388745978
0.67089849241617
0.658234215058746
0.675176374059776
0.674731119178804
0.677915974931202
0.687056044921154
0.675342736278534
0.670290003356955
0.671160804135517
0.674803647338929
0.669762927513512
0.652969668598789
0.663179159150844
0.650922290833496
0.650591875900661
0.650273141437086
0.649080092554939
0.642521249013325
0.651429226722409
0.634110546295277
0.635124481969919
0.622780956788526
0.626893947253734
0.625790026004166
0.633219083110026
0.631903932030584
0.636920578319102
0.640121143331829
0.649513179485771
0.640832930265447
0.642017145230731
0.650973556471398
0.655511677436607
0.662860999612314
0.660613567520494
0.657490113236124
0.656952390970366
0.670413710128984
0.680795655731292
0.668243861266928
0.681454061496192
0.66813239118109
0.667745903474095
0.674545203915522
0.67923615332721
0.677381221322683
0.680787289449922
0.683214587504351
0.686106314625491
0.676168265677889
0.698006838179692
0.705502079012468
0.717947149185972
0.713898670648571
0.722765556234372
0.732620374820937
0.755291939497829
0.761116151612013
0.787000726727841
0.798167645957271
0.832896340028326
0.843768211486193
0.848985257285055
0.863547649051136
0.853525205959238
0.858220674031516
0.86086029880755
0.858023855604784
0.88774857364822
0.860272382569326
0.851994724210476
0.843071184039896
0.824483858819642
0.806652715216488
0.811010212983595
0.79443134350456
0.822361856071649
0.82466835829436
0.8143605708887
0.810373720774377
0.813881819814989
0.821805598319325
0.825459806752288
0.806663385787289
0.805565516326606
0.806568821083626
0.814364942523729
0.778607050431271
0.79043065134827
0.788382751263585
0.791748298470316
0.782478057317056
0.771280290015959
0.77799420178661
0.788015845630221
0.767076768818423
0.761517836540556
0.758477864201469
0.765750591438575
0.74677726472789
0.743687134197999
0.749711939662783
0.749381272940102
0.752975571110786
0.773650586049639
0.738559176840992
0.746656511592357
0.750134942657875
0.745143267831265
0.755804394969566
0.765109197821509
0.746572138835518
0.747132848694779
0.731750333986441
0.735037567790843
0.72292610878183
0.732188603455425
0.737278159903564
0.75389372237754
0.732767876849257
0.743428799880883
0.726209951731157
0.737315540947903
0.715560327635616
0.730208116071548
0.731920948875163
0.730668773872621
0.720724195532404
0.734241228463096
0.711377084373181
0.716226059279563
0.715433762777173
0.711722590519428
0.723995925912576
0.730607688923939
0.73001113674118
0.730936697791071
0.723019746591796
0.701722618367262
0.736464092462954
0.753327037530066
0.720204793644857
0.748424239778071
0.744852181742914
0.749702727699064
0.766938608517773
0.764730637907639
0.75321487352517
0.770666337856111
0.774415658194887
0.79386170890004
0.731215404031667
0.756608784585331
0.748529507435829
0.765358050049232
0.776777755698998
0.796318969710659
0.787296754234721
0.788590175395033
0.799363568093038
0.818787655405791
0.827098587912252
0.833954459632112
0.829519651634499
0.862643405657466
0.8495270976995
0.85828880253156
0.870629660032787
0.89934308284119
0.973564515304737
0.968056206816691
0.880182142467358
0.985247307300279
0.962987991802417
0.955153301237011
1.01748550151724
1.05603214719553
1.08550808941589
1.09214899652129
1.12151077063512
1.19740586946001
1.04337305510698
1.04754562935444
1.14531165599434
1.1664507212559
1.0641923525344
1.14412429877996
1.11108157570205
1.0571717514077
1.09323318241032
1.09543061884378
1.09042334471919
1.16950639553939
1.08243682944395
1.07249672696151
1.04077425167906
1.12228159364461
1.0847499018563
1.09694907654132
1.08019488690815
1.10926008569847
1.12358436683218
1.1735144957211
1.08183920995954
1.03968327275547
1.10754526620082
1.0815025800768
1.03722490979549
1.10209875878082
1.04824353092232
1.0878061064456
1.14440884169436
1.15174753198073
1.03602258957177
1.09770117175078
1.08544395011107
1.13001416976298
1.11914802925817
1.0737257399509
1.01349944221116
1.18080787657584
1.00416318838681
1.00176623059805
1.08078669124441
1.15073791505605
1.14238158999967
1.06010134566411
1.02089416717912
1.05785953858515
1.10617647228416
1.29716627248653
1.15486287962178
1.07152874100764
1.15375493498851
1.1054108973192
0.999016853266012
1.13798027275582
1.24057051546069
1.17278904629687
1.15304424622173
1.10513374857263
1.02557217991804
1.27057243239074
1.04573184925843
1.1109085722991
1.17168638921068
1.18614093030697
1.13168603655065
1.13859054532373
1.10129523085813
1.04170669099959
1.20667131992157
1.51939898751633
1.42939234788912
1.30161979461239
1.23225517945455
1.27000384098586
1.27710127412826
1.31543181838052
1.21958123783725
1.2934651001667
1.33747488592771
1.27100643448578
1.26723514555226
1.4562557029926
1.3635804620596
1.61972662206029
1.44594548246445
1.13970132265762
1.53637231405742
1.91304866551737
1.31734916114932
1.35437192828853
1.54868036986574
2.90383370436571
1.50587330163003
1.30627902920938
2.50967597201758
1.42949228726487
1.08449342596035
1.46358158658128
2.0988131535967
1.14576384377908
1.16317589964538
1.29266018805825
1.27160248627873
1.24762374157932
1.12953248295765
1.39484670780463
1.38339003213204
1.19865010708465
1.2936709668552
1.53620085905745
1.91011049504711
5
1.40193285670853
1.41534492609626
1.68217434506844
1.04191245936211
5
5
2.317936852456
2.40441192084611
5
1.27940861122114
1.01926977350449
1.11924467079051
0.894601538855728
3.15045233347512
2.80699011943587
1.90548481440637
1.16063167327538
1.05569596253628
2.45896087483273
1.14709891683524
1.43537746529314
1.71188455555045
0.967042865280915
5
5
1.41469801171269
1.17837801860088
0.713897217794319
2.3070848248381
5
5
