3596
4000.36533379555
650.420452594757
1
2
2
0.0436259166454557
0.0526796362656978
0.0377263268580331
0.0624781488756143
0.0497672682292378
0.0663954403881667
0.0457335045646776
0.0589453855556181
0.0604928618603111
0.0684076202109435
0.05331840414167
0.0528595892703922
0.0534281809295124
0.0603769238757483
0.0523591672113436
0.059538635965586
0.0498453535221322
0.0654879491342853
0.0505360841311376
0.0691513836961121
0.0525930183463244
0.0642741007918457
0.0489426837734809
0.0611869365253931
0.0521610466882642
0.056663398187718
0.0499024822832693
0.0652489013889321
0.0466379410489351
0.0604488967244379
0.0456402283749081
0.0651919304499028
0.0546592649526879
0.0549708351625
0.0458054398169125
0.0717006327415686
0.0520271091468975
0.0638032564887201
0.0475291369685994
0.0634362084480508
0.0377086293010128
0.0642435567501589
0.0523872783134978
0.0600866174997842
0.0500104055114251
0.0556517224562386
0.046691083796478
0.0604623811767981
0.0494664290000932
0.0597231322395476
0.0487835367398954
0.0620420139318227
0.0568690141294318
0.0646724398012907
0.057512458859808
0.0755025688097697
0.0548739363492756
0.0636788486035433
0.0583468712492793
0.0704496071592464
0.0532768061495494
0.058531408185318
0.0426550335784515
0.0601818582641786
0.0434567442612776
0.0572305687164253
0.0584083109779995
0.0564723180106859
0.0537174727641805
0.0600430354322731
0.0475372110540675
0.0744308016368374
0.0582065832232186
0.0595702579618589
0.0505683948689131
0.0663380332621139
0.0411636645190654
0.0532543720565928
0.0576360610474828
0.0648015930072047
0.0525562096371867
0.0522672107086372
0.0444104070087167
0.0628146843086529
0.058383477046371
0.0603444448649636
0.0437450941686737
0.0638950353355929
0.0568834910901337
0.0543465592777168
0.0452052572739813
0.0621294500927417
0.0417700668572374
0.0503168194392319
0.0439582339133752
0.0534057705532887
0.0411907190174213
0.0469213174959607
0.052599880179544
0.0618794126350866
0.0518455419607669
0.0862097338529184
0.0337138797134468
0.0921584043482822
0.0531269366387063
0.0610122509033477
0.0653341623741569
0.0658877887357078
0.0567617753124368
0.0497040450865283
0.0460002485749703
0.0444437423026711
0.052529844742923
0.0478886996580709
0.0493058230263037
0.0784328466032378
0.0469271588895671
0.0534477490269787
0.0440031912725725
0.0482206507951816
0.0568369244431642
0.0769865787401866
0.0348602435015004
0.057879468274228
0.0540549914708376
0.0542450737733989
0.0562843439788098
0.0842547748676299
0.0512470428114775
0.060997357068814
0.0310149432373329
0.0613789619924175
0.0482264349474927
0.0634140724336734
0.0404884343555147
0.059404591283942
0.0313446442685373
0.070180490130293
0.0678285239470649
0.0628013379771592
0.0545012718104072
0.0523014740937725
0.0495358074315484
0.0778357697836455
0.054183464708423
0.0535009792572725
0.0428541030849293
0.0675952326376229
0.0436817617327544
0.0543693043606238
0.0360751505118915
0.059566939326695
0.051486408850053
0.0510385575571247
0.0644194753034706
0.0826950009486534
0.0419591971390939
0.111262091841604
0.0267883827496753
0.0725135849115197
0.0340786410728283
0.0581106371973618
0.0313935197168347
0.0555542602095965
0.0443300855988951
0.0654107675865591
0.0529359800276433
0.0591330715696586
0.0464618940179423
0.065450065769618
0.0499977714947261
0.0624627821266918
0.0728642362263757
0.0667867773660427
0.0498619205688829
0.0685651574727011
0.0527784757190548
0.0641404051897327
0.0399261942443866
0.0684572135951315
0.0351849095958098
0.0596107703063595
0.0317158427789154
0.0624231377923005
0.0397354570323907
0.067080957336975
0.0417369246462098
0.0575444504266784
0.042051549061241
0.0768208899420169
0.0613234022195222
0.0835659214011966
0.0431463027315034
0.0582715744285987
0.0286383827537712
0.0794563233235082
0.0531446530103689
0.0590873760302203
0.0420764086279027
0.048086711231271
0.039701509684458
0.0460265184546045
0.0393976312059845
0.0597896430936865
0.0316130884018278
0.0759761568045984
0.0367178520251827
0.0591541138845749
0.0390224123785194
0.0557344605281759
0.0445151205455741
0.0815372747079287
0.0583404859271549
0.0620368599936734
0.0394160863983286
0.0579693021656373
0.0549264131205212
0.0636284884809005
0.0420641631693522
0.0573469933129184
0.0408620265927453
0.0520018758044606
0.0417989365046862
0.0537863714548225
0.046307921022701
0.0498359341923619
0.0448294483734719
0.0546377003429191
0.0458208605652547
0.0637625054115389
0.0496635001361753
0.0585455514561942
0.0419160036348494
0.0517198798329314
0.0425993871746497
0.0689712108056315
0.0453132971662284
0.0643388788470022
0.0430835799571267
0.0573203780805019
0.0326017216898945
0.0595727069991996
0.0412636427592169
0.0648481238122041
0.0408210850075956
0.0860271133409722
0.0368357067866188
0.0630945172885431
0.038225431173107
0.0664520014249805
0.0452358520125086
0.0563398555601464
0.039651636810232
0.0594756497209138
0.0442531144271815
0.0613408816756611
0.0542591164763265
0.0656681599571952
0.0495848298272022
0.0593649245649183
0.0468689602681812
0.0590296618507565
0.0560933866430693
0.060362803223796
0.0901663409799732
0.0696074051053125
0.0428202874933153
0.0905941397158201
0.0364051380342841
0.0604258245101789
0.047438864152801
0.0568527755904981
0.0872642608898362
0.0980213867767446
0.0578810536128357
0.0609545460080762
0.0649889193830641
0.0595000801042773
0.0548820937100999
0.0714201298724066
0.0567400274141796
0.0894893845579824
0.0532457701187832
0.123732869934512
0.0432434551606865
0.0888612421820063
0.0516527976958557
0.0695580750770114
0.0516128917296389
0.0562981439365704
0.0503318810783169
0.0691153107527667
0.06398278323298
0.0717993228611165
0.065203924607331
0.0627644126924289
0.073641812871848
0.0737824706722777
0.0581072937726362
0.0697588135114062
0.074187516527336
0.0663672089924193
0.058972594538864
0.060168601865649
0.0673477361942472
0.0687220737159868
0.0606649815042384
0.0972753913634945
0.0561312432561364
0.0686233500357103
0.0677975665536561
0.0697800142197108
0.0545895152373702
0.0637042321319228
0.0588857370556798
0.0725417540931242
0.0597815200846971
0.0683258383115967
0.076165280920894
0.0848432243240904
0.0591610566740429
0.069754044309127
0.0587536825726825
0.0708342402401835
0.0643201944590742
0.0693801056919875
0.0600882828574811
0.0786417260202998
0.0580304257372722
0.078432442546228
0.0835356192444965
0.0780221473364464
0.0799092163430785
0.118254162954489
0.0583211083011859
0.0837770489353694
0.0652225468788214
0.0907951886444598
0.0648655467018483
0.0867887080696977
0.0675597293003108
0.0852521817191322
0.0799357289055421
0.102034950022942
0.0801914437148578
0.103029487968635
0.0960469554556101
0.146036108388167
0.0854778051936756
0.0974755286162665
0.0761873020507004
0.110196658132987
0.105496085051573
0.0997203415992946
0.113605364710431
0.0957669763641338
0.0953450224134199
0.105561817781325
0.0983812510629697
0.105542893380424
0.0949595273728218
0.110002660084711
0.0970397517860344
0.116171900313995
0.100373822902762
0.122060173244638
0.112362380147212
0.155995191980141
0.1195461362429
0.127158319802792
0.117447477091461
0.124000820265583
0.132554667604131
0.163502443953395
0.1320253121032
0.197453120955492
0.115076537465911
0.198307731969574
0.123067055173345
0.15170711726
0.12807039859534
0.1607169845949
0.146097097401192
0.166289116623191
0.150597951162031
0.160170562639313
0.147526294687229
0.17043533933397
0.15287315964034
0.175215872526745
0.156282487308226
0.188529732380325
0.162304839340156
0.184813993582982
0.167669107641472
0.195683444477434
0.203360669686999
0.225491873951041
0.189953790476968
0.191907308024487
0.178607671644735
0.194715381207338
0.195108806152779
0.208532071099845
0.198513398414424
0.213956626642936
0.224856243291808
0.237626747225277
0.222034985297782
0.247867702046621
0.202850260013035
0.246432471203084
0.225659730885997
0.249404035777965
0.234453979624983
0.263870843772941
0.225931907428157
0.268469714349347
0.269149404199817
0.261900181732602
0.252953314384616
0.26747508566945
0.242823031856305
0.256394544115627
0.251083922437832
0.285608897512043
0.264326352111059
0.298689087032034
0.278727099208889
0.297418429734079
0.272729842819891
0.29272488813983
0.287111377164638
0.320091121928
0.281373369923029
0.332906152854808
0.291973061981712
0.323817069646475
0.303112701085043
0.342890988890409
0.327057247418801
0.341971614807676
0.335623649692574
0.335951671674215
0.332038661241486
0.349756516675103
0.32805033173664
0.355194802985197
0.34566703503657
0.3627034837473
0.350349706124302
0.374002643622414
0.348365818820958
0.377352062378616
0.369101946122135
0.395545217851547
0.373425917090447
0.404037201501782
0.391176088534462
0.398283406333112
0.385589802898571
0.430028517921338
0.386051323009231
0.4441271359036
0.439223833933379
0.438558199303562
0.438539058385736
0.443796949474839
0.408654867910438
0.43500161240982
0.428523098408122
0.484138182765369
0.428837456647193
0.473553971318605
0.458247077337951
0.498116493091003
0.467472613161487
0.476207161126914
0.455641238376091
0.516452861021519
0.463515639337311
0.52110966772879
0.460486773511041
0.537887984304299
0.499980821853075
0.533095392947865
0.494904631837567
0.543836648956608
0.496377683964278
0.565699873307522
0.516599011223787
0.561724065780306
0.510460215541081
0.582335661326353
0.516172004764216
0.575098958335322
0.56051000616331
0.620796033874339
0.550369152731993
0.603678613631048
0.53577639617338
0.605849887956696
0.573168618477908
0.629081465758605
0.585346003283782
0.63073169445504
0.621096661902526
0.611337265644754
0.597043767032612
0.65185489102597
0.624948108882688
0.671074131126807
0.633623686049907
0.66868813079396
0.62696156677713
0.680772274358148
0.638095860001837
0.6788912884169
0.659003791068067
0.71353446255948
0.648025080212782
0.704610893651783
0.659173646683752
0.743353937167751
0.665929797406723
0.735280782892339
0.673045141752581
0.748843287771453
0.709123772520727
0.718371949441827
0.696177149309595
0.7833779909633
0.693701416142471
0.773246712145636
0.688195641013562
0.79022892333211
0.723257905498216
0.758437503719083
0.720455239106899
0.817764603872312
0.749040513321258
0.830128179899429
0.785799733521743
0.823405826073452
0.768966275578158
0.849509287698492
0.761903525786414
0.810226240536421
0.784337419311695
0.859529635908761
0.820271505615549
0.840139536522748
0.832646085444042
0.900790441492589
0.820752742626518
0.901821041583466
0.788651940170028
0.875457700988991
0.859987393376172
0.896436244000465
0.871805506707464
0.916749030867056
0.868872349509239
0.925620008181063
0.880355256558442
0.947430666351087
0.871434034798994
0.923004450259594
0.856148797410704
0.984736395158725
0.918843651186795
0.915521797646961
0.908615790314282
1.01077611626665
0.99568405611648
1.02266988818592
0.976221470182544
1.01613418810982
0.894749468725025
1.14921496856868
0.944578406817471
1.08456354497849
0.943488395799879
1.02472460684681
1.00041278991366
1.04914126731211
0.976868124950293
1.07236413479747
0.940492185505074
1.11542033418275
0.985616277157704
1.13785752725285
0.99766751909694
1.06597404476655
1.03846266173022
1.04187995114421
1.03691220211197
1.10263579069563
1.07281070533725
1.1591691460457
1.01250661537284
1.14561927246406
1.02047137100105
1.14722802821708
1.03384336665816
1.14926990364092
1.06777253664515
1.12428546164692
1.06781363152437
1.16150019894791
1.04697672176104
1.1943125717681
1.02678651132354
1.21053001391187
1.16640298467705
1.23304507383662
1.09078918977139
1.22278794939746
1.11882410200514
1.27540477965223
1.25204199075649
1.36005653936583
1.18093575616961
1.27954360497282
1.17756365948848
1.22669715031788
1.1239799049153
1.2592452970179
1.18427176282508
1.18371224496057
1.19397897965475
1.33004894324952
1.1150770415646
1.20212302883159
1.15867372125395
1.40928811674212
1.1915605965615
1.3006451622439
1.22863960807061
1.16076618947086
1.1821585212345
1.2124319000008
1.24902269676083
1.32862487443897
1.24049044180113
1.37219367582568
1.23208583614207
1.27197737974346
1.22710231058964
1.40021363558329
1.20524771724068
1.291755209201
1.24995679497272
1.42507252470269
1.19505043189565
1.25572957043515
1.24299093070236
1.39669426515269
1.29946088607386
1.39953377571589
1.33045358635474
1.43328374088978
1.30325462899079
1.38608686713021
1.16129181626794
1.34105536906515
1.21537734524829
1.40459855789082
1.24218934798781
1.34023317651905
1.28132037289956
1.50571925796238
1.32636862626881
1.37270582575723
1.18290204610253
1.41382154887263
1.24082188176517
1.38529385742058
1.25715433195136
1.41154883183355
1.4189610730879
1.62444455301667
1.37493276322811
1.55266220504876
1.3892992704082
1.47088239964523
1.40654714883931
1.60157570615505
1.36690526569054
1.62228296061281
1.4309983764494
1.60026412166193
1.35986667704542
1.4583560014271
1.40116221123096
1.51350728619906
1.39149605731632
1.65503361228256
1.53741035892932
1.40567196441029
1.30429788207588
1.54553279714966
1.38634303628141
1.44333041996858
1.41231195447589
1.46041212507678
1.31193322734511
1.41898706918602
1.34247005338037
1.45608349707568
1.49327798638856
1.58026540391586
1.39759329790273
1.52873039287585
1.45400261854551
1.44632691776169
1.3681962642834
1.5874919653193
1.4627219970586
1.59481148685405
1.36017435841517
1.5480537397092
1.47867255172368
1.50873242466126
1.37202984054128
1.71794033695312
1.54123360886236
1.48346536311836
1.4232054484343
1.60010086979283
1.44812851425113
1.69993993832266
1.35362717531679
1.49795266630726
1.47305321722155
1.5541351802105
1.42424829241307
1.52918534167054
1.33198504348033
1.49419969565057
1.35297430853345
1.66337669569303
1.47536859507315
1.4014355996615
1.33024138202983
1.33187038609722
1.41623745739435
1.49377166957883
1.41291124103859
1.47698433203443
1.61968756046821
1.55545726294178
1.39002063400479
1.51142221493974
1.47145355517665
1.38485628075511
1.37905747911293
1.74101548133132
1.36903972721902
1.48629194526781
1.40249424980305
1.42686014748691
1.49479553793814
1.68531418658138
1.37886801698936
1.48234510387887
1.47121783139315
1.51879097589801
1.43632298691032
1.53559910100595
1.45673490203884
1.51909997891518
1.43613425730916
1.38386724010832
1.47115884556659
1.52840810258234
1.4513557500329
1.46949854718881
1.48635988828764
1.50048134344827
1.44958120112812
1.52915690839562
1.40906651157051
1.53440058532586
1.47641883438285
1.4439159351351
1.44122396637237
1.5590697817189
1.53587813155791
1.50322985730799
1.41593955458195
1.41998116832422
1.37647000597048
1.4732067992088
1.46363520706317
1.44144303476876
1.43227361170063
1.50469633773361
1.40719751950533
1.39621615361789
1.34063287903018
1.52425490724665
1.34883010780377
1.46415716930274
1.39077653537516
1.43621588574061
1.38676651252254
1.33810943713529
1.33055030510879
1.38573986455
1.340713590549
1.41996053370011
1.42494615064819
1.43398722490432
1.45625888508965
1.40589133071036
1.32319089261598
1.38688529700625
1.29842724724422
1.33956208373544
1.39043876141604
1.40755723482679
1.297291246403
1.44061930223959
1.33611479012464
1.35851632622966
1.42248615679908
1.4211715090088
1.30828345771789
1.43148537651623
1.38876610926256
1.39099949210959
1.28512916175216
1.44417094596433
1.27238403463398
1.30784894764671
1.3549576634084
1.41982427740097
1.25805893641242
1.47535454639324
1.33313207408605
1.24853401017744
1.34329578256574
1.38691365889579
1.31547229038004
1.31087084448233
1.33638148300552
1.355057029706
1.27153758773351
1.28288341675459
1.25110563974826
1.3169384688162
1.27393763585349
1.31491577539813
1.23925255333555
1.23566093178725
1.23447294180141
1.28908519558831
1.26712451835292
1.28666877510225
1.23248217351474
1.2328515412644
1.28864385737484
1.28782829315659
1.21974132003809
1.22026833233455
1.26722748626046
1.2689235119255
1.20494248097789
1.28211533243347
1.20697517565195
1.22385803770435
1.22894068358349
1.2279222397436
1.18200602013557
1.17087648996539
1.15878427186339
1.19924461642926
1.18053764444698
1.18133161851551
1.16299867249432
1.15564956459649
1.13412510114084
1.14726617843397
1.12827226202991
1.12988052197119
1.13575190620397
1.18375010256321
1.16897297693312
1.17824464966472
1.09419150926477
1.15451109459341
1.11487871864138
1.12270438415237
1.12003819397865
1.11403557456166
1.10534385208947
1.05469802726062
1.08332717290635
1.12727469355819
1.05305768156181
1.09901421601072
1.07193407260704
1.04990254686604
1.05620753716487
1.05235164772133
1.01452286150668
1.07433251431998
1.03670312952143
1.03476230168867
1.04064693108768
1.06760013973205
1.02394459423467
1.05100564333748
1.01015898603744
1.00765881056413
1.02877432324063
0.983220265975488
1.00208775551148
0.993991080567044
0.96660954037757
0.972519042704107
0.961621618895313
0.97728413037991
0.949794678296556
0.955638089187899
0.959685062643194
0.970861745449357
0.92412954106432
0.946052844384592
0.935595312953965
0.944871207423722
0.928584413370493
0.922553047068065
0.911351949766483
0.929879854862577
0.939731703199401
0.889102378036673
0.890520648621006
0.921733506982092
0.877620146586932
0.920133334883243
0.876966644879872
0.875066090413572
0.866271475186458
0.866147817554601
0.857253420498068
0.867915895514637
0.852188110315397
0.868226987888212
0.82999528751598
0.85202378753119
0.839851661695074
0.816803924081042
0.845792120698792
0.858268755120507
0.815898438502264
0.798554322611156
0.815391276996663
0.845190651516007
0.819353701695918
0.79996285824208
0.79349650753351
0.802498449529383
0.788552512234227
0.792936257563206
0.794555098250755
0.800381489943548
0.783096501482325
0.775431112761954
0.768545618548121
0.758541705165626
0.759829997532944
0.77445395368813
0.745217214165934
0.754280285412743
0.731738371786538
0.744202460512193
0.737942153291536
0.727456682854045
0.737023441354036
0.731030833727867
0.727589492197468
0.721857478607987
0.702768731434342
0.709472430536707
0.703791206288066
0.702340483297261
0.70869947227452
0.702421841228465
0.71150210864808
0.707156537831209
0.68748531938556
0.69313891394206
0.674941391076816
0.67236810313722
0.661298688539657
0.669057575799859
0.655701741508956
0.672097003850479
0.664928990138147
0.667619549274506
0.644464553731398
0.653628353380048
0.65436208889701
0.646556763210704
0.643014348216286
0.640542995798956
0.630381728159779
0.621931818217013
0.632111333696405
0.632980958379921
0.63041600547919
0.61685650105448
0.610405211147217
0.616810712634797
0.602327159304863
0.60668979162948
0.605584249819826
0.609122501643102
0.591180290439115
0.592786261342556
0.591665246048965
0.587171672382626
0.58177234495362
0.573870998072004
0.576495585584259
0.590278198698655
0.57606089690598
0.567407557533515
0.569095599469114
0.564294360433576
0.556049119372015
0.556765584273341
0.54850058853761
0.555901854558884
0.554254612161081
0.544447795178625
0.543003644557764
0.556260012571983
0.544407344568697
0.544088607686399
0.538055351430665
0.529535191395985
0.534193675028797
0.530849767672712
0.520456377161263
0.530778916363359
0.517642538328529
0.512443608249292
0.511015203330557
0.507626715797778
0.515967391469624
0.518594907458476
0.510992718422922
0.505102956928604
0.501107239335592
0.50397468194503
0.495181780436902
0.503410696988706
0.494285675930028
0.494520787645305
0.496962855986909
0.488221316132292
0.489245812698731
0.486177814099686
0.486673368848393
0.482551080073145
0.482844050589373
0.480218133099108
0.47437501415328
0.474868682458769
0.469761171950026
0.470693271042617
0.470903029798778
0.476476096622649
0.468877582255384
0.472521576540744
0.473155487887312
0.470810718743795
0.473098907283038
0.47672883950971
0.472769889262323
0.46937644566614
0.470256488118158
0.465674159526596
0.484585293982409
0.479570925633885
0.46993710124456
0.473882397760876
0.474397264378074
0.479447124772402
0.469467376742247
0.480626605422843
0.48330202985102
0.47693019798547
0.481808963112641
0.483630176186931
0.484812319491826
0.487702032595566
0.487503403614172
0.492660111390422
0.488062606218349
0.486272705618156
0.498438271247511
0.494122515198357
0.499041284628516
0.508073790526535
0.507950413406418
0.509326194461137
0.516604904951798
0.513501090948557
0.505084212078733
0.51910310418078
0.526636519404188
0.520951962519791
0.520239437526435
0.524785807198902
0.525259107107877
0.522592355272429
0.529117474006042
0.532699489292871
0.534902351990124
0.535252391044175
0.54500939368023
0.539079690025322
0.540752689220694
0.545657476584427
0.547061366327636
0.553294543441388
0.559826446049848
0.563461848595492
0.562710784830033
0.567837526506445
0.584241608642636
0.59176014399825
0.591363990303439
0.582012927177864
0.594193348107807
0.599582481056668
0.594792478162072
0.603094907139659
0.6038867261788
0.599997332624333
0.609119770539934
0.615385969968353
0.617882910199407
0.614280334920725
0.618325569532213
0.615313762525801
0.615337577039056
0.60807099175914
0.60763998302016
0.621305653665043
0.630203026042959
0.616914975224865
0.607653587118035
0.623119707507577
0.628225623467486
0.621253585983008
0.626090246732518
0.608937003533612
0.625606897922598
0.629901164626442
0.618105227880577
0.616641739035131
0.622869698442813
0.610226790369395
0.607683893784854
0.616103036694637
0.61335296461794
0.607650412199542
0.612912496637047
0.611974963024546
0.611893014835929
0.607210037477671
0.623106359385383
0.612789121315164
0.613005074680046
0.611373282272254
0.614804664522061
0.62224117594785
0.618455590185943
0.622536294163231
0.616923473089704
0.610120315265534
0.626436016268679
0.61458298145351
0.615800023423987
0.613470496741767
0.611024399124879
0.616505950636261
0.625034129589252
0.619535022769331
0.625613958947879
0.61852918801081
0.622871675888295
0.612725193106585
0.618629452413441
0.611345298469335
0.604288581421576
0.602010250530312
0.60510983803626
0.603108231669499
0.61375753211019
0.621801027183197
0.615559299903627
0.604449657939069
0.611204563248623
0.595969667713672
0.599869107874488
0.598918858195833
0.597639371719962
0.581917706013463
0.583257616315041
0.584520708201831
0.58293291950244
0.569587388533512
0.576646235167477
0.573046061446613
0.568641122603818
0.551913470599099
0.555798539517016
0.556136354841875
0.555245373649792
0.547056366769971
0.548663189094515
0.538078722201957
0.532695662011618
0.523891694920873
0.525557973137697
0.515479572336873
0.523756584854231
0.518702349805474
0.50663923065648
0.504427969985546
0.502714281928372
0.498493176677197
0.502979084893547
0.498388430980155
0.491618273487248
0.489128218506072
0.494849715788649
0.48001261252723
0.474760847946762
0.480292754023641
0.477783702474569
0.467219086293244
0.465730434248509
0.460685474898906
0.461361800969291
0.455113796576896
0.459651509832984
0.455238678835932
0.458102551361347
0.445787225196633
0.446749202894785
0.446587379142418
0.439429858514063
0.433858620136418
0.433904790048339
0.426858385463491
0.437843895820883
0.42684698948063
0.431988744253235
0.423597706829502
0.419127993957882
0.424101013733909
0.427736116567775
0.41817745126881
0.42109605848461
0.40754965429445
0.404505830464911
0.409695992549693
0.413797833241102
0.408800774607182
0.41317059528142
0.40630567924672
0.40389330507902
0.404200085875126
0.409973187335156
0.402527993070793
0.40179623483209
0.397217370313112
0.401101569704378
0.392540911136135
0.394939897000858
0.395881737145208
0.400751287932477
0.38529341866119
0.383860442283069
0.385166373406884
0.386975487724404
0.387567996119885
0.38093762647581
0.381592700710701
0.382440576886555
0.372205362520664
0.378073982054239
0.373992602556262
0.379715730787498
0.369244551191132
0.370678970105688
0.366841838476733
0.367079227845001
0.36598503470145
0.371550454632676
0.366168561738437
0.366203766370143
0.362264818907001
0.368951626115485
0.361100549383216
0.362963064432159
0.36585134301679
0.360197019316041
0.355193582300619
0.358229412762545
0.36322526789508
0.354231911538398
0.347332160129156
0.361329794547067
0.354641443657977
0.347744153435077
0.343969367828062
0.351967576580355
0.348805733693995
0.350474790997301
0.341715614184166
0.34837672478236
0.344431005649759
0.346697219464628
0.343848372080793
0.33956443480554
0.343130578297138
0.34962827901203
0.336996697488221
0.341720179202913
0.338740470688988
0.341533221227907
0.337077033857838
0.339481910590267
0.334490715319055
0.33107182782984
0.33013377379125
0.334405911656723
0.331897356305428
0.336561948301344
0.327848549590666
0.334288109225767
0.330896857456294
0.339911724417769
0.329550304606974
0.330136036764759
0.328799299172934
0.334139955983286
0.326086022517752
0.332522055869043
0.325818622580457
0.328978234688684
0.322134390688435
0.327259347727298
0.325345834483729
0.325622888334211
0.32448045248227
0.323938912970368
0.320228058415569
0.32491356938461
0.321060482118956
0.322944523499125
0.3242650044353
0.327452779192164
0.323127440615214
0.323778776091889
0.314513608403704
0.320388809437655
0.318931136978567
0.317352840903463
0.310026693034959
0.32000482703416
0.312345450185337
0.316570024876304
0.31306165122586
0.314949152228412
0.310336441229926
0.314987263046636
0.311885322078575
0.31373309632618
0.304527326656749
0.312809598628138
0.307333628564777
0.308189161564117
0.302499926205126
0.307296464058578
0.304405103323195
0.306078759599086
0.304080994314835
0.308888176271153
0.301538307965441
0.303272265515032
0.299080937784445
0.303895623248921
0.298490760018536
0.296189344544122
0.29729930767374
0.300678024094488
0.290109686269511
0.299629640340503
0.297293573959379
0.300994002425544
0.290969041341118
0.289949677358966
0.289094604893955
0.290255612715171
0.290793126596788
0.293995119737324
0.291611830881993
0.295255345647714
0.290010475266005
0.287631373814148
0.286047712238035
0.293552862887048
0.283738069314469
0.287874487628145
0.279959389720532
0.284287459180723
0.279908678857704
0.287884388989184
0.279690442048367
0.282901931101982
0.277975089436181
0.281083675250455
0.270975121691182
0.271279313450279
0.271124932559638
0.280787596181359
0.273402785120561
0.277322932841641
0.266466307853784
0.270268349143802
0.268065065504358
0.267106453392607
0.265456634945763
0.2699126601955
0.26770599925712
0.264495925318376
0.264119924614481
0.265059698384614
0.256753575947657
0.260722909638703
0.256802654613778
0.26038259019221
0.254020532050457
0.262381737831265
0.2563314336752
0.256305500406918
0.247607770395312
0.253525149929562
0.248083487200705
0.24918487651409
0.24286623581192
0.248912311077299
0.246066109954721
0.250207803609548
0.246133883951736
0.249034327595837
0.245760846634709
0.244845477724246
0.237235290134304
0.24834385868462
0.243482912278446
0.240415842507912
0.235753431703178
0.234804986166764
0.234199788563038
0.239905303683505
0.233743780829099
0.240294103150469
0.22979632396345
0.230767145841818
0.23221088862357
0.235481119824481
0.227891754146329
0.232791477959764
0.227082019113985
0.23054373565105
0.228881135959786
0.231491227684649
0.223336236758574
0.221500989796988
0.223781237499413
0.229847775833677
0.220372727729515
0.222921273485192
0.221459896133061
0.223511353021237
0.220325243407147
0.223620421118486
0.212727804505791
0.224116916158762
0.214868007663621
0.2205297156741
0.216325703049543
0.215658095015966
0.213500539915282
0.219497020254245
0.214732780001402
0.215218900502455
0.210988942802751
0.211745505549978
0.207133641089056
0.215619862605601
0.208823533421205
0.210038696055352
0.207279327180558
0.212070940522364
0.211927721740082
0.209983992250144
0.205724255088359
0.211095809875201
0.205837457773878
0.20783425461725
0.200200942632757
0.205441075078569
0.202000810407156
0.205811004654879
0.204797943885312
0.206249583927276
0.200826477503513
0.206651183879161
0.202881661815456
0.204740418829941
0.198817640977272
0.200451047617936
0.199493712368367
0.203141949476472
0.196817971478846
0.197291009903546
0.197042542566387
0.19582658188682
0.192884157005058
0.198186755630284
0.194087418664579
0.197934966321321
0.19776984250338
0.199583341317357
0.190492828364457
0.196342643283525
0.195781066488733
0.196128877060328
0.195806809884931
0.193040227142584
0.190687844696612
0.200507490079449
0.191938464276964
0.196792844364744
0.19226202608135
0.190054501866578
0.189355700498273
0.189377753938902
0.187394778426871
0.193006523939721
0.191084546932114
0.191000199806822
0.183401816581913
0.192316986032229
0.184277992825279
0.193325031588089
0.187820238218493
0.191730868415183
0.183422354423182
0.185429644155957
0.185067295802355
0.189196034484143
0.182693977556103
0.182699295853868
0.182517537405131
0.186651062399615
0.178137288981776
0.182366740663921
0.17697780004508
0.181599455890945
0.181525328895639
0.182898325741539
0.17786728500347
0.179953382714417
0.17616631012795
0.178999980254148
0.18102146976297
0.184074698926364
0.178066141686603
0.176935129610859
0.176273894998191
0.18013122759964
0.17433665263795
0.178604426837559
0.176211473326991
0.175292520080591
0.172125013027055
0.177606899484853
0.173061313678062
0.174983605355388
0.172156542510992
0.174753690326743
0.172940269677423
0.173904571707657
0.169268718498762
0.172890634059889
0.17310649763572
0.1743251131232
0.169363025430038
0.169213850625017
0.172782587162795
0.171094873695243
0.167269507231187
0.172336231253927
0.166911516439253
0.168218790369491
0.16662120735293
0.166710183235402
0.164282168656819
0.167463703527518
0.159734788860317
0.165930535075209
0.163197929470257
0.166396696171873
0.167191220973351
0.166342680953679
0.158699261873995
0.163780609300573
0.163938073726223
0.165004237679685
0.160098117234496
0.160516168643811
0.156305400207912
0.159721247053999
0.158750741373151
0.160403633256357
0.15421183460973
0.160373918710614
0.15127154713619
0.157084103154795
0.151569445204295
0.152580314613937
0.151508144340024
0.153312207096262
0.152938717106794
0.153987893046455
0.152601903532954
0.15032252027117
0.150868059973003
0.149352673189276
0.149316314919664
0.149887892547204
0.143905631492327
0.149061784058651
0.148267992017718
0.15011218232372
0.147641805476914
0.148102951346964
0.141833128634345
0.148492465001759
0.143319981543611
0.146674681211276
0.143691759207123
0.146214075493106
0.141692880308976
0.141687050838622
0.141210267422944
0.144408157134401
0.140512542257428
0.141475326528405
0.139115271933132
0.139518264026022
0.138192979435065
0.139276742384727
0.136202804174075
0.136165698456972
0.134481782404102
0.137341792352165
0.131688931770771
0.137388183705944
0.134703688055267
0.135614520049005
0.133574926283917
0.133103361510422
0.132962329099859
0.133725564389387
0.12991591269369
0.132670714763833
0.13071921573824
0.132840455824973
0.132052351531673
0.131208045073508
0.128963677854057
0.12947857201456
0.127568470610016
0.13119717539448
0.12651012054718
0.125722727305509
0.123994437244157
0.130865232945924
0.123904039062136
0.126386809586618
0.124715310339404
0.125420384365734
0.123309556708019
0.126614666686004
0.123219332951276
0.126420175819715
0.124652123281777
0.119671554452978
0.118794359825323
0.120270389985668
0.121220833571821
0.124383402005156
0.121467073937524
0.121901768436907
0.117695817556222
0.121231880143326
0.118915578784507
0.118462203034207
0.119092551757957
0.118649998232121
0.11485727109781
0.119823966834744
0.118235665915749
0.119817836821182
0.116740385110328
0.116643482591125
0.118320552884058
0.115553475031641
0.114104117020259
0.118651026430896
0.117670659045455
0.118995524567687
0.115814812079485
0.117458455397193
0.115616194893846
0.118487783735355
0.11977293148504
0.116898861742602
0.118335918274837
0.121972204861464
0.115587270779696
0.126990319659097
0.119436689516185
0.125023176818539
0.121751453010635
0.122514026051213
0.114718333727293
0.115635242975779
0.113897857814895
0.118171896276299
0.122497065906284
0.126055176682932
0.112113051919618
0.120594115398683
0.122792643824942
0.114792535271908
0.124224112247097
0.118744726144507
0.111948078943619
0.123064791374195
0.116285407954096
0.118680277120285
0.111846208619065
0.116839987534298
0.118446068941765
0.110401967989841
0.11669629239585
0.110003611178677
0.114364509957978
0.105159834973744
0.123147926368907
0.113107919038262
0.117289000979645
0.109514006369926
0.116604772990017
0.108015578571335
0.120784561706431
0.110450201221911
0.124207733698258
0.108135166098183
0.124068435030406
0.107541650282353
0.117257131346319
0.10561419716096
0.117815191033538
0.100854189773138
0.12171969342163
0.104928005376926
0.127702614034541
0.103663940871998
0.111210059714132
0.0995844209583115
0.114784674448256
0.109654998088425
0.116005813789169
0.104277929909682
0.101642854083651
0.115385639690747
0.110595432057839
0.112812238730247
0.09541216195831
0.129529316507073
0.0919407328145528
0.120711483070436
0.0906341476452247
0.125669519148966
0.0906088915248687
0.132149932720487
0.0929040626615268
0.121820325106777
0.0944663106255135
0.11376142935392
0.102748213234021
0.110380428938381
0.0994015941268382
0.106739077045833
0.103075922937268
0.106222810953073
0.102133657631384
0.106175121165406
0.0987493198011369
0.107237969168796
0.098035499699539
0.108453596390928
0.0984235200755929
0.107203477749453
0.0995418343536634
0.108753808485937
0.0991676343706051
0.105966007214122
0.0989139934553335
0.104043337759802
0.098048990482078
0.104865747290915
0.097637115056527
0.104618912638585
0.0973405847571578
0.105162466007114
0.0954504598182827
0.104164218722644
0.0988714467339928
0.104441500213183
0.100337510150707
0.104239155133038
0.0969726247541335
0.103733325724089
0.100036353729565
0.104353824133457
0.0976344868252504
0.10494980211416
0.0995353045926175
0.107068082098468
0.101329306821299
0.104756971275754
0.0992380797519057
0.105988145858359
0.100458180169943
0.108923582641425
0.10050101005601
0.104642474121361
0.101728082510597
0.10469430358855
0.10245443058455
0.106674075716416
0.0982462704282323
0.106222924434202
0.0983935346825171
0.107451734265251
0.0991561781562763
0.104435411212182
0.0989283308182529
0.107996249077949
0.0993841843179286
0.102455220856608
0.0988926731203235
0.104219078564121
0.0977588458315708
0.103607376046239
0.101010214495186
0.106067367510586
0.10031727471225
0.105767507187302
0.100295735843495
0.104723791765107
0.102198134663523
0.104243804016985
0.102202684348003
0.105125936842964
0.101686005042396
0.105943776669645
0.103942337413203
0.106184119339429
0.10069031224708
0.106735271962647
0.100779201311902
0.106943718629397
0.102125222775045
0.108964561238044
0.103372604532383
0.109531414990414
0.102825824818638
0.107620928380361
0.103910600414252
0.106702409668271
0.104428517157777
0.108524244273651
0.105942079681007
0.106054275397213
0.103460648839514
0.107238725901662
0.102681746963784
0.107573635801617
0.102448728845395
0.108206188189499
0.107342246894114
0.108712050825749
0.1051071462514
0.107213912573406
0.105362587332959
0.110606688953339
0.102739787080978
0.109820304206023
0.103682495109216
0.109510710619971
0.105175882560346
0.109579609083004
0.105022291158774
0.109414083331293
0.104769166745728
0.11203948775931
0.105112745637696
0.109563658973683
0.10654164331664
0.113735098552147
0.107192569491222
0.111930570118487
0.107889014314198
0.112328394011719
0.106205600960485
0.113638486664343
0.106034716691964
0.11296900361291
0.107786182275198
0.111576518235553
0.110398524448141
0.114871690927483
0.107356578821552
0.109866328343073
0.109138034209217
0.114507636975497
0.111656900818233
0.111989382941563
0.111211572489414
0.112417104526371
0.1097677950925
0.114092561170906
0.109447761293069
0.112940192803603
0.10730239371703
0.115091517903832
0.11260696439163
0.117509690866449
0.110512307182526
0.114473893420137
0.112196747078932
0.112632952907525
0.112168012527297
0.116478766327696
0.112501965699481
0.116118484781725
0.114050267175599
0.116682566338689
0.113068475986055
0.118138349187877
0.112143672271725
0.119446174655342
0.114794399215816
0.117173436263446
0.112376235238614
0.118428767544108
0.114421862485287
0.115624986156476
0.114381827067753
0.116258891013383
0.113572984644349
0.115311037447481
0.115756373148787
0.121838421761268
0.112080330452496
0.11885563183837
0.110983537570505
0.11759321857947
0.112095868883407
0.114693880825122
0.1120699499627
0.117817709968651
0.112289362608661
0.114517083400082
0.111938943925747
0.114276955129616
0.11008447441234
0.115388987078473
0.113656251768088
0.114713536383061
0.110136107129762
0.11427660862095
0.110633696488884
0.113849315191576
0.111410839467438
0.112653912350594
0.108514457033509
0.111914368030919
0.108231004074326
0.113174245571319
0.109847174915374
0.1127469362911
0.107349750776089
0.114774153494204
0.11048346168127
0.113535571215828
0.111915688629636
0.113219965981025
0.108516431034202
0.110565348453846
0.109364256348892
0.112396018019393
0.107822014577095
0.10871357480564
0.108929638845163
0.112642940598297
0.107651858963297
0.109507850257946
0.109935784850799
0.110743001847444
0.107714083072849
0.111772053145265
0.107767546693612
0.110120042828315
0.106554435032752
0.112094108183103
0.106996250743429
0.108818258312972
0.10552312478002
0.10990384810929
0.106881994474898
0.109622505175028
0.109343858134731
0.114059074852736
0.104515962729861
0.109250990361937
0.103072409965402
0.10705272856938
0.106228436928507
0.108682940337306
0.101039498744253
0.11151802472709
0.106889112988917
0.109171681528075
0.104839336260616
0.108303274755533
0.107094356830168
0.109300036788052
0.107685689180078
0.109208048212902
0.105317520503181
0.108377665852512
0.105642451425483
0.108390859451828
0.103512691203171
0.105278918944501
0.106699939070977
0.105303097481532
0.103124479820795
0.110734127329965
0.104862694418795
0.106101072090261
0.102888347646776
0.1043548150429
0.101699472657518
0.107984425027958
0.102708373443692
0.105209420554387
0.104200850747565
0.107778185876089
0.102431847392346
0.106899252647089
0.101110788642186
0.10432590132551
0.100616829549732
0.102769453921419
0.104887231311075
0.106911008063405
0.10224452682851
0.102396496657409
0.0981214686186929
0.105391978309856
0.101218158292541
0.101752129588501
0.102895201571334
0.105554352186381
0.10088840783009
0.102455454604989
0.0995824084659701
0.102398460292332
0.0986686787586806
0.100627566265533
0.0981848266076861
0.102286582101092
0.0986427869422929
0.100976304926955
0.0980265104459666
0.0992314453101404
0.0963090981659752
0.0967042996336112
0.0961207256362578
0.100749203130212
0.0979271237708328
0.101262835206825
0.0960868885160479
0.0996521735534677
0.0931382627935127
0.0992691805944003
0.0928141659637691
0.0961948937252373
0.0942712345485786
0.0958963214141188
0.097848012767069
0.094760610302175
0.0935584470625711
0.0948468946796305
0.0926386739266977
0.0956549711455152
0.0930902930208193
0.0920886605731783
0.0905082674043572
0.091728479395454
0.0899836202929458
0.0894100784636674
0.0891991533284784
0.0908400654794346
0.0885344229625907
0.0906129040238016
0.0902549078076841
0.0912968962816339
0.0890902212900267
0.0916725135164327
0.0896123941584887
0.0879481915398048
0.0876457777524578
0.0868458043496489
0.0886030191783702
0.0935108459335744
0.092743410621241
0.0879574614859147
0.0868033347767438
0.0895608767749988
0.0870530124235557
0.0896693271122086
0.0854758696454468
0.0892269627454001
0.0855150451609408
0.0872641128017092
0.0847227722644476
0.0876151466279515
0.0848063923140558
0.0865233252036221
0.0846706042734983
0.0867097792255039
0.0844087258664938
0.0856598909248268
0.0827167967678591
0.0883996404612683
0.0869260855538266
0.0874361973439619
0.083184749189969
0.0850591936769733
0.082245509592897
0.0880594290116122
0.0859434752562492
0.0881724902605229
0.0821420923560818
0.0880896195442474
0.0826076573261631
0.0870179175166205
0.0809596597349921
0.0863532814481454
0.0819720349332202
0.0823619366235069
0.0822213068192871
0.0853869477791929
0.0792127348179797
0.0830049470350423
0.0797579431252014
0.0837002515959517
0.0783646723802297
0.0832100793664189
0.0788702507061221
0.0816820444903254
0.0775302208316586
0.081647118777792
0.0785055875592977
0.0858949965817366
0.0777388530335556
0.0847868510161976
0.0819702554316776
0.0875834127218729
0.08339894916765
0.0778128453607994
0.0815286842402217
0.0812621620665044
0.0793482910146885
0.0811371172338959
0.0789814878753725
0.0780670907120524
0.0778048629957129
0.0773054280117397
0.0795824647486616
0.0797227656306201
0.0773707867180036
0.0800970913706811
0.078820838636478
0.0756129129277041
0.0773030948981919
0.0770713800414276
0.08030338610242
0.0819545718881351
0.0845056714165465
0.0829661852758278
0.0755730977216906
0.0791539554461739
0.0849643221083955
0.080378970860145
0.0863011305830602
0.0732689700104557
0.079763543496613
0.0781406667876701
0.0800236264566867
0.0757384073362017
0.078960709619868
0.0790058162944386
0.0796403554082585
0.0809812166943194
0.0783111128161412
0.0780520324801316
0.0755304397833119
0.0783478351288091
0.0768699827351195
0.0784824154753033
0.076457192008677
0.0784815318857799
0.0763317254984309
0.0773438832975267
0.0772163298990075
0.0757251660534118
0.0772819421292794
0.0798060091030865
0.0801320907682784
0.0758015490293826
0.0798144597090601
0.0751169827448706
0.0800595836078406
0.0874911718664101
0.0786975225398158
0.0802368495499365
0.0730949965833042
0.0815813275757063
0.0732224246657894
0.0786569503709611
0.0746345538418327
0.079338942384473
0.0738526954171612
0.0769978281392942
0.0754677043739857
0.079590150528956
0.0735515635812941
0.0781207967864212
0.0742336870192533
0.0768234139960946
0.0730567032339585
0.0777639854891617
0.0800788713019583
0.0754740521002313
0.0853513771722106
0.0867960445431112
0.0883590375046715
0.08351910807563
0.0814335170230085
0.0793009659028029
0.0747177192152696
0.0800095598737468
0.0757116191320355
0.0780475887938216
0.0755343115972235
0.0797594798523669
0.0740612344134301
0.0792395511459876
0.0751818177707039
0.0783144656100095
0.0715150087655936
0.079455948331705
0.0748683581737604
0.0808138407953686
0.0725925382638304
0.0822042795264857
0.0704862577718584
0.0870807902617636
0.075123106933438
0.0890796416026945
0.0693317633999005
0.0995672354235286
0.0786295639171767
0.0936853951647447
0.0786568275793098
0.0768761870176659
0.0799732240053468
0.0773410753527381
0.0782177701285983
0.0828670481794066
0.0787911426737782
0.0781226738092191
0.0758237736684895
0.0780464434195331
0.081046389511618
0.0755325326834682
0.0809345851751074
0.0992994732780704
0.0905459891005344
0.090615851105907
0.0730208104510996
0.083380717036835
0.0945256832705371
0.0886178486938598
0.0848217351518977
0.0753254808218845
0.0848423514529641
0.0813596334515591
0.0812741880887426
0.0797979685388099
0.0845983991320804
0.0833099538632998
0.0805431934842132
0.0837708150931658
0.078902400856658
0.083374508966479
0.0794118161288149
0.0894212437040114
0.0880523407858258
0.0863821474108078
0.0864552593963958
0.0847759854819182
0.0862488959017609
0.0832669069346769
0.0847520130360395
0.0820369799785384
0.0863535048676362
0.0928092338333387
0.0893009624181912
0.0970624639882581
0.0920933319289372
0.0884961768986945
0.0858443120257882
0.0847956018181228
0.0966285648713889
0.0835565625974121
0.0933703197745796
0.0981092958514251
0.0961267650192593
0.114480809847225
0.0868228749700835
0.0999651244608189
0.0790063371739606
0.0977582443505508
0.0748602021877145
0.104981663932658
0.08396992281554
0.10338497738874
0.0768096071987669
0.100579872448209
0.0862320372139469
0.0993135904578816
0.0909522504146577
0.0963911924434024
0.0901636530982275
0.102368062838057
0.0968029098401219
0.0966592395700691
0.110811937938704
0.105504784985419
0.111199652251565
0.104291406518797
0.0938933297966065
0.113827061418951
0.0902356345738863
0.108567128173461
0.0890526530580176
0.10387935442984
0.0932004054485058
0.101362699620693
0.112392458093532
0.11541443735561
0.107008326718679
0.103822635966482
0.0981211560359775
0.118526989201774
0.104823070193028
0.11434906998606
0.0989847434190341
0.112312080459813
0.0962313730623593
0.135690557103581
0.107134124546403
0.128111023317186
0.119735523109932
0.123471227123129
0.123764813371004
0.118531397945964
0.120911610050577
0.118085490796597
0.129666608324791
0.127410531903556
0.119209694688679
0.121901925073402
0.132657460499086
0.120212793178207
0.134481833225796
0.118260829793295
0.131323281590301
0.136370832297133
0.158632866469451
0.153287308675847
0.145924125578619
0.136574701788812
0.147429555768414
0.139630941735706
0.148176520903535
0.137459459401275
0.142206431732189
0.144538941855964
0.141098654724677
0.149480218247237
0.145358089493876
0.154771629130998
0.149144079685244
0.153566920949174
0.163829839981112
0.183830170903592
0.188893074981555
0.157072635118972
0.191423856098244
0.153313880149084
0.18363185536869
0.166574675362682
0.171968514080242
0.173612220196594
0.173319594150178
0.178371546314113
0.175211372794647
0.193407719528476
0.189204317422075
0.196230695943177
0.215841731782543
0.190235007625642
0.209285258826347
0.189215107961005
0.275550423083898
0.159559797343965
0.246963041436315
0.203196122106366
0.239177156972839
0.257540236308316
0.233313950337403
0.254657171565542
0.248212209468665
0.252778930449332
0.264222075903419
0.269598832821702
0.276422519850644
0.285842875322589
0.302544333179104
0.291726242664211
0.313486428249191
0.317685044218139
0.366731055274833
0.360939105595239
0.332825628659753
0.348455183359538
0.36234669427424
0.367038453095539
0.377222337195734
0.376722400331153
0.38200747455812
0.43108389728809
0.404858644470866
0.43391896828929
0.40429976786924
0.459200385685754
0.423457192732128
0.481242435509621
0.447093403994692
0.488815556497583
0.475689941826392
0.481490321170667
0.494592653623074
0.494756470785778
0.524887468929059
0.520345741789127
0.542516394991794
0.528276268307072
0.53570237131847
0.550448518622604
0.55249077791851
0.566413709812361
0.563190466224655
0.584645334206033
0.583272690839393
0.661991784051865
0.597946516311261
0.595647439601987
0.590891588382344
0.5801134876986
0.617470565594514
0.614077897180962
0.622698632708147
0.622797684561732
0.606497281600928
0.604571509790153
0.5999704282108
0.623027425912381
0.601533796207638
0.619997047056918
0.601973193432818
0.628129407214827
0.622258321688599
0.632645511676404
0.656102222589513
0.63975390045887
0.630058995926056
0.60883096296366
0.609975278050521
0.59556580092461
0.612955529042853
0.593856403707538
0.612721890460057
0.594248405246928
0.615257643922731
0.587644634480374
0.602796280069285
0.589248392469182
0.605062185799724
0.580186590355692
0.561968052322183
0.574275898278432
0.559666150814271
0.559447701542113
0.594196226472395
0.552793718053189
0.562735169405306
0.531000975380061
0.547913185267662
0.535371910138403
0.534995817243525
0.521458265905663
0.537141159249274
0.517509606138515
0.525457419999955
0.515533644314262
0.515043466057083
0.506084271049161
0.51609665213272
0.503626246175974
0.503745850645782
0.505197572439812
0.505613172172525
0.507077742630591
0.499154898681079
0.490145593631156
0.498009189043207
0.493950375320751
0.49974804370904
0.490774584089212
0.491645562798457
0.482522013839373
0.495586748884685
0.49165598919853
0.49453581124185
0.490596704083291
0.489089214631529
0.487601623815599
0.484290242155153
0.48547406592979
0.483066458502998
0.484314652767416
0.478888491420044
0.481610762512736
0.473302492844777
0.486158351211751
0.467225356859083
0.493476404126421
0.495194309481966
0.477362203446946
0.48303079528766
0.449947064866056
0.474444762026513
0.442541245140041
0.476994460140167
0.470851551881081
0.468702079832289
0.453307614035905
0.446525489908821
0.443507716884002
0.457472763115063
0.433961125885299
0.447071997220079
0.416821997349468
0.446492034401191
0.454586984826887
0.45658705780968
0.51688811504602
0.434103553331864
0.440542185575712
0.410707383301346
0.453663599771148
0.407617616400862
0.430178467864098
0.402339168181691
0.419436543938152
0.41362137502813
0.411387302058773
0.4146740540845
0.388588424776549
0.403139243218141
0.422950284763599
0.422393232175424
0.411930096625117
0.435228293863855
0.393341824653411
0.421779324941452
0.419677467966753
0.440465226238282
0.374144605378351
0.378359144437087
0.372024766990002
0.367868647625103
0.396409677763701
0.368205496009849
0.382838068171429
0.370601342489116
0.355512529681802
0.359025074372539
0.355419574218789
0.374486090851487
0.335997834357751
0.390702423922011
0.328957886451665
0.349110594100734
0.340488984338568
0.35890516787164
0.379277248585395
0.360093678755641
0.337345831639342
0.331037436097779
0.369439769137324
0.340329835605205
0.351361754232436
0.32810611956107
0.315605569672987
0.334614281067911
0.314291688465236
0.317978421572029
0.330405889358516
0.321661283898289
0.350218914859734
0.340127413563067
0.356871054943936
0.327724284077871
0.301741855711733
0.307708813844387
0.299042644294777
0.312652645130446
0.292748365195719
0.308324284316342
0.334265106800952
0.292551761532057
0.330778864942655
0.298899461835104
0.31579075911868
0.309080733044431
0.30774537011156
0.311698982386426
0.31772194471201
0.333288422801805
0.347572049328578
0.321808049876894
0.351846846455733
0.333096395221443
0.346208704479117
0.33108036252789
0.35281767251835
0.338994334602587
0.359628516079872
0.36431687435831
0.366326681117997
0.37158457467944
0.379347812001113
0.37572211187007
0.430888391534847
0.381900409443748
0.428268777624591
0.416223884373542
0.445664198238474
0.446698609376274
0.431649746134343
0.452765741724352
0.442675520966693
0.453652311095209
0.463634442043652
0.464742482593408
0.493842602612158
0.484785700199657
0.497199747956727
0.48321205462939
0.497739754113635
0.488736455442951
0.512937238990794
0.520824980705948
0.522913772337457
0.581976064843076
0.533366368540833
0.559490714679788
0.523775657226556
0.540700799728272
0.539854336382539
0.543085523447278
0.545004374354631
0.538302742111671
0.565857072273886
0.566277313249847
0.543085196227845
0.553952684604267
0.552243848401182
0.566593270877946
0.55521943997568
0.568497495655687
0.569296715626303
0.572442247975817
0.588822776889046
0.570317800172849
0.606585749054555
0.630373828489349
0.595070742973999
0.609053757502017
0.596073380254612
0.618048672144008
0.603320212806111
0.619230823259976
0.636532066307893
0.630796983217894
0.62883460627001
0.62659812716658
0.633393692550425
0.631490404915608
0.646064501086509
0.649494585122515
0.65203661646565
0.654501326897477
0.637577135742731
0.729489137401295
0.659511082595647
0.700300736650029
0.664086226753019
0.690577046137578
0.670884140162459
0.67495082704406
0.666160883690523
0.682276524295651
0.67965246038437
0.695398326570653
0.683217471511172
0.682417018217975
0.686295446313696
0.677828698570051
0.694057469244272
0.707166816747618
0.681722571070874
0.686410148206513
0.675315715098252
0.682390540114662
0.674979292301839
0.704177288876728
0.687936182970031
0.692074974910242
0.665361834676069
0.704435353723174
0.704794449300741
0.687470536900968
0.6833426292729
0.686859620922454
0.682823125168347
0.702175683226461
0.667622781890844
0.71636748873486
0.701112028315828
0.712779828174002
0.693199810497585
0.711759792360342
0.697823759680181
0.714235786212874
0.712408871257621
0.721136902842663
0.706581024218369
0.722232070613022
0.722455251071331
0.71894519082556
0.72772377639044
0.730729108010192
0.738447583952424
0.738115003564126
0.724208784393916
0.728547700966988
0.719246277354654
0.72672502498476
0.711523433270115
0.729908783546938
0.693449802461464
0.715506110344257
0.684597840589794
0.718078588760737
0.703065687416477
0.681168899623966
0.695599592967255
0.676087531400751
0.670386600887734
0.668236968065519
0.665304497830235
0.656722754915167
0.654355666639179
0.655547604937736
0.642866660665622
0.643013256725909
0.640008607375116
0.638513190707411
0.635733007639909
0.631310129856724
0.633987538402518
0.632191363951721
0.631317180822377
0.637598574721395
0.627689803010067
0.631815729934313
0.630239312411159
0.627173046508468
0.637765722141747
0.62910512733099
0.636836256695613
0.636481596708323
0.640454383758806
0.61803790236794
0.624941011566157
0.626943672582962
0.627380077997637
0.623610874757947
0.622546312880714
0.627599458798029
0.620443438588161
0.624140927970671
0.621199085562854
0.622678544589
0.62476671615673
0.622691355584732
0.617082776361681
0.622255741542872
0.619375140626133
0.625223748862236
0.620527899209871
0.62367873766042
0.617785589847628
0.621315608251033
0.616985614275947
0.627714639918384
0.623210883733865
0.616601966888886
0.629152600610025
0.619615725460402
0.614944607816138
0.615902590497347
0.623200390831063
0.620401512309876
0.621117053455706
0.622404957208614
0.616658549227549
0.60915487404891
0.606610070069633
0.606522268391979
0.603111023709531
0.59656541041157
0.592196468049454
0.594380786533964
0.592901851089749
0.586451737122373
0.579369598786251
0.577852104170081
0.568864656209654
0.565160810058674
0.557357770449704
0.560954450834309
0.554672250002406
0.550189246522908
0.554747799162633
0.550720728308998
0.548612231693628
0.544780737559471
0.544278278721906
0.543838088403283
0.543739840439143
0.53564069090466
0.543073921899666
0.544206691467024
0.540011033493881
0.54009295495316
0.536087252116104
0.540303066395727
0.54270606087294
0.549093070794377
0.547055864988024
0.547342107618282
0.54778565323332
0.552569699758867
0.551379062868673
0.557236747097702
0.556098765134047
0.561094282862184
0.561520826790896
0.562716242675638
0.56787251558481
0.570115268391141
0.567929197927681
0.570971727619312
0.578546809456083
0.570995262547614
0.569336791447583
0.571894548009073
0.570931297642644
0.572900563536752
0.571623899805393
0.570900153035591
0.571871878469778
0.57311092754127
0.57013949659098
0.569420014138438
0.564163488364658
0.565724032818181
0.563415992497304
0.562804100951534
0.559350493620498
0.557889578536326
0.553860156972907
0.55277445869586
0.550737571014702
0.554603737013267
0.54472658558706
0.546680098037539
0.543211515281333
0.546093067454351
0.541504551644658
0.541637639213854
0.537511129203986
0.54047584648567
0.534557115013284
0.53724060224138
0.53368695962829
0.53473239186082
0.53330041341058
0.529416944893961
0.527148358242982
0.52606308207959
0.524388352364459
0.524963559312962
0.517317322769348
0.522706134541942
0.517667231577215
0.517429643361766
0.51122420715492
0.507808463614593
0.509632532637906
0.507051782577088
0.501246402682657
0.498890945247379
0.49494196822037
0.490621265655683
0.486470462132934
0.482521258436555
0.479746735421124
0.478279033852373
0.473632756847996
0.470398009539163
0.469265959522516
0.468521716235742
0.46839849295281
0.465514558802592
0.462919389881062
0.462360029541431
0.46339582978783
0.460315018921401
0.456786448500149
0.458663129090501
0.454609018438156
0.450056395885425
0.447295104958448
0.443565770624478
0.436956601326909
0.431178296380674
0.425536099843585
0.421539330395282
0.415481634983879
0.410974890472687
0.410428048299193
0.404710920792239
0.405659221841108
0.405761496413166
0.411690152395421
0.411674674323134
0.415421323071884
0.42867254696952
0.434199186083075
0.444893374390513
0.455102018126996
0.468121041557132
0.478743468114317
0.502311682518837
0.521895463158935
0.539755624122452
0.554756844961555
0.578557679426941
0.588963675063256
0.611735651663607
0.629860840169569
0.649995635647566
0.662577185123373
0.681421581409229
0.70070964379615
0.721010062889895
0.73544986256052
0.752995380609212
0.769205702657935
0.784135673075838
0.802939023258139
0.803764100530992
0.822032928683181
0.82648299956069
0.843110976899704
0.861104371492287
0.857606645554255
0.869556847174728
0.882741577661239
0.873654861648121
0.895605566739018
0.892285116182699
0.894388266487696
0.900648462085807
0.892057651541257
0.897450449817774
0.901504048552024
0.8956796252406
0.904346278935784
0.896263200976133
0.895015630467972
0.89349638890979
0.906349650737582
0.907623434529667
0.906870997000794
0.919217128607532
0.922258302380557
0.931343613212156
0.936252432776042
0.93626092638064
0.959668738185516
0.955178830728347
0.961436253848529
0.969494695848763
0.990466623776884
0.992782864968287
1.00270224785128
1.01107243060823
1.03042495808821
1.04633780271215
1.06256573655319
1.09277107550776
1.08512134925377
1.09871129592511
1.10344733530105
1.11837426084167
1.14515303307851
1.12257353210779
1.12140521042067
1.13276301639655
1.14502288907847
1.1242245767162
1.12311624923462
1.12725727420736
1.12553966018318
1.12560829667001
1.12137395797059
1.10573202703344
1.11232330591972
1.11198554340111
1.14259271656329
1.12919301871671
1.13553036862695
1.16256641724341
1.17179841138687
1.1750284697328
1.21353255800531
1.20939573423743
1.24192130108758
1.24839219898177
1.28489942219628
1.29492128939478
1.30467326426323
1.29617988130359
1.32763568031281
1.37711981681155
1.39218279217236
1.40078671874522
1.39819839769935
1.43435720967192
1.41748037643726
1.42994365187712
1.53636734007062
1.50424641935602
1.54665113186012
1.56667231862865
1.61033162791714
1.61615230755655
1.6087040578954
1.6697405981459
1.6613920054006
1.66358317288601
1.72106298597058
1.72506894316299
1.84603018940855
1.7820906007853
1.90782269546657
1.8580351205143
1.87041008988116
1.92850587226167
1.9163301391121
1.83270323376153
1.9629350376464
1.82566922646372
1.88218402138098
1.80601991937535
1.90906888870088
1.83543559129104
1.87840766039002
1.81326862683135
1.81791333091466
1.81161419471522
1.87482313789196
1.74653181114414
1.90495457772558
1.80217510991234
1.97697601446978
1.97720888229404
1.89587074977958
1.94592647916304
2.09427646203107
1.98227221943672
2.1192487074309
2.01169443644002
1.95426141853028
2.00281184400998
1.98141228266361
2.0173706961013
2.06908973513864
2.13065667325726
1.98767349179589
2.06264463375805
2.14362948136128
2.08274668556143
2.23372259337032
2.08997742938415
2.32600181646312
2.16298392076566
2.1012185447389
1.92940077606576
2.55316345099596
2.16907061816957
2.39180918006761
2.141495137856
2.47233146369639
2.28568677837553
2.12482617723221
2.15272366673339
2.35195757342115
2.34314480937097
1.91546334792502
2.13232898356533
2.31769233030233
2.17339632237217
2.14360571528555
2.16790501923967
2.64063228814187
2.00209184028825
2.20509772504691
1.9390438736435
1.93551113689092
1.77184693880049
1.87173693226753
1.8131710984856
1.8777807018505
1.83181036300385
1.73949354376484
1.63436699581341
1.65822658182864
1.68886763708282
1.60499140821963
1.59826758492498
1.59628456857543
1.53667824343229
1.60169810028737
1.49344519867218
1.56761926239269
1.5324868361432
1.47770367709481
1.53189364720359
1.48462199329657
1.44659174366205
1.43086807623255
1.34883828506928
1.47328889908956
1.39513676351017
1.44960197942125
1.35104073150794
1.30193523991878
1.29050398597604
1.26897586323377
1.21795703856405
1.19199384213604
1.16496107082453
1.12592387874477
1.08658624711177
1.05700564552269
0.997180746399059
0.970559088013458
0.928692633609518
0.897089755501477
0.83382484673963
0.811658870275338
0.779562290854908
0.765737700289134
0.738095889748821
0.696466955920054
0.680075540546593
0.656620731191287
0.63637748517592
0.612734325689815
0.611937522164899
0.588060104683089
0.579297076031113
0.576329194891693
0.56312769703713
0.566519971867064
0.560595721843097
0.557999285176933
0.556477967819499
0.546804191538481
0.542517758192103
0.545361303615321
0.549291171123167
0.546698302091637
0.558321203757803
0.563757793612645
0.552352578512046
0.55563448125692
0.558678888794178
0.565019995962023
0.550029846147906
0.55458746454208
0.547309643303835
0.541941462636807
0.537804794418495
0.53792383127128
0.538179829369385
0.527484059236201
0.513091577421401
0.519369559866709
0.510547562737194
0.518938881002625
0.50838159268427
0.508926958380329
0.511923435340808
0.514331568044851
0.517209001936408
0.527360296676583
0.524393636465522
0.532845234549873
0.523454955038103
0.534098500254032
0.538371539695637
0.538248690375146
0.545139521063114
0.545362151342098
0.550358725455337
0.559467890031064
0.557862212206064
0.565464924083508
0.56335755548935
0.570022687348892
0.562006598483393
0.564247986400445
0.561388819499186
0.560913973101039
0.562342458224635
0.568609044578793
0.569464289790288
0.575652750834649
0.56941494567061
0.585088091303511
0.594512103009819
0.597341260028114
0.605534730232629
0.621146864777803
0.623084670030048
0.643895809240553
0.645547657026606
0.674468151689512
0.688953667407671
0.707152824505145
0.715007081107615
0.737472437188957
0.747079998660615
0.752842313842945
0.758888500792958
0.739973333149867
0.723439181345887
0.730641170992556
0.735570503893041
0.732081837242439
0.727954726196869
0.698818591757058
0.68347402262643
0.691729376438912
0.688436393982986
0.677422388674043
0.669263852293126
0.686432471451149
0.677341303773452
0.673360281535378
0.687145101963591
0.696273388221842
0.665163058675181
0.689508818548349
0.670556010851285
0.665530915044614
0.665726508061745
0.660460851334591
0.657916650915873
0.658602486281781
0.653338006602366
0.646115444500526
0.636405446243476
0.636634363974318
0.616808157295946
0.613885709838162
0.609689103971682
0.624217530912293
0.606378885316151
0.60486009721086
0.612580097405961
0.613751211965331
0.594227957614393
0.605341691284728
0.591965029237748
0.585198681858829
0.594365029244888
0.595652444125764
0.582751275985261
0.594634724509037
0.583561276905143
0.590864464017161
0.570714358384119
0.584154044868267
0.567761777604355
0.566245138036667
0.568369358998652
0.584928499589706
0.565206513182508
0.547367766208614
0.551630889294219
0.563739201991859
0.559204297450321
0.577719108665828
0.542627169422896
0.544168982637085
0.54496888261213
0.53733449226883
0.54269745738994
0.563493970217649
0.543656811527878
0.559842049977008
0.55319617148449
0.545717039543916
0.533282826601111
0.551330589131674
0.538966702005771
0.547658142448404
0.550361925864312
0.54683111344941
0.548629833033314
0.566924494152779
0.550086268895811
0.559139806018707
0.552854257842324
0.576071501876461
0.565895762594152
0.57866229600439
0.572535717912165
0.582797469109966
0.574967024747678
0.586543455324591
0.590967866768479
0.612289897425053
0.592705173599163
0.595740323954255
0.602720192014236
0.627384059826267
0.627757967298719
0.642731147203569
0.636347161744994
0.641882419962179
0.649495952848022
0.671376806755257
0.658338841890847
0.679833998739
0.691287335257707
0.712558952375457
0.719683796696734
0.756047028094072
0.745970451442575
0.80135509280251
0.802747668854405
0.813454296389815
0.836448820603882
0.89054110875523
0.873382347604071
0.869708747292032
0.908227656776267
0.912963309268279
0.903389600558967
0.935327505249655
0.927334859270607
0.935924615627774
0.876099849685874
0.957456356311526
0.971481111465881
0.900675030381839
0.906395445351138
0.923888661692636
0.866103265490234
0.906442040432952
0.891778312532531
0.895435100022863
0.873630129507903
0.883429572326631
0.935623525258955
0.947972955710181
0.906195149016634
0.874532419546343
0.84005403066549
0.896253691975367
0.896816332677293
0.893666907713784
0.836219845637408
0.793913873166902
0.818935449243032
0.852944455584154
0.785934455661325
0.834880191652916
0.838319575740621
0.781227195953332
0.776900375208189
0.864146258695606
0.829461206034911
0.833037892287912
0.773924800622968
0.788439186269083
0.741367770181723
0.844561754453429
0.808862325140861
0.809245286263747
0.885927834382087
0.829907580607181
0.833763018318067
0.860223442150808
0.820009084674933
0.90865161795428
0.765896536326451
0.916726515636152
0.877852480846659
0.785041445927476
0.823815751931347
0.900797780040645
0.855509535179009
0.798452961045686
0.798707939091508
0.929882188843719
0.88170550313513
0.866377802499416
0.857323597964106
0.974667960039564
0.959111408004947
0.944224768745344
0.818815499991597
0.898232817000586
0.927802453885169
0.948614027703321
1.00514890781616
0.997575114083863
0.903705441113125
0.910198098232132
1.04430494361371
0.929035891419709
0.93791145535754
1.16717465139021
0.99485087068511
0.996584743225
0.85039924902633
1.19063831985733
1.16607312683005
1.13546758094189
0.980468673955129
1.06580557338749
1.19978799512415
0.991360692621651
0.935454559241979
1.08984424261465
1.05821761299724
1.18531140714922
1.12937630424492
1.47946374754944
1.02459430607487
0.920904880055628
1.12319623821346
1.07726379681667
1.21503326173828
1.06384782241307
0.898434746049406
1.00937008489599
1.03011118431307
1.26280332779125
0.87500005302962
0.977657372742068
1.0354212694624
0.992757232341238
0.956351844616671
1.20157506396903
1.09268001560645
0.910951540621149
0.988319978109198
1.19129186123405
1.18644031988955
1.63628123788878
0.838760312826894
1.11720144273394
1.29831555575154
1.10406189548907
1.07217634970626
1.21912825619241
0.926248304862316
1.68311499664795
0.957423335358699
1.50267875389594
5
0.856333566916727
2.41017401333016
5
1.13369428706261
0.894434034726305
0.791453020313512
1.38825426868783
1.072863946496
1.2074875297249
1.1834573234041
0.839982844396371
5
5
1.3364945626942
5
5
0.740155521872012
1.00849771147088
5
0.577674914825362
