3596
4000.36533379555
650.420452594757
1
2
2
0.0455702143788037
0.0589017759419336
0.0415663337865355
0.0594666325958043
0.0472758111536876
0.0599334290425561
0.0464149568252506
0.0583655867567957
0.057319550789842
0.0598037391784075
0.0492446162906161
0.0536234854197693
0.0584779515451806
0.0589700069483959
0.0524280934561103
0.0552352759593049
0.0498905588210158
0.057184855496731
0.0436648403032716
0.059236354621009
0.0452860485190948
0.0610639101704075
0.0462398825631182
0.0534518250573552
0.0502271596632103
0.0597160017998558
0.0521998596127181
0.0594204634305753
0.0475021930017801
0.0531869316714044
0.0479334989521194
0.0622890182429613
0.0517366161360041
0.056585373543215
0.0460655814132062
0.0589944978613769
0.0554610763204311
0.0624504152951637
0.0502418554024557
0.0584047239899269
0.0463595390883046
0.0668188007144023
0.0555720720721713
0.0630396377016986
0.0516777699284024
0.0533995902882824
0.0464138605318878
0.0601986655061149
0.0402776923812433
0.0530736678054755
0.0460970489721601
0.0544344205312685
0.0547597049053502
0.0592635601241683
0.0513204880139415
0.0646929599717125
0.0478479544422411
0.0590725889275082
0.0572428619375217
0.0654023099103011
0.0419592003464686
0.0610263837392715
0.0472903218529719
0.0589356495341682
0.0485191396468574
0.0514258509152722
0.0519343774193558
0.0561068275449398
0.0481392083448512
0.0515119692259937
0.0472872026785834
0.0643234797654779
0.0621883522739573
0.0556135719034673
0.0492500996745674
0.0530145785110977
0.0381002453480617
0.0517491798200693
0.0551989072703457
0.0588063215704671
0.0513411849599394
0.0552717741033099
0.0458277056195417
0.0493861560850026
0.0492104759512913
0.065986803590821
0.0462361176785281
0.0599281750102981
0.0563475513701991
0.0508709612765426
0.0466214355629964
0.0512862729450815
0.0399935416627188
0.0497018512353199
0.0451846130440337
0.0499559421624192
0.0513813350048651
0.0528603016828768
0.0507266823341024
0.0569223119211651
0.0522932031746189
0.0705646900119639
0.0398049779225683
0.0866236359903453
0.0436315859555327
0.0601090235195738
0.0606534292750882
0.0636864049003377
0.0538928359796921
0.0459979492953322
0.0453480684414597
0.0442410258643586
0.0538414637695823
0.0393238920523761
0.0536159002697209
0.067379286819567
0.0561217719927386
0.0535667381088568
0.0322706904523059
0.0398620560696712
0.0562366660569465
0.066087135170706
0.0435814432707941
0.0574484309758475
0.0464094991940397
0.0481908321768697
0.0569722334398625
0.0775909748767806
0.0525506957682675
0.053964308513222
0.0441344140520183
0.0563564183726491
0.0412711458793702
0.0674427518131768
0.0492828842089123
0.0545284377209809
0.030798006773234
0.0715637650634396
0.0664329869340517
0.0643403454241466
0.0541423994148631
0.047246417077788
0.0480689186220509
0.0743825106616867
0.0470295399722934
0.0494337042319553
0.0435770726749449
0.0628332429685831
0.0408217618200691
0.0490109196754498
0.0327128979883
0.0575581548829919
0.052379903395431
0.0453091540348465
0.0627935673790781
0.0629530705875769
0.052076753225654
0.106934195750062
0.0322848075796447
0.0725343365370708
0.0309619970929574
0.0614962940826278
0.0346470548496406
0.0521582763145962
0.0347735697237209
0.0642220463735641
0.0533773138558967
0.0582115950809778
0.0367922218964695
0.0614319559152006
0.0461406222022308
0.0530215700204805
0.0720660800910916
0.0576141103658845
0.0502840188533703
0.0634368542469422
0.0451262947513423
0.0562894012125743
0.0350165762641913
0.0713126794760534
0.0399833274984361
0.0561844162396299
0.0299516599219183
0.0588116663721972
0.0414774749435545
0.068277579888843
0.0488486283619777
0.0495957107338267
0.0347684821030613
0.0694542685550928
0.0566977376834293
0.0770008250402214
0.0511487318477198
0.0587972397710335
0.0243150841774008
0.0795472441412479
0.0444736623983235
0.0623578816230799
0.0369141500409723
0.0445059793363873
0.0390122584185132
0.0435417875712565
0.034644542757851
0.0573741404925895
0.0357224901719243
0.0794621408435091
0.036588503080378
0.0678671908949398
0.0362052828540982
0.0585749541187968
0.0460373357217857
0.0761140538840093
0.0407134080284844
0.0740283042386482
0.0402622712161005
0.0568212538949962
0.0527957867243634
0.0648114291598939
0.0423354777085818
0.0504436418304446
0.0358174518354978
0.0545249954270724
0.0406704535836262
0.0529126309275818
0.0444613845674887
0.0480052006314896
0.0437635344116932
0.0539867179263898
0.0351115300294257
0.0554157868102503
0.0494893972548248
0.0532376875846807
0.0401426543253576
0.045796068698717
0.042907142542883
0.0671659865412695
0.0478229538387614
0.0629123339941682
0.040206706676377
0.0561220428427802
0.0333909029893747
0.0581290653079844
0.0425219573101617
0.0626307490151679
0.0356508106569934
0.0827719158084443
0.032729301562741
0.0605275865440362
0.0330105372614839
0.0668305121600116
0.040647758461919
0.0630348725212125
0.0421618413687267
0.0648958439239454
0.0371966567278958
0.0551360954152054
0.0496295917539551
0.0648698429566597
0.0470939841059438
0.053590102202277
0.045755669292798
0.0554362977387382
0.0505832974165555
0.0558164975979344
0.0810524630304841
0.0674637352311527
0.0509989898464956
0.0883281973175758
0.0308448289020778
0.0685691999466306
0.0451217912652992
0.0532384143229328
0.089153293965167
0.090037378105741
0.0605676944599529
0.0578439526119994
0.0543533489378648
0.0543668536042137
0.0485954345851721
0.0633559445453806
0.0553866865329492
0.0802577631005229
0.0449304186424546
0.123807390582743
0.0354968681246617
0.0838705243264561
0.0530187839858673
0.0643701676120589
0.0478495528541463
0.058530278511007
0.0486086616413495
0.0741679173958765
0.0535328661256598
0.0699360818071568
0.0601201101137933
0.0554364307566827
0.0692743429639389
0.0722841388577189
0.0576890778253981
0.0649586107956342
0.0670105274828159
0.0580578965331777
0.0604840185208683
0.0536635494088694
0.0573252076126783
0.0612270548010657
0.0560964621487081
0.0931466216762687
0.064190718824556
0.0683759702473724
0.0665639891361695
0.061363258242752
0.0509153496725816
0.0599844849716837
0.059903711491716
0.0612148324280859
0.0558180573371563
0.056519219676123
0.0705520482105517
0.0808292092862652
0.0578279708472664
0.0651055794291445
0.0559449498103355
0.0682598610721028
0.0583254058247561
0.0694086905447081
0.0550590767330547
0.0801210899434801
0.0612307710245701
0.0709225376894088
0.0868205003641145
0.0731984567160538
0.0851864447401745
0.0923755641121515
0.0570930766663432
0.0811784783473813
0.0570695323560805
0.082283218857046
0.0655886908329938
0.0833453496594427
0.0599107125472796
0.0811626867103514
0.0782637112010698
0.091548464238431
0.0725191867886535
0.0964465488863192
0.0962683846515529
0.157048014786139
0.0808202608702149
0.0990892734066359
0.0617896217517895
0.107747088816289
0.102861397715887
0.0941189853957416
0.108288752665068
0.0903187592871473
0.0886750393464859
0.0907770604957788
0.0945022069304481
0.0879777804442137
0.0920496241159669
0.10326734832355
0.0919758124007079
0.105316652443465
0.0972655069783075
0.111620603626693
0.102741504989346
0.144297467031582
0.115429602207241
0.113647746393655
0.110483977602399
0.116618275642351
0.122126180323323
0.147234862062834
0.126814825034162
0.176616312582982
0.118677001127156
0.192143444741082
0.124182194551875
0.150489320331328
0.119745544965105
0.146633319187486
0.135040260744929
0.152117979528592
0.13076907432565
0.154339959526825
0.136315750629916
0.158025749662244
0.142843259084581
0.167128840335041
0.146308666794874
0.179308458274264
0.151622800740921
0.178264632679641
0.153033840145353
0.196092806716414
0.193654282200027
0.225770142650946
0.17312515164096
0.186781431202667
0.176110012291315
0.185206254163995
0.179086199373793
0.192035725873407
0.190962901358973
0.203148901310215
0.22197634447592
0.229374515432292
0.210650308584602
0.232908472895766
0.186773080950362
0.232934974051757
0.218739400002313
0.230909761852892
0.241908459495426
0.240658307624804
0.207567145541173
0.244248082714581
0.250162139929001
0.260241580378531
0.246865755513881
0.237047529179338
0.23972372708799
0.232270268051123
0.242851037619742
0.265874349228146
0.252501903911787
0.285779595774162
0.255509045932806
0.290956396495647
0.267325907855883
0.287245563049742
0.274170467478883
0.300558872824752
0.277993027878499
0.332052405084598
0.273403110211461
0.309796206973822
0.286245972796988
0.315096994923519
0.325080076965042
0.312531664495798
0.334705688653772
0.323287333558708
0.316341742908831
0.328035355819833
0.322060352079669
0.351188542937848
0.322659473646571
0.361377229718625
0.334280003236714
0.365419180534924
0.323854383211863
0.372064444546033
0.36582283960038
0.380099381701192
0.346608615836518
0.396626228909671
0.344750263646743
0.404774336340713
0.374361470601486
0.407702121893318
0.408388847910917
0.438881046764202
0.417933557907209
0.430933914616007
0.402751231792501
0.427953158620248
0.402996306894396
0.429075111491678
0.413958492384004
0.464038125880355
0.424153154738293
0.445787528097466
0.440560771127554
0.470928393645381
0.445365585216843
0.469762121042702
0.452806188074021
0.491633225961562
0.47187528132905
0.500406148197647
0.466967336114137
0.486282612516379
0.467486427632284
0.530554765592535
0.482246522524833
0.555045707304726
0.497853968436934
0.515193562109928
0.512717297692431
0.555900866294026
0.519130840897522
0.570608539654218
0.510117149613428
0.567384749050237
0.530379415161214
0.595143098401424
0.539811436462398
0.590028935414182
0.528459367493298
0.612149478380783
0.583256007395591
0.62401900800258
0.588387910071459
0.620580866765262
0.564566641485362
0.591478791068881
0.615852743998388
0.629719474055174
0.611249228763011
0.647786978334495
0.583595493443627
0.694458732582979
0.590567379319858
0.698126167927578
0.615478217438211
0.671623814031433
0.597649362059371
0.705511811009593
0.636437125394297
0.713495238333959
0.668650672747776
0.723943947438743
0.665497756253482
0.727542828149279
0.69856760240978
0.706286408511227
0.684810454972633
0.751915778075501
0.703115264162999
0.749477500123051
0.676689418887984
0.825662241233252
0.722777102561551
0.807785262884853
0.724686288659556
0.780687301606357
0.714279699108007
0.793719778953589
0.765659613840084
0.841617173615696
0.788476521495175
0.882244582372171
0.734807915494519
0.870032092809171
0.813248569249484
0.848139665310077
0.813704311744832
0.865412255485222
0.809461977860008
0.925340196882623
0.840869627065555
0.894388352512875
0.825067515817139
0.855630035388508
0.788161304495819
0.86417200201856
0.881514027458371
0.928241688902399
0.855896264562236
0.937675574883471
0.829746807755759
0.936847997807798
0.854208149355278
1.00176305054818
0.918089805866461
0.96227293945031
0.827382045163926
0.944540871711074
0.828863060180166
0.961946320512899
0.922957559710609
1.0565105665143
0.885141439862112
1.01732821970748
0.927106337963972
1.04074343624973
0.983777449237871
1.03972689097263
0.962525971257208
1.1290560757756
1.01993500085429
1.10762181520072
0.945514928597182
1.12262816843265
0.980641589072871
1.13942289878393
0.984793138923524
1.10421196795235
0.958135466678421
1.0912158599935
1.00661530912836
1.05232951730448
0.973436904102924
1.15770893816241
0.996954751465885
1.15454627723376
0.984551824665423
1.10032930365158
1.04925033344097
1.05679246504601
1.03741456826178
1.13702532297762
1.0340353965881
1.1769607730954
1.06240031443931
1.2318727821774
1.07910253468047
1.15565050710495
1.0285708520941
1.21786521045972
1.06662480611005
1.26177094235538
1.13301045001748
1.28471326616533
1.08557053825046
1.27671689800937
1.04642138786785
1.35761218887898
1.18204493696713
1.21675880338577
1.1818821472166
1.29933628877803
1.11708866348121
1.28823106999775
1.22232120920608
1.25295672423482
1.15028455180017
1.20358330890647
1.10205800290814
1.33748792432645
1.13184834200821
1.27415868117296
1.21100427150651
1.34737995285571
1.14527753134388
1.26654294742417
1.09073141617893
1.46378896849119
1.18368160988208
1.39918265105486
1.16716381152084
1.34766177296651
1.20489029992887
1.41309486119008
1.24319506618866
1.42321394471016
1.26657159716787
1.43264899770516
1.16809866498185
1.31370238163822
1.2621090784244
1.41078618360037
1.33698229506575
1.46254310275317
1.32211583796795
1.51555183618702
1.20838380103836
1.54802159253323
1.2717958790801
1.63618717358852
1.19594466407532
1.41963283850605
1.27246570570112
1.57377263686413
1.24129019974969
1.36714057193645
1.3353768026437
1.53239797269187
1.22327007316903
1.6468427329031
1.3233341286431
1.43054161097966
1.33378746404843
1.59988259403338
1.50373548691706
1.52874725313978
1.23159393470263
1.59631491662493
1.36893454546303
1.81242289875587
1.37783948666618
1.71459738188785
1.39059414834608
1.49923682520919
1.3407100917079
1.63833555808492
1.31200323781264
1.55670835593339
1.31002351861906
1.51308963120271
1.32945018561173
1.45981760925599
1.31654090766069
1.43654816365048
1.4179291904303
1.39528303084636
1.30183738740041
1.58089471649463
1.26219002607145
1.45603019758716
1.31243541234905
1.6026641199269
1.33387843612789
1.63066184840108
1.33421145296791
1.62826687824145
1.3628338877167
1.67220228637898
1.51377851738847
1.59030128065708
1.44185762933524
1.48048635905333
1.39788740466866
1.49540047552451
1.37929780619638
1.68758020954433
1.37410716192456
1.60705201217486
1.42456193321236
1.76461496311583
1.41489274084475
1.45708188936271
1.38568828374218
1.48518162473499
1.40077627126213
1.74105922613367
1.42741613994476
1.77601281401833
1.3585418845307
1.44006780918671
1.4215128178706
1.47689423142887
1.35445626727558
1.5157908737794
1.33680187144227
1.41011885133216
1.3743235921663
1.43208072256872
1.41461380356729
1.59680547937181
1.40977330333203
1.76305207011381
1.44758232839695
1.54213204320645
1.44681942501559
1.47943952411395
1.49676903640119
1.68702549507308
1.36034575809491
1.60683741339105
1.48392851982396
1.49707381129614
1.48272559006105
1.49198359637203
1.28019645051225
1.5720010886145
1.41339395417814
1.54607460546215
1.4712503776758
1.53680934005129
1.48085913398512
1.63078320460278
1.38716180013468
1.64367756306482
1.46868469757869
1.49401690901173
1.41039350673681
1.48586870821516
1.3640903413147
1.52767469388996
1.43376820516954
1.43700271189131
1.33132446617061
1.5960543008555
1.46011673191991
1.43674418551024
1.40922520639327
1.56606862858883
1.4534873971667
1.46519656378821
1.46295354607073
1.6008640976482
1.42558303507883
1.51452996207699
1.38941838373865
1.4782852473181
1.34948585850376
1.5603598359943
1.45932223541114
1.40337627781401
1.35357015303957
1.52144120229743
1.49939864213713
1.57682477349356
1.39045097204979
1.38121775330941
1.36256891688403
1.49965002094426
1.36332243280773
1.561870789136
1.48438999417741
1.34074290754698
1.35555768300553
1.5579222074853
1.3754265264642
1.38181192384225
1.40662794199374
1.46655471843736
1.42147828975137
1.56519482616876
1.344873719574
1.45481980690111
1.28003687953359
1.45774211433102
1.38425065341758
1.38664892167775
1.35372212630686
1.38802510229386
1.24435827030175
1.38441791501908
1.29696462391024
1.48621954952095
1.33360837867727
1.34595870907911
1.29089372825765
1.39577253376616
1.30119644313139
1.4155320728647
1.36382324473769
1.34956857269096
1.35344979899377
1.45443884798864
1.43723685730961
1.52612857405766
1.35958957277918
1.30141037402894
1.28614141884259
1.35901385155811
1.2147098475976
1.35044941403327
1.2663652723664
1.33466564420035
1.24211605583177
1.31400518171203
1.29974044516926
1.36329826630625
1.26825237686132
1.33668518834934
1.20968188845114
1.26544627815449
1.28969818854924
1.30552612773087
1.22108030385554
1.33017558923767
1.18497065869401
1.28913927077951
1.23928428426388
1.23026867112981
1.2658849662468
1.27176681875489
1.21212250936566
1.3296086099237
1.24487175763657
1.30052933705159
1.23177217657132
1.17147473598748
1.14628356732199
1.16574827817975
1.19147495930148
1.18601419821192
1.15087909832961
1.20490189922113
1.18228740575614
1.17189991588286
1.11116858527602
1.13505979071334
1.11950759754154
1.18205702757213
1.12426786415878
1.22416245699403
1.16767683034006
1.11167947961311
1.13364127387229
1.16761609650181
1.12217218840534
1.15176680761862
1.0768495337077
1.07635125515419
1.04876293774519
1.12172068164675
1.07812448001632
1.06667159883801
1.0628160954652
1.05770749780283
1.07420692703425
1.07169132198723
1.01374925952225
1.09447128531857
1.05258304600907
1.02778051026507
1.00045272720768
1.03969831022723
1.01733857375575
1.04042386783991
0.996595646526701
1.02548147725974
0.992801363478312
0.995083463999989
0.967024000723045
0.991886034231989
0.998950012774048
0.996715033227213
0.98578319244897
0.988680984115935
0.957915098788794
0.976988363905623
0.948663775182859
0.95739093773518
0.943818038471405
0.955506905053978
0.894591076218818
0.939626574557865
0.910303900419997
0.965825835363915
0.909663267246598
0.944400357466802
0.92939761073462
0.909944044738982
0.890609612513874
0.914327549691922
0.885580744568622
0.899598982951265
0.885228682220845
0.913000803132218
0.870263411762068
0.887067900684361
0.856888338488397
0.894113084261002
0.853131157898555
0.859035829472755
0.83787359720732
0.844345631842446
0.821515014167277
0.859914137673529
0.829588907507179
0.816465631229983
0.813731526496958
0.827564458760779
0.814899641897457
0.821923467962302
0.810728937415061
0.807208960791487
0.810817446763268
0.805662827529128
0.781142498017464
0.789626267139171
0.782873795339294
0.776463019132665
0.764342318477908
0.767234972362268
0.751521438272852
0.754755774598863
0.751636820675783
0.756410531428564
0.746272694576638
0.754766456984576
0.743863900397227
0.762798003298825
0.742953905459197
0.74560440516417
0.709680279310769
0.738063826536152
0.720793714893406
0.736305699061086
0.73069365906233
0.717765697855151
0.700104578126173
0.69660347217823
0.698861707704507
0.703086478146068
0.686047707868416
0.686745345273714
0.68130911354003
0.679107160912916
0.692888484404983
0.692666860182912
0.664446466965278
0.675470354114293
0.661060936728508
0.659725731827227
0.655519642743276
0.670709839216483
0.657565318812916
0.645670913572323
0.641743962554673
0.645726602125748
0.638202644968875
0.650003773300769
0.629287922627832
0.633722393184517
0.62786811895182
0.630213327097715
0.627966621720677
0.614791592817683
0.603999490519238
0.615978152853577
0.611948129690033
0.607518939115004
0.597115921654554
0.602839080500897
0.589957944176754
0.596797796410354
0.591305655282405
0.594183043490981
0.587504182274424
0.584774537161585
0.567939789086659
0.589862055103475
0.574505248438334
0.561726197914809
0.553135748992431
0.561913198106898
0.552524798194077
0.554997551778071
0.549337005262446
0.563964298130378
0.554734640080632
0.558182733696141
0.542841014879921
0.545288271001643
0.541288932619968
0.533443118110501
0.528921035835546
0.535146909606419
0.524610896820388
0.529667203881235
0.530551761774533
0.5324874203013
0.51561778824693
0.518254500654335
0.51261373597533
0.517366696018074
0.496200826399667
0.507679671546376
0.502093077385068
0.50527907822035
0.495275227857696
0.492062670326724
0.485961582029827
0.497621532572259
0.493746479343107
0.483616499276698
0.483030598375829
0.478175244998375
0.472349365383658
0.4802152101396
0.477501338628566
0.482548317097987
0.465305382275262
0.46256365925903
0.472928280742598
0.481295578329303
0.464236500359577
0.459331543968959
0.461832589769781
0.465207206369308
0.458219884768932
0.465324653705679
0.453957623590433
0.45500806443438
0.459088079298576
0.454800740678302
0.450452517255195
0.457232453890242
0.454033079449154
0.456076978658555
0.447997901110778
0.444559094309871
0.450481376848003
0.445543501569233
0.446888215351224
0.454973161435886
0.453043633349169
0.454102980614902
0.455056753530211
0.450679458962417
0.447175605683418
0.452574028836287
0.44713528439762
0.459994321999998
0.456988872565234
0.46197101467731
0.461753499747124
0.462730291798278
0.461904832029825
0.46112609166159
0.466035367116684
0.481854893915327
0.46749186440364
0.471716450449966
0.477641678412004
0.471427810199183
0.475062169119574
0.478458747332958
0.469915400856479
0.486958101700445
0.484395643062198
0.484429335960287
0.490362611678888
0.494803599804788
0.496793540991071
0.497365180718565
0.492014821776108
0.502989822206999
0.509187939797565
0.504824990769906
0.502343038558841
0.50848586411246
0.508674929221184
0.518332412258004
0.523641597228112
0.517804079756144
0.513147040536096
0.525461566882466
0.523909565650137
0.534675214005786
0.538941955323145
0.537560263725592
0.543404948984085
0.545832207661833
0.550376560197682
0.559045786498067
0.55715208080451
0.555902390501192
0.55778980902626
0.573080553108879
0.575395019010599
0.576721153737
0.575489461046552
0.581386403608229
0.581118829730542
0.575209193341255
0.587581265996938
0.601285829738861
0.587773967830984
0.587567765132317
0.598306608755658
0.600596998487824
0.60029015575611
0.600591068962507
0.603765636039171
0.602073212571503
0.597662250130553
0.605746410754613
0.598916457895101
0.603872563708853
0.604971202482768
0.595505347184389
0.602604237480911
0.60382754776425
0.59119022517126
0.603231026654673
0.602608059330712
0.591338525867143
0.590430279137796
0.590428245794042
0.595588745054038
0.594111380102418
0.594529142493384
0.595461420616184
0.601355666899011
0.60205879885636
0.593397492845765
0.592601353988078
0.599850999514543
0.599413317092918
0.592910767576324
0.591002708314514
0.59319590223598
0.595087020721899
0.596059033508976
0.594337440067792
0.595048063375185
0.598586459887828
0.599752401717469
0.604898755743329
0.596577982948795
0.594583841057063
0.597425006259154
0.594546093620685
0.600462094708901
0.592100944122256
0.593424653121729
0.600842558561859
0.596046178525157
0.591348235523869
0.59688272051678
0.595605982375757
0.588437547036619
0.583528414334528
0.590274030622509
0.585380459075083
0.587995956623883
0.592238496707743
0.585097768676541
0.577086358868559
0.576529841454372
0.581906176354424
0.583581014786533
0.565411176020802
0.562051533299776
0.565901544378566
0.558929154700775
0.549846278469874
0.548059270333967
0.545395881921533
0.554502043436839
0.544799703072538
0.53799625780722
0.546479451992968
0.537915388808393
0.530936822131293
0.532518157427889
0.51734361760779
0.518343476537778
0.515998279329778
0.510394943430179
0.506936688298439
0.501283667957695
0.49364973801054
0.499638140429926
0.493450172262332
0.482363547950219
0.486571662842414
0.485412694226309
0.48288826844852
0.48063752703779
0.45913961454481
0.465789047291088
0.464338018149657
0.461089484145058
0.451236046048421
0.449042804766523
0.451637731029204
0.44668479458281
0.450380074080579
0.44292086210149
0.435510035094596
0.445275354129372
0.432167179778298
0.426499921814091
0.429292687290214
0.426951134040892
0.420983711582615
0.42455616743313
0.415511398868738
0.41488028492636
0.414221996637622
0.419861334635652
0.414171141618435
0.4112664195053
0.411397637521381
0.405774326144687
0.395668077642066
0.397675786450277
0.399021823566922
0.397578627863547
0.392492367251326
0.404284164430097
0.393844419021416
0.388988989123884
0.388935314588748
0.386999361764647
0.388006126467243
0.383929288115423
0.381699550011838
0.386307604194468
0.379936100174572
0.378500993043435
0.380879627503772
0.376809014384815
0.366443950100361
0.379906170579606
0.372603029169076
0.372257340186501
0.36946328982647
0.367426525500057
0.358681246543079
0.365766479157524
0.361731130298355
0.360157080367345
0.361219241981666
0.359922254382075
0.35833097958311
0.357880683293303
0.350192370122103
0.354141198287046
0.345102155928572
0.34947281092266
0.349780073102499
0.347794043593037
0.34176649928395
0.347972926568585
0.348941523799758
0.344648772114446
0.3373321106091
0.338120794687209
0.338416473112464
0.342275393147626
0.338325393694079
0.339397867955992
0.331473807724735
0.338241103568195
0.335091069674349
0.329296992965503
0.326646143739958
0.330607470340768
0.327120398472626
0.32652445010577
0.322186219707674
0.326647648504248
0.318785780575594
0.322734377593415
0.318950810915989
0.327996315990511
0.323557415008311
0.320636322404145
0.317332230037545
0.314635562202543
0.312008001548183
0.317303553847056
0.316906103907119
0.314302046118584
0.314459108229478
0.314167451556341
0.312400229597579
0.310674196245216
0.307624149886278
0.314399343137734
0.305697751899041
0.309030660505205
0.310839431014836
0.308352781376007
0.303849917700425
0.304804604185977
0.304716608357335
0.312511858328253
0.305833428662311
0.305639493805988
0.29981104795231
0.302607599505509
0.29816612683918
0.297823615912739
0.299816326423823
0.307547045077726
0.304736227077991
0.305115458862897
0.297148853742284
0.300758591231504
0.295491762369595
0.302092063917968
0.299193671115746
0.29890369762463
0.300271445117037
0.294470928788386
0.294183351744687
0.300652840438093
0.299456414642883
0.299261086674223
0.292526618151303
0.291442165585641
0.28490869941959
0.292837346721178
0.291022490404475
0.287504404322031
0.285090455852131
0.287133615233807
0.286181507273274
0.290625528743682
0.289821440433505
0.285665982662275
0.283305523723736
0.285832207367799
0.278656139418196
0.28559284575485
0.280731224949719
0.285132813138807
0.279686464995522
0.282401855725458
0.281027525868006
0.280183001394902
0.275622564208847
0.277347483379432
0.279053862719139
0.280414433433453
0.272936003073084
0.271932046291914
0.267267587399802
0.271276058424327
0.269468299017252
0.271738261486068
0.26502543305983
0.2697362470423
0.268005169746456
0.273170807420636
0.268848201870306
0.269766695086231
0.265798848452476
0.266836423754829
0.262939572974291
0.26443709671518
0.259825811885907
0.263669543475584
0.260844061432638
0.260299537303263
0.256850787718568
0.2600787895768
0.255816732436835
0.258857524017383
0.255602554551529
0.257155508228484
0.253170871019736
0.257304570464418
0.252842495745292
0.255816927431621
0.250390735985226
0.250739763103785
0.252301181139558
0.251715713503514
0.245401485696936
0.246112611478625
0.242039281664974
0.246071002109271
0.244961901312665
0.249022095440347
0.238829362903644
0.241780225119239
0.234508776933415
0.233930380086761
0.238389582814136
0.24139987516015
0.234299450682705
0.230775976135681
0.227864844708093
0.233987197004979
0.227547740167774
0.229300710919814
0.230527638041416
0.22990478603972
0.221995617680883
0.227480924497713
0.22070428806252
0.225636452966383
0.222056350288937
0.222351269790388
0.221043208413228
0.221542266885153
0.221260847727638
0.222503989457454
0.216366677497442
0.220633951821029
0.21715632225242
0.218793603626226
0.213689190706545
0.21441117047606
0.211104541895727
0.213971677193227
0.209394484644461
0.209985661204274
0.205451710064891
0.208247853662178
0.204223575205537
0.209189468980742
0.203929856704489
0.207345471604987
0.197734541989876
0.201735077347534
0.197246938604566
0.205535670733561
0.201168637745818
0.200937179663281
0.198619576970138
0.20024118234265
0.194073325041915
0.200760337988732
0.19365395699902
0.194738376690868
0.195321863699632
0.198943815500285
0.190715952020405
0.197624731318143
0.192662199879277
0.188738949192577
0.188053801507911
0.190542074189948
0.184871665795337
0.19064431582987
0.182688908267996
0.193642181245655
0.185380112821041
0.184035975187684
0.184480007006482
0.187716126914283
0.183935775822398
0.183347473164931
0.180335941208539
0.183481104833462
0.181567696940171
0.182500447537275
0.177340309785059
0.179408220023762
0.175792910256745
0.178889887432206
0.17997081740418
0.181326073355978
0.177894344302953
0.181009900352725
0.175817304054273
0.176772136427645
0.175138496150022
0.176299182155409
0.172136870605207
0.176497109448012
0.170328060144252
0.171324677002396
0.171607623288181
0.175413629825489
0.171591557696326
0.174285846821944
0.168418067905599
0.173080176099563
0.167969654893274
0.171244731522468
0.164561067620588
0.168026269660097
0.166001813126296
0.169502495190178
0.165041620948649
0.170737190684637
0.166629107703936
0.167200395882359
0.165526117864385
0.166591557539004
0.163738604832768
0.167374946209989
0.161193274066903
0.165640468340043
0.164279594401016
0.163761833525027
0.158646558194954
0.163671914586333
0.159446746057201
0.161973363148079
0.161234987975665
0.162912600473899
0.162812553204865
0.166282254143224
0.153876164552406
0.160721556913653
0.157709348740979
0.161014177892346
0.156770375302383
0.158562974647131
0.158071443094932
0.162684632751018
0.154429066590854
0.157931522790457
0.153287279351981
0.158931498280845
0.154833133264978
0.159364155555166
0.152156204366005
0.152624660422788
0.150827629011813
0.157033054742602
0.150918576775959
0.155052113594415
0.150859535879561
0.153470474646796
0.152941614131069
0.154575525320848
0.148885442506783
0.151146273755327
0.149771458253584
0.152468766410637
0.147438039476463
0.149952791074479
0.146955836251097
0.151246184839518
0.151898001915653
0.152132184995041
0.148415940841093
0.149819704991837
0.143302662980141
0.149749290260852
0.14824345784373
0.146428200793899
0.143817589060496
0.146735743863771
0.141521114787115
0.147970927174383
0.142170420206296
0.146440286431628
0.140469927521065
0.146502535079857
0.14414970755741
0.146845305954163
0.139785794015257
0.141368668645315
0.141505751658166
0.146455181089543
0.139502436238128
0.140672959682011
0.137708752543806
0.13877378835121
0.140474260033477
0.139310047098641
0.13955310281176
0.138375714911747
0.134008812770943
0.141136908545336
0.135731998106716
0.141429846071738
0.136051103588178
0.137619632959781
0.135479745772282
0.1368879852331
0.133469542075335
0.13537177925641
0.130488495209538
0.134054477425509
0.129394226091192
0.13370528823021
0.129331999489084
0.130711394647641
0.130671609828771
0.132689945127426
0.127399702191997
0.130071340058762
0.125207633829251
0.12826937692581
0.122979777105542
0.127884696557496
0.126559468520495
0.127562460310407
0.12338036851766
0.127865113772705
0.1228693187039
0.123068355626364
0.123139301397292
0.12311824229712
0.120620495966691
0.122049195952629
0.121938420779337
0.124193613568315
0.121399455536653
0.121969481533759
0.117120331711125
0.122213731197794
0.11536986445291
0.121102611103072
0.11588955344297
0.118833862606695
0.114248683949082
0.117026184158346
0.113526807521088
0.119520438482863
0.116541465858257
0.115500670428407
0.116171066283692
0.113524335566846
0.112131026624524
0.11740508148568
0.110758479820436
0.110778878998241
0.111797471921547
0.113123627497619
0.109363547418081
0.110362308833372
0.112058175964607
0.109676313919648
0.109386351880596
0.112017122744839
0.109088104976299
0.112318348456215
0.10613648696171
0.108737062675063
0.104495941495847
0.109034767519648
0.107696483194336
0.104992472105947
0.105385771263353
0.105726077176347
0.103142070499024
0.105754217325087
0.105614131168194
0.104288267461216
0.103110066280295
0.105523724845262
0.103232924230172
0.103290447531344
0.100711931867117
0.102845616882744
0.0980006784484062
0.101917859411753
0.101060220375432
0.102675296358732
0.0991684718828021
0.10284388435581
0.0994668270603137
0.098065026348426
0.098064556203558
0.10110057861049
0.100080399917545
0.0971490957181041
0.0957157087230422
0.0997407771731341
0.0950892658694511
0.0978004341558027
0.0954477589642005
0.0946277330498422
0.0950507153986856
0.0978192823413198
0.0956787383919122
0.0984182666815331
0.093657762639899
0.0971850977622338
0.0953644865236448
0.0959116202160718
0.0927985901575428
0.0963767340685242
0.0946972065658959
0.0973584154100968
0.0962024154162132
0.0969454613719026
0.0963671725725991
0.100644068688265
0.0982179747281328
0.101281392433753
0.0980860144406538
0.102394112511032
0.0980836873480702
0.102731842544782
0.101752589132272
0.105055271009398
0.106289119162136
0.103133116090619
0.0966321252989168
0.0960811356085842
0.0974609352594273
0.101530221045269
0.104402704950349
0.100662056771617
0.0928918200789963
0.0992388404964773
0.103138149101017
0.0966146021960826
0.103905882487179
0.101371766887353
0.0933020077803032
0.107053077435704
0.0954020246012656
0.0997816129205442
0.097623064560546
0.101474696393577
0.102387344729241
0.0919451416716676
0.0967757948467852
0.0923213455415636
0.096786611389936
0.0888191114669211
0.0996266814270359
0.0941229529319709
0.0989119663671843
0.0934796121411549
0.0970780479694539
0.0874733195029124
0.102359825700605
0.0901420479696632
0.106345435940976
0.0887662156139676
0.106123336299237
0.0934619277845675
0.101207026878064
0.0835897842181932
0.0961699560268515
0.0869361594447626
0.10157811658159
0.0891908482805761
0.1129726517578
0.0847755719464752
0.0962074092658097
0.0814680649815231
0.0952505781069179
0.093747491283313
0.0983305690202918
0.0863185492722153
0.0929408360207118
0.0909265330449107
0.0988271736410866
0.0910213258053619
0.0838856950463658
0.105913034970403
0.0796788590128092
0.0974858836994521
0.0762897350733683
0.102836860056538
0.0730646930778133
0.106682230979326
0.0772203717371278
0.101632540923699
0.0783987504452192
0.0981466940977972
0.0818745590979873
0.0943256115407123
0.0850643520941732
0.0908115638625832
0.0870633278229404
0.0861663550523354
0.0811385748348584
0.0871161260236683
0.081199053630206
0.0865624777351567
0.0839963214077944
0.0900649941980681
0.0793887852030309
0.0872454412655431
0.0806750194847881
0.0887312056342076
0.0804194232635326
0.0845569864502754
0.0782390661002798
0.0846050202359357
0.0793159319167413
0.0847222506656626
0.0793969032816144
0.0860910988857572
0.0799182223223665
0.0854293182293715
0.0767536040154221
0.0872355905833288
0.0816894679731074
0.0851049079156297
0.0837270210284725
0.0865936429360244
0.0810974846148319
0.0845572974607863
0.0803223097762904
0.0866442453659166
0.0784029057554798
0.0841913426560285
0.0804050912646179
0.0869790595743106
0.0826403624515848
0.0872038375468681
0.0829952767203363
0.0857499573771339
0.0815358237123377
0.0879256307842913
0.0823861180107916
0.0857796898279205
0.0812892873999995
0.0858447728155269
0.0817754675307987
0.0860964552196197
0.0813763436102124
0.086081370424638
0.0794762953344614
0.087252041918261
0.08110945133869
0.0850561096309987
0.0812469051694645
0.0864744534826337
0.0807501095897377
0.0845745401988477
0.0823448293514565
0.0861278914513318
0.0771663091331102
0.084615963586983
0.0829189819794741
0.0854796056234652
0.0800736803673637
0.0875979646281464
0.0820447651917624
0.0807679019654854
0.0803040029827911
0.0860075307222059
0.0818250303960909
0.0843550934537833
0.084889237787798
0.0864608475792673
0.0848834904037395
0.0858316320632993
0.0803640409928515
0.0868199367478299
0.08046383812234
0.0878527148898821
0.0825973066560055
0.0885443949438129
0.0835619500662135
0.0876663889941294
0.080643991785966
0.0848619250311873
0.0826642472120698
0.0867864214749608
0.0838685990857636
0.0883674185491634
0.086466605645785
0.0876156148706733
0.0852500414735548
0.0889334231742167
0.0812184916350159
0.0886119073078076
0.0845540938548199
0.0891890837145122
0.0842619642344856
0.0906000336264441
0.0835825670512385
0.0874915806537819
0.0857960798711749
0.0881499466811061
0.0848445875268857
0.0901579771699172
0.0851289746691037
0.0887895849313061
0.0850834079549903
0.0884322717249479
0.0854902008792362
0.0895924775678103
0.0834693770844293
0.0908936019999333
0.0857780197736042
0.0896787810720964
0.0877815633088413
0.0901168967115591
0.085449313350638
0.0895095194370747
0.0878874492724962
0.0924033151884172
0.0888492319590055
0.0920501412426974
0.0866007571484388
0.0914824081853513
0.0884326812430688
0.0913676050778397
0.0873607364359557
0.0926502157534159
0.08595641008458
0.0920519683156952
0.0857743768192064
0.0931711695330494
0.0868485572160882
0.0912931404878134
0.0894289910576826
0.0911840099305444
0.0887084674445367
0.0942009220792541
0.0893180403211572
0.090626584596108
0.0902262760769938
0.0932031812731007
0.0902840069034391
0.0971550546922332
0.0904895200295489
0.0943512512353025
0.0906661155177382
0.0922657537206509
0.0912865282875499
0.0925260568778296
0.0924979364968328
0.0953142740025721
0.0923164588843274
0.0936021245412277
0.0923184917411524
0.0946722502652776
0.0910434776874281
0.0952680639947345
0.0918932855120639
0.0963426628371621
0.0915410028197145
0.0960641847649097
0.0924257512216635
0.093566438327631
0.0943270904327986
0.0923983906518554
0.0924224019479609
0.0965228987803247
0.093095932434897
0.0945409798352074
0.0899222108395865
0.0973837986511584
0.0923375035507273
0.0945713768089284
0.0904863846195833
0.0933355533335416
0.0903596151701958
0.0966633829656778
0.0911662335336104
0.0928875329136613
0.0905688747490943
0.0910265673627734
0.090281311842657
0.0931338074195582
0.0901804452065664
0.0938668097210769
0.089077624114928
0.0921462735563777
0.0882541171862065
0.0944067489934843
0.0904835020591301
0.0935904428444035
0.0883690747457114
0.0901665876214073
0.0868921593076191
0.0904075092156426
0.0891204563612224
0.0944070249774316
0.0878440226234076
0.0934266258498035
0.0872267437545376
0.0879819340925721
0.0892309621350628
0.0913413765292444
0.0893497362576193
0.0909299816471141
0.0874799999268442
0.0927343138721256
0.0846302399590912
0.0891105422229386
0.0869055067355254
0.089736264611455
0.086364892354632
0.0867957917974658
0.0870398586782344
0.0878890856314479
0.0882776696913034
0.0904694014741818
0.0849794821213653
0.090122339011225
0.0852134224119103
0.0898922094162237
0.0859242472228782
0.0886581138593327
0.0845909061429711
0.0868997164609105
0.0850594447797551
0.0891319822197745
0.0865000826144387
0.0906169844383097
0.0847790648109399
0.0884028989290856
0.0849452481490809
0.0876424644514019
0.0832866106908292
0.0894630601951756
0.0799314713221872
0.0892323756208155
0.0846377333944077
0.0881607213516592
0.0843312562973525
0.0886839741453447
0.0861528036048603
0.085574987812319
0.0841855623698391
0.0879282702106185
0.083647569192298
0.0877186747307693
0.0848952470631122
0.0887033364061393
0.0850370390347245
0.0870275161920723
0.0858958387408404
0.0866725466810133
0.0823574757859667
0.0879539885515936
0.0835790280872679
0.0861372887742754
0.0843194286180992
0.0854544811969253
0.0819040341285781
0.085365727074819
0.0824319638682819
0.0863305382283803
0.0857185634902612
0.086854920452459
0.0844820278323787
0.0869410554340582
0.0827368035391805
0.0862178169538526
0.0826546772342063
0.0841386292659308
0.0836101123915647
0.085588290679591
0.0801466154722434
0.0828969371219699
0.0793526734534254
0.0819458095269071
0.0822944407892948
0.0833316208136328
0.081047258272726
0.0856520058319995
0.0799318696169388
0.0834156059993397
0.0790466430846928
0.0833131631634546
0.0817037913522329
0.0812042726954403
0.079820463429945
0.0829203368940068
0.0764420386841941
0.0814286755877479
0.0798113973733825
0.0803201414708741
0.0777545091208868
0.0801837135890257
0.075286105164841
0.0814923403866765
0.0763405937960277
0.0828460574241128
0.0773530578514195
0.0799364635409849
0.0754730559643644
0.0799643568565089
0.0753400953026116
0.0783680326893829
0.0775126020366456
0.078328940677617
0.0760993779672375
0.0755317359610987
0.0766559907780885
0.0780929428921148
0.0747999458718019
0.0757047601787522
0.0740085340385741
0.0757799519665557
0.071671196756092
0.075211598214941
0.0732858448727685
0.0733971913295169
0.074264816594991
0.0742757838106604
0.0706054471113746
0.0745592369992503
0.0733364817848463
0.0733665172633682
0.0707260675741605
0.072503727485066
0.0699301121697745
0.0730108382672944
0.0701571322058193
0.0700705495103657
0.0712991013482057
0.0761315717217388
0.0773025316656139
0.0695595396640906
0.0701388521167506
0.0731026017300699
0.0725107435490396
0.0711424031662606
0.0709859809769444
0.0714090731908765
0.0680576337167349
0.0711679845100502
0.0664101788898842
0.0710914965795495
0.0696581183284792
0.0709428631000562
0.0675536016484984
0.0695364481231628
0.0680659131883178
0.0678698105322701
0.0652570219027813
0.0711650051034722
0.0673494210583024
0.069487176625592
0.0662465922850779
0.0698095945360096
0.066722744580708
0.0728823327479197
0.073229510833174
0.0732824822546973
0.0666846580936437
0.0690103577052782
0.0646745986748849
0.0701715546483072
0.0650407021718019
0.0694043839419
0.0656055383362752
0.0687549751273678
0.0655888183099263
0.0688256414731462
0.0637423178532273
0.0679469193420268
0.0645912890513784
0.0665306715398213
0.0636317794737688
0.0689486723284363
0.0612917054823443
0.0673410454209169
0.062631623454517
0.0669033824736282
0.06280438156823
0.0685935274328915
0.0637454509801597
0.0698025901377209
0.0672359831224208
0.0764268961222841
0.0662465591052391
0.0618719027207898
0.0646759330777923
0.0644021450213934
0.0629123050309512
0.0654619033812995
0.0653985558296991
0.0627772169119606
0.0624912552779737
0.0649917436225597
0.0627011110849028
0.0651825457188335
0.0623514021216574
0.0655947593477013
0.0640747062320585
0.0631750538057865
0.0646309055529382
0.0634896623038273
0.0643305874056827
0.0675900029297673
0.0700427577190485
0.0679940405470094
0.0611370219954005
0.0653339014543869
0.06999952567739
0.0693620258965623
0.0689774721566267
0.0614400262003346
0.0671529226615524
0.0617137941560587
0.0639525180243155
0.0607571966480487
0.0649170857434491
0.0631625097509744
0.067668746752574
0.0648270222514864
0.0627654195546043
0.0654886293331569
0.0623123480406496
0.0631890948320401
0.0608229479172129
0.0652241737059149
0.0621388093645515
0.0639387818287686
0.0612647982436927
0.0629538769085737
0.0633358043394818
0.0619240395585965
0.0634687618233617
0.0672384273399987
0.0681287628747802
0.0617154016877981
0.0641628934922251
0.0590900093702756
0.0658441845926784
0.0716777671731819
0.0671131024620492
0.0664306788616674
0.0586271147384377
0.0671377728171131
0.0574838094457736
0.0664278221970054
0.0606216443497311
0.0613209439141826
0.0590767547819179
0.0650597683168119
0.0626199114672654
0.0647235846310676
0.0597965168785964
0.0635223476555304
0.0597883123618055
0.0620146691958677
0.0598466848320402
0.0645161927608971
0.0644252203105344
0.0627312376357542
0.0694913397724819
0.0735289886445502
0.0766016804221725
0.067710088656318
0.066461797284303
0.0635946295178024
0.0627250389781202
0.0640670649561851
0.059831203787127
0.0648614224574942
0.0608655966330215
0.0635929215730913
0.0605493865756845
0.0655096138771991
0.0626951046212657
0.0662253188134218
0.0594281194134185
0.0641343037930751
0.0602896960152298
0.0681422877497511
0.0604611503696444
0.0670078198376955
0.0573387018685393
0.0707383007010846
0.0616091084524633
0.0764062199271562
0.0573511037183591
0.0840940950211128
0.0667277484599287
0.0821806537975974
0.0631420671739032
0.0642862285836076
0.0642487608557753
0.0629224229519925
0.0644961848659579
0.0702673119931788
0.0660543394513174
0.0651908326444338
0.0630179897476339
0.0643468184022338
0.0654018474855248
0.0617499859523176
0.0656110931343153
0.0845914972064759
0.0788958806147428
0.0772767546278413
0.061484914638439
0.070044409409019
0.077762377745266
0.0786625147659853
0.0704745619415082
0.0629989159727322
0.0705354161810752
0.066448709227341
0.0663875155333544
0.0638052053222466
0.0697488250762514
0.0707609683146518
0.0670625103221525
0.0692012884855092
0.0663053657451086
0.0691765752928095
0.0639926120574242
0.0739202167323388
0.0714890064438318
0.072430520354848
0.0700850662389698
0.0703999373960687
0.0721586789100851
0.0657706742965244
0.0698925735489408
0.0687842696229193
0.0727555913258383
0.0792862248048847
0.0748836215815351
0.0792507976289684
0.0783075594041347
0.075194494551867
0.0716346029312709
0.0726939997337751
0.0837372409282826
0.0690884311242021
0.0772449437652908
0.0813279284744824
0.0827508750866826
0.0947271862937289
0.0749383851658536
0.084054555994113
0.0664696234656458
0.083272950333105
0.0617883430926872
0.0891949865742101
0.0724420872891506
0.0893597185685767
0.0622238690314958
0.0847466118334491
0.0682702933925431
0.0860634715740563
0.0742166652442457
0.0803886041010207
0.07292842527943
0.0865140222453416
0.0825139887117207
0.0818232401402709
0.0911707185780827
0.0922316572261391
0.0953034297485464
0.0881136953744778
0.0788631867413886
0.0940361938768708
0.0752141563828019
0.0947520337648378
0.0731505393030129
0.0881557768216356
0.0749338058454158
0.0844285115252296
0.0947172860845225
0.100022761657839
0.0896484969601846
0.0861509583681956
0.0808332048701761
0.100531886850978
0.0923283092188565
0.0987891617803029
0.0824315808399441
0.0955527440382121
0.0771514133605528
0.115528406881989
0.0907263561138511
0.113595660529958
0.0989837985677026
0.111572124105954
0.104011606868192
0.10228893629542
0.102677769020015
0.10058516667425
0.111276798736427
0.111684578108626
0.100942923348078
0.107590867991982
0.113876400164721
0.105048384009708
0.113637876716038
0.0984955069386444
0.110851477584999
0.117984010306803
0.141755623143061
0.137629317929218
0.119293935997413
0.113923342826865
0.128100159708269
0.120233897012661
0.125832058138041
0.117203719673469
0.120898208827569
0.12111990228679
0.117775905745812
0.130072878412535
0.12564545414382
0.134574203080733
0.125488038427258
0.133004704987158
0.140414642644166
0.162395691549425
0.171727855144431
0.141536894543958
0.163668731900929
0.131539880810528
0.162754844276737
0.144267106614331
0.149803938456425
0.149221451223478
0.150172359339044
0.155798349563168
0.148409514448045
0.167805949340208
0.16131742548581
0.171223439980887
0.189128246713696
0.166905838406271
0.18159721009089
0.165235691472488
0.256031875434394
0.173975427515975
0.227723965314428
0.175073637175568
0.212756465592968
0.229158990726854
0.215196140709186
0.223280151192653
0.219076613744772
0.224239731334255
0.234349284516624
0.242379004688057
0.250617574926745
0.260634621305618
0.269488358792122
0.261778155108357
0.286050064146101
0.294346083544829
0.34407962198134
0.331084788724156
0.305792302767307
0.315431142261168
0.332021630850024
0.335397561806338
0.340836720127804
0.342922015946617
0.34984387479138
0.393765233133798
0.382281645338542
0.394691102511591
0.367024598512814
0.426521967422195
0.389063346657724
0.445799624697559
0.417752807904434
0.459132554470501
0.436180185679862
0.445912911774648
0.454736962165552
0.458622538086373
0.487806042491552
0.481305716138961
0.500529876103937
0.487537305652394
0.497015939169579
0.51632508054472
0.507101119005782
0.518866072867801
0.520620634760824
0.544794080241121
0.529072445030386
0.659011115570111
0.640243065747426
0.564957275168102
0.548918854914911
0.525058839249794
0.561387080975429
0.564848299045314
0.594867677181652
0.593127745409304
0.554826859585581
0.550971071986164
0.54683312905905
0.565373289025627
0.554657679687601
0.579033407951215
0.542149742375389
0.57681072099296
0.562030634646487
0.577294339855176
0.596441504976787
0.577563887489705
0.563293310876904
0.543895703488676
0.558313541434507
0.55032058574455
0.554245420642385
0.539579189414655
0.566203732527339
0.541055281388714
0.551576473243242
0.524160082545934
0.552915761551514
0.550173417524401
0.549664644101712
0.52730829396089
0.509393829381481
0.516946256617966
0.509214156665989
0.508495873212327
0.554911450912697
0.507456700114603
0.507864133280965
0.482409895077354
0.488716412668698
0.479100621879429
0.485811469542449
0.470657066395631
0.481737212045939
0.460106471186699
0.478144456093915
0.474506554797545
0.467687457648994
0.453177001075792
0.467504082418934
0.459229975853635
0.462099381911261
0.452188558327533
0.453061082615359
0.454970374228704
0.450665992170048
0.444454904929452
0.451001458103739
0.44728698132218
0.454188355985997
0.444373973506893
0.449129847518256
0.444746479750373
0.451794109827504
0.447800655835346
0.449069651436665
0.444031012963942
0.438381577067482
0.439217913184842
0.436908530936909
0.440663248809227
0.440276920112753
0.441020620642504
0.437512670203137
0.431757863615412
0.424623556095016
0.436491815942112
0.416176567682454
0.45256734029501
0.464544560594035
0.437249386039753
0.430174664061972
0.409787243885742
0.429313471577659
0.402118018527884
0.439801928223935
0.43543609597465
0.424300590762479
0.406812668410752
0.400740649337077
0.399460830957787
0.41675219631121
0.393886154257186
0.4035919809097
0.372782337695778
0.410823906312465
0.418954857467897
0.43984958963798
0.466595544554693
0.405111406665031
0.391235610301622
0.366564051330525
0.431147382483039
0.375754948709949
0.389234576391799
0.359723443999086
0.381842862959463
0.38079269038869
0.377536281212889
0.37284476402471
0.356958121106688
0.370768488917314
0.388410147463481
0.371926516920541
0.37292291995078
0.390760890619546
0.361872879519564
0.381575422517476
0.397328902628245
0.417361721109611
0.342131551344745
0.339266195132897
0.335504707684002
0.335003135899581
0.36563491811645
0.338186145844516
0.339056977950736
0.324892160754981
0.316926004529709
0.318237531116509
0.322928508185722
0.34497555848786
0.29953207918863
0.353395551481289
0.29938238124155
0.31776125665034
0.308772830227653
0.334955881035165
0.339411052501905
0.324832159774454
0.299148891969788
0.296806479472359
0.333208627591382
0.304403003557063
0.309371914612862
0.288500396253526
0.281894229555705
0.301082106871306
0.275309443793197
0.280046459916911
0.292937610450686
0.291371155750067
0.317645122475762
0.305176538534927
0.33352547311532
0.288774888452238
0.268459887630516
0.269001505184713
0.25631466818164
0.273264317628591
0.254154034324504
0.274645698451649
0.293129064797392
0.256481512762666
0.298557103043966
0.262666891971134
0.275165824382538
0.26748775121694
0.267034797538396
0.271813320848454
0.28156649893949
0.304169149156158
0.307835453043907
0.280646764543786
0.3081211653553
0.295619062543981
0.304614437506611
0.288531973541004
0.309821084071388
0.293363495464134
0.318369978953128
0.318173390349643
0.322118709339293
0.323959042652747
0.333954747809936
0.329658326303435
0.389277546450282
0.33542576042489
0.381372888899632
0.369662235879197
0.4048178014226
0.408512920547901
0.392492983383577
0.399486049245282
0.394743580001698
0.411456993987434
0.417162201841985
0.417187318128605
0.456572693287598
0.428137563168822
0.440257758232975
0.423134531630091
0.448677624372706
0.438198418937575
0.467808394254354
0.468183297944276
0.478779094463497
0.538136164408109
0.465741948139107
0.504337639781986
0.461038605398122
0.485494380854705
0.476351399169625
0.481584714685266
0.478606776490837
0.4780128204959
0.499030416413614
0.504511620345316
0.496268607498952
0.501224502019681
0.490483627796734
0.503809859415877
0.501570617802184
0.504674429340927
0.513447215725998
0.516424263168268
0.524290512305671
0.517052878205634
0.562553286576703
0.571656427223318
0.534353225153676
0.537844542900152
0.533326125808334
0.553828675901439
0.539575564407587
0.563737503185318
0.563684254992634
0.561498679623193
0.561644236097623
0.568669452424633
0.572929042486371
0.573487100034836
0.591814521687208
0.574984324734285
0.586812374031714
0.589135853245701
0.575887679678654
0.661960658435077
0.582603367316661
0.623588121549958
0.59712829856462
0.617697694511127
0.594509802417426
0.612479482928776
0.611386509196463
0.613296418440313
0.606932467424098
0.620973831181935
0.609003775495002
0.615141521595898
0.617350497707513
0.6136548766748
0.622813230232805
0.625482310270221
0.614086026759679
0.614131443850169
0.60543464289118
0.612934834284383
0.614317940459837
0.639721811394773
0.609796872663147
0.620407612424972
0.604110159855261
0.631996713604037
0.628113868813108
0.612759937970555
0.603757494937487
0.612054301058376
0.605555580836503
0.621657524092604
0.602329142732897
0.645033999182754
0.62580059490031
0.632860764000479
0.620503077743961
0.629160753903944
0.617135613339227
0.632953374913306
0.628795972969024
0.64126178566854
0.630841344603661
0.646051729964937
0.647802198631102
0.643581213324896
0.643022221347333
0.652930809090597
0.657192277206567
0.65096674019857
0.636656309063657
0.642894155123035
0.629375428065006
0.647010882205832
0.623805880751401
0.631703251427877
0.612178827734296
0.629310501408989
0.5979023622831
0.630783063045954
0.609396764662305
0.60279769368313
0.619911022754857
0.588081313323672
0.594607186382131
0.586102020221546
0.579403678983996
0.572132130395678
0.575169369602046
0.575464156454243
0.573369442162559
0.567736307417533
0.559655130823211
0.561983263516355
0.556167509808699
0.558848247011607
0.553058838889843
0.559018753156871
0.553012798504096
0.553135196073971
0.542463863241014
0.55652265196188
0.546678314773001
0.558278562473819
0.566672582604597
0.557191985838968
0.568429117058242
0.552747214387116
0.563915764486779
0.551072136029703
0.55246234590375
0.546995247237346
0.55219796854163
0.548280650536291
0.54352346264759
0.544706805826697
0.545671892288629
0.545844357449746
0.539665008008696
0.541339050544455
0.547279317343132
0.547274381314902
0.543050380475807
0.545819284904241
0.544623871925051
0.540578162839243
0.533851313077144
0.542212321709811
0.541730724403392
0.552089717830373
0.536193301734032
0.547153159437357
0.547829749699356
0.544453319303882
0.539780852598251
0.539980385770761
0.542742650423659
0.538203931327107
0.537544668695581
0.543822418332935
0.536768989040439
0.540897472220389
0.53368674705147
0.534089161131112
0.530817442074908
0.529380836576302
0.52270027862482
0.521642619222985
0.517611439791056
0.518597438136601
0.516486422915003
0.509789027817438
0.503023550307265
0.502605834369498
0.492283285530019
0.494394097905457
0.488573498622495
0.489721862229305
0.482850744600458
0.476806903560506
0.478693393445438
0.481036213061271
0.469925178078172
0.471750619951717
0.470355249366867
0.470457588467393
0.467041910329824
0.46717994551156
0.473440286917304
0.471937766797151
0.467179610385925
0.475641230494395
0.468124300012834
0.466825306767871
0.46879516967516
0.474791223706576
0.472358157172425
0.48124678076863
0.47474284051429
0.47981006681556
0.486289172430997
0.48436735731253
0.481094914447236
0.491339168788965
0.49127399436543
0.496275815751884
0.490706620475219
0.496920589718537
0.499532109690738
0.49961783438111
0.501741956414018
0.502737766795057
0.497334621632166
0.502816769515327
0.501974885036779
0.501614431620306
0.502042645971406
0.496454986874041
0.496689909634307
0.494093377240276
0.492597262387083
0.494953674461534
0.489975619155297
0.489926874006088
0.487815730761898
0.489282664284457
0.486798384656632
0.492429567052435
0.483579513547048
0.483372190549915
0.480932170169569
0.479560369089843
0.473451386289815
0.474385416924726
0.47454062005823
0.471744309200586
0.473360388591904
0.470650876773751
0.463211401029824
0.465812282871595
0.466480636799069
0.468785757256826
0.460154422732727
0.463403608982233
0.453829475515995
0.461353582836672
0.458778850216529
0.455262474398626
0.456233005630085
0.454632353160836
0.452199592676687
0.449795038587443
0.446870088568281
0.447626247271378
0.444969274459539
0.442025735450442
0.435547318781667
0.437943924498036
0.434288581453347
0.432242947499911
0.426161681879104
0.42526320402733
0.421341677712084
0.419005007195879
0.413997255003182
0.414626915343976
0.407780124625429
0.408009047287869
0.406545369578523
0.405070574808851
0.404578299060819
0.403647529830373
0.403441176962377
0.403728607278141
0.39919060105177
0.400777095469351
0.395539248715122
0.395862363284648
0.394696391861092
0.394022157716232
0.389283962620048
0.386222283164748
0.379223702240459
0.376730422166088
0.369696371166125
0.367008044699715
0.362847057537104
0.359774245352313
0.357354630217583
0.355592139001935
0.353744508709809
0.35488438608945
0.357251209909803
0.363033002791378
0.367303259838112
0.374035973135268
0.383244518647745
0.389612182312523
0.404645470934091
0.418148207896576
0.433356695052637
0.449611063665742
0.464147373216127
0.485743806475051
0.495554131752396
0.518533038277133
0.53325186663264
0.553005383066688
0.56405833810787
0.581477098406784
0.600256383767492
0.615642217301215
0.63547335166101
0.647307902768342
0.658554427506627
0.680226473612412
0.690329387179771
0.706564245815061
0.722240306103059
0.72539370236423
0.740366681270384
0.745369842248014
0.75421254348316
0.764123142927282
0.771997836880187
0.776488583933054
0.778333680880554
0.791145395187398
0.797003818297955
0.795791590955315
0.80117208957488
0.796365469311
0.803866533945228
0.797966190175069
0.803206407781086
0.816204119031269
0.809370826526555
0.814810925978783
0.815596148001426
0.807022254807422
0.81647274664735
0.82075902335517
0.827798310318166
0.827430279951992
0.834216245288671
0.836205068163979
0.850546179630148
0.843471218601677
0.857249046157107
0.869685531541927
0.8691991134836
0.875762482817133
0.879846264337444
0.898159816302803
0.912524532700657
0.920780507449352
0.932278583710605
0.94903159180653
0.964134810535642
0.974837614475372
0.988203783606989
0.98855744903971
0.997311594087047
1.01717307677701
1.00906053238774
1.0258383145941
1.02766903351637
1.03428448954116
1.03813891904784
1.02864121065288
1.00987029788578
1.02070923490276
1.02765743870714
1.01402221416228
1.00089004291751
1.00275407759719
1.0038345803244
0.997797068495106
1.01067157795861
1.02229452503762
1.03291837815488
1.04826871177018
1.07693307382808
1.08408036322768
1.09599091320788
1.1215053560368
1.12395608390431
1.14894271525156
1.17808216166937
1.1784337336305
1.21722618127336
1.23975983157626
1.22917069805624
1.25041680584787
1.25270572924971
1.26648444053769
1.31234243157331
1.29705719127691
1.34162752034226
1.32597223166402
1.37517923352748
1.42187353816436
1.41498956156537
1.46687821999568
1.4628310346961
1.48815654615111
1.50005891341155
1.5438107705992
1.63206975274921
1.56447878169284
1.53326104679287
1.62398927884698
1.6352859722639
1.70277700554892
1.63233320568965
1.60405637134017
1.60952084651955
1.64568984931405
1.68698452621428
1.71505723625235
1.70722473135533
1.67029950853492
1.70009715993805
1.62640586512721
1.66402749230703
1.54796259141173
1.66089262733164
1.69507328244311
1.65298390191848
1.65652772965489
1.72150189636567
1.62413837162718
1.67543868638117
1.6334860826886
1.73887871287295
1.70804799970773
1.75684388181498
1.70793296716017
1.73406545793106
1.74282260543902
1.82971650380679
1.79719751842807
1.79573346208644
1.8250543484125
1.89798460900425
1.79103105529586
1.91219689530704
1.78221505327165
2.03115589290529
1.9058570681998
1.86532699303847
1.90821279185318
1.96187200589476
1.83372373434612
2.01142986933893
2.00136291372805
1.88076057151843
1.95259805433531
1.98928759312852
1.84343726848153
1.92093105772323
1.94774187750325
1.93424235689698
1.93150108958803
1.86620078488468
1.94897200401372
2.00754402407346
2.03812490242963
1.92380511776888
1.92272328554752
1.93515537945728
1.81271805838639
2.11067430311849
1.86739137937497
1.90450983625265
1.84905074874168
1.76328949666154
1.72699247534149
1.71401701461943
1.65949059575505
1.69251301812199
1.52293577895289
1.53752776613887
1.43064977281318
1.4091545491108
1.31907044456086
1.31273546261072
1.28907322820218
1.26344581221943
1.2547140177341
1.26170807364835
1.26147258986799
1.22508805315105
1.2125300265111
1.21558483025856
1.1815240431211
1.19410302338806
1.18806315262369
1.18575106647514
1.16817934313888
1.15736112172091
1.15531289345986
1.12829892297472
1.09177977742052
1.0908143028595
1.06977818568963
1.01627868369079
0.995210033812504
0.97601193216786
0.937773573478857
0.93284455703773
0.878378827309803
0.857422527601136
0.815576784924871
0.787596834897408
0.74778197660796
0.72462936254558
0.681509551830564
0.654214461041868
0.622428332521421
0.603618978001462
0.576327176744228
0.560314316238993
0.537657423154548
0.519762558815826
0.504821829311791
0.485624801068211
0.474127903536403
0.458557586305518
0.447287813057641
0.437687403170538
0.437413941772565
0.431451723310774
0.420908027465857
0.419229422817638
0.418769082594031
0.413083386562339
0.418208378844129
0.413799822647095
0.409958232813051
0.409948689236348
0.413175942302543
0.416385586787095
0.418347791292191
0.423579840410471
0.423459271199095
0.427253812908633
0.425629442364683
0.424091158425168
0.422695420161997
0.416375207331544
0.415197704188297
0.412476249669461
0.409026557865757
0.406872601692337
0.409910749396235
0.408506199210011
0.394690009218879
0.39726529107216
0.393725962207176
0.393278216179881
0.394753532352593
0.391668788863456
0.40002344168774
0.397751877919069
0.395585798047626
0.408830333437152
0.403800566505241
0.407387174419587
0.407912453427297
0.419013610706766
0.406914751391992
0.419167852089565
0.424985556640613
0.425450680684637
0.433001298500732
0.423735472528485
0.427718584977138
0.433084650357736
0.435806451037795
0.438939183564802
0.449285948699799
0.446310847482328
0.447703472312199
0.444892013688059
0.442163582797349
0.448355711976362
0.449288667054561
0.454982859954624
0.45556605061899
0.461233351391201
0.464839178692511
0.474584690640979
0.473570650417929
0.487464598371607
0.500401827559752
0.508997339819364
0.522191462588492
0.536114256793978
0.549011085103935
0.576387125191391
0.585685173547455
0.579903062626112
0.59636085950047
0.591103960780822
0.590445878870802
0.584488036278428
0.599041027752783
0.578647497551749
0.571355925767228
0.564193388478308
0.553392964196557
0.548589241800427
0.538703630221817
0.539203757721814
0.535912029307582
0.536696394092827
0.528870829342018
0.538482306494448
0.522270369917642
0.533219931072442
0.536893073319075
0.535391141052284
0.539486773526341
0.531254182520731
0.517220417204394
0.530157820890202
0.523198521054815
0.521168063511642
0.510310755342746
0.50519486814134
0.503387584400516
0.493848321372709
0.472962242520054
0.496235548853826
0.485092060418405
0.476468472286651
0.476867780869251
0.470235301863501
0.467825347746531
0.471971211565346
0.458331019415961
0.468479104835308
0.464165968584956
0.469300345580469
0.457247669625226
0.464900405242162
0.460155751960117
0.458026375448515
0.452866917574345
0.44135862167429
0.453233955967115
0.451434729642074
0.452273435771247
0.451743164047253
0.437892020213555
0.433671232458796
0.43898795278641
0.434904426349392
0.441778401354694
0.433737679291989
0.435745666807827
0.429398502540348
0.412880656883088
0.427578010265209
0.411064022903565
0.415929192721798
0.427303857103429
0.419938561124261
0.418287848725554
0.432712425757729
0.408608302924409
0.41687222562028
0.422497567557196
0.432312655135628
0.42454092231152
0.417093148148476
0.415530789726707
0.416880693058264
0.41735078570086
0.436808134514921
0.422450793552617
0.438625944885865
0.438716422219891
0.438457370635864
0.433005729629134
0.46090407052336
0.444111395194494
0.448593442557133
0.442338403482277
0.4383159219996
0.458975807088329
0.466052923181498
0.440697120972944
0.459199028923269
0.455870129500063
0.470415401044883
0.463079281844098
0.480572717986233
0.481272842026132
0.491707934498071
0.488794750653616
0.501087564512083
0.491445940833841
0.534845631343238
0.541042174720228
0.552207576946479
0.548363944807368
0.541709226102206
0.56769392814138
0.608381031804898
0.625307585007636
0.621924516538134
0.621975849809269
0.67718577932739
0.68466888315246
0.70344907516813
0.681962856153462
0.6884514506272
0.713203738370272
0.733550785872884
0.721091277107965
0.753334813915996
0.738215969498553
0.736384186484494
0.708372027210507
0.748355693094248
0.713043964945071
0.722843106788973
0.74643024742447
0.750174558214037
0.717595780851065
0.72655727536532
0.6935694361706
0.708354179965302
0.694526076108553
0.736780965630134
0.715500123462581
0.738028563279064
0.720763203615366
0.715922821643351
0.704945549273726
0.679128645179392
0.681371614808383
0.719617515765715
0.692066632523812
0.701967220191312
0.653286964237185
0.640395071871776
0.666311646616907
0.652522346320718
0.642049718095258
0.648936239092184
0.65644006053592
0.707385407187879
0.660004082924258
0.66632705408122
0.676332521614667
0.670779443375531
0.623060405579548
0.627865635848915
0.638554441973359
0.707039379322339
0.628407078261134
0.661723913235411
0.653692537334243
0.628948009894159
0.654406085256391
0.661354026030701
0.627343139096333
0.671834257701514
0.644372384250809
0.671149858023067
0.625570990442165
0.672420161251703
0.648985954412512
0.637254633412187
0.653744505467305
0.757051729584399
0.778936540960861
0.727128435911041
0.671863960668804
0.709542018933326
0.678643025274019
0.691243095481629
0.695429463900029
0.763609495063362
0.718499416354556
0.833024394780438
0.787338194103018
0.789339711903287
0.703940555607001
0.778669244712897
0.728885852012498
0.737574981073472
0.822448914181909
0.805560420072297
0.727834257403086
0.80340209771213
0.763925643137733
0.808834159126002
0.827738746017385
0.803339598062019
0.856760535727062
0.907643238700013
0.876463365295555
0.933260251591189
0.806614177389502
0.92100225871099
0.884939936615987
0.986565097583729
0.879409663860896
0.939027261201117
0.875732384179908
0.864570058992513
0.929192145324795
0.905096033162488
0.886850417252504
0.868699439911629
0.803824833930061
0.737219312202586
0.818580432545823
0.970745493361951
0.789288101040213
0.949641526701133
0.775777162545859
0.749186634406146
0.81521944277915
0.992424574753481
0.827899033961059
0.91355352605705
1.23076403961117
0.846671804218235
0.82969381024683
1.02504351685467
0.792496118097612
1.03624529361703
0.762175007505686
1.02813150583962
0.888302391523365
0.644575687941319
0.641995051437019
0.917818232935273
0.758627662951936
0.724883734767418
0.95066189624346
5
1.07263203627617
1.2432178669576
1.01725475065404
0.808043854946627
0.662206929930811
0.982154396086322
0.839043697838361
1.1140559129348
1.08969309574479
1.39496774506485
0.736650719282832
0.610302664942257
1.38020317151997
0.909453773900874
0.572872639783946
0.916256933970564
5
5
1.25293986462951
