3596
4000.36533379555
650.420452594757
1
2
2
0.0596148887049864
0.0708854647147074
0.0493361453168841
0.0731171916405385
0.0643303607068353
0.0701534241397409
0.0555763344875085
0.0734628909602813
0.072811128952626
0.0753058011159668
0.0665919747336317
0.0752281205684271
0.0732923274386841
0.0666473087774874
0.0630367451578545
0.0676223093131862
0.0665644803554444
0.0723450439111243
0.0629131160978371
0.0762510941210931
0.0632710124333111
0.0801552715331694
0.0654904462911303
0.0752606104219984
0.0645761321948708
0.0750472388765788
0.0659476211178825
0.0788549517985346
0.0630478941145747
0.0758386983321988
0.0627464082796383
0.0684748486698573
0.0654151988668043
0.0730238360082612
0.0625506250063894
0.0714133669169483
0.0623961934611698
0.0741578126303986
0.0630512959716329
0.0770916730163448
0.0623927178511067
0.082432949620374
0.0698625121191488
0.0735914866371241
0.0650720486775489
0.0732020209538368
0.0614277448209224
0.0726841106647979
0.0608623686239238
0.0678942113397688
0.0535902118393548
0.0696392839548435
0.0680422909424182
0.0718844969829349
0.0706614150695385
0.0739488428956021
0.0615973801277459
0.0784160407924462
0.064516658939694
0.0827538256730509
0.0758253720423314
0.0757853681821286
0.0564468623723682
0.0709323548648794
0.0602266178049963
0.0634670144334635
0.0673272286516817
0.0701276145937769
0.0670187407402076
0.0725902617093234
0.0678999126067837
0.0862508946207845
0.0691023760130714
0.0645005494217497
0.0678378262333589
0.0774973659607046
0.0570818034014783
0.067434578313356
0.0721622094609838
0.074486764999406
0.061687399031898
0.0639074279327247
0.0604207268222108
0.0689253506819644
0.065127442619179
0.0673401256567642
0.0558541732815228
0.082668058313892
0.0725278188933531
0.0669227121249016
0.0557625837189003
0.0635102804179796
0.0641384540808519
0.0690439893208619
0.0693163536170615
0.0707515227288225
0.0648961792742478
0.0638871711343188
0.0727258146962739
0.071584732729527
0.0802407838683327
0.110517928335098
0.0492869859733948
0.103914941781972
0.0627515910459122
0.0756565067509857
0.080425888109951
0.0753948623433033
0.0642257057701751
0.0615118762618357
0.0607968260291135
0.0564488885998281
0.068126502355634
0.0556441623715518
0.0775242070103045
0.0822670485129687
0.0638066620607695
0.0677552633966213
0.0568234693653967
0.0609945484499996
0.0776811597059499
0.0854837713182135
0.0615264876867006
0.0716275230405189
0.0629290129871058
0.0672755023474349
0.0759189183018635
0.093631131079827
0.0603183948811749
0.0633686747083937
0.0521924679678099
0.0661714416852521
0.062240126491736
0.0875674370145703
0.0575591453835743
0.0727824516958778
0.0482143185949476
0.0904254559657654
0.0814542862755142
0.0675587682128106
0.0619767324583969
0.0666555910406277
0.0676323692421057
0.0963360852778541
0.0643478201963577
0.0604962494718147
0.0611681135031075
0.0810005034200103
0.0642697740944752
0.0620233426054497
0.044643314228185
0.0754663766964907
0.0642760991895694
0.0616752048248713
0.0968555318140247
0.113875498809564
0.0635710725667937
0.115652479009103
0.0446530214316238
0.0859895011550057
0.0433062617224832
0.0722880025528456
0.0464767448596588
0.0716020683501103
0.050182635635837
0.0853544215645046
0.067918048618888
0.0727058120778424
0.063774471900976
0.0867630254355548
0.067156558728352
0.0728704023987604
0.100555332568129
0.072067762838072
0.06070512097315
0.0788995793903782
0.0635375861158923
0.0735302991932995
0.0632780453446467
0.0844000724301597
0.0475803375834611
0.0702076490968285
0.0497342971918348
0.0815262723628675
0.0563415330456611
0.079754029638703
0.0607180812845292
0.0714817271424276
0.0610124862380204
0.0884374519023373
0.0799925277470733
0.0924815551439234
0.0577024756299218
0.0826553176474174
0.0450952293984396
0.102784669428017
0.064749732183882
0.0764082608050538
0.0562709485729823
0.0597824923565115
0.0592238974771526
0.0618679728360345
0.0554604129366323
0.0797134712847035
0.0488190426585153
0.0998923750949275
0.0500539907963492
0.0782328913543605
0.0458502068344296
0.0762779421380925
0.0612020868030313
0.114268950350915
0.0718191871995164
0.0804198918747368
0.0585007679896255
0.069369943014072
0.0697588025625148
0.0749715402076261
0.0498742715889021
0.0677600140940999
0.0597712476902993
0.076450507454503
0.0585129617469052
0.0683655537956918
0.0618496528245746
0.0710026687781785
0.0620534244204406
0.0695318648380477
0.0554443511145324
0.0813386585239057
0.0677368845104731
0.068953872268265
0.0643243728749295
0.0654282545242834
0.0636293041393488
0.0946641476086749
0.0598077507167071
0.0826877693731229
0.058145903307013
0.0727256512362643
0.0413359265574996
0.0774164257774806
0.05914484956641
0.0834382175321195
0.0595401835861175
0.112384763838701
0.0484672724921961
0.0785761792600772
0.0476987133354775
0.0900422767615688
0.0597839231189279
0.0827709149310576
0.0608849389925324
0.0773541039286691
0.055454257403063
0.0774249131864332
0.0763009369412513
0.0818215544807888
0.0604845332620027
0.0834084015339203
0.0702498306265972
0.0735085650942495
0.0695422594600219
0.0782521532095836
0.112676829947404
0.0741647308356219
0.0702775868944336
0.111377577412
0.0518257123945863
0.0876485520434522
0.0640044466433481
0.0776691581574034
0.132553082319914
0.100897455392281
0.0660491208193884
0.0707024098903613
0.0729287840835472
0.0728985509955385
0.0749395173881082
0.0880582519511501
0.0865989945478609
0.105887055222889
0.0830037541032701
0.145482965352079
0.0492657498440892
0.119072026878511
0.069972287376236
0.0904771944143403
0.0672720303753673
0.0792717012384026
0.0670934840314997
0.0917727499839044
0.0747461550538015
0.0950027181173198
0.0859317187779278
0.0817037765745935
0.10525986263301
0.0868909980533115
0.0757379058520254
0.0820130475388239
0.0834354440497852
0.0797872021824286
0.0764472567363276
0.0788583916895847
0.0830313787494977
0.0848873949555418
0.0844797802710102
0.134219901056986
0.0747783936285455
0.0863120136194934
0.0954377326201943
0.0886596378035227
0.0789604321339191
0.0832859016565758
0.0843355878096777
0.0852042958684286
0.0822087889040352
0.0879560238046718
0.0994764688617031
0.0957445245523262
0.0727033208376869
0.0879549238149924
0.082782204490833
0.0908546882290425
0.0827697733120224
0.0929411402031255
0.0857466878280442
0.0993418480124186
0.080485524073278
0.10165647010707
0.113248767597992
0.0925086727514911
0.112206176183058
0.141740431162918
0.0760240304446381
0.108687193831797
0.0806209766357359
0.10107193551404
0.0890456025679129
0.114514418221008
0.0880412597839712
0.107721158458438
0.104528356826406
0.12800063305378
0.0995888351198449
0.133644393370054
0.123295519017884
0.177377171925212
0.0977725428287735
0.130522046343518
0.0959097865814817
0.147730720482327
0.137684773022381
0.124107642470025
0.138865910497289
0.113835141530543
0.119151730303965
0.119885196020902
0.12076858043651
0.122814071705734
0.123239106826865
0.140129522258991
0.123853039494948
0.135877599713583
0.132372156674485
0.144851351250646
0.138385709508714
0.17785769573473
0.140669293105963
0.145029827232959
0.14988954055639
0.14198949073185
0.154003554971737
0.183613231528011
0.172403790782054
0.215169277628611
0.151294508094073
0.221628509460713
0.161254801457838
0.183516210609727
0.156392853375719
0.188072339668033
0.170890340261061
0.195458741860807
0.172848404799894
0.19707525376214
0.176442168304832
0.200377622201528
0.191598762298477
0.212829931406262
0.187776279356057
0.232481727338235
0.202546354060229
0.218412267596903
0.197084607003576
0.237378452883087
0.256746659387668
0.274575977651684
0.228799068143584
0.232152643855297
0.216326666147132
0.233327285759636
0.236912637925537
0.242090942749233
0.240091351763468
0.253509327709746
0.265525139861506
0.26672024757675
0.253446843649122
0.294533663891971
0.242984057574384
0.281078341524952
0.267370750627876
0.286494924362449
0.28846980952531
0.301858627555728
0.27428867554922
0.300748678160773
0.312918880003448
0.2911438492939
0.300189018692818
0.294485134271704
0.290941192904456
0.296579647561572
0.301207038026797
0.319035453646063
0.307057043657646
0.344201059196338
0.317279606092607
0.335983101782149
0.313598740166974
0.340965700906342
0.330235896277882
0.37639451690365
0.331711776097926
0.360974263796327
0.330802872935418
0.353750305612962
0.344660706461491
0.382465648984121
0.376153930652079
0.381417606569061
0.39059877449841
0.384607314890521
0.365316974523524
0.382828521352935
0.381745592924022
0.393713673619693
0.376759162439006
0.404144438871347
0.390246053561022
0.405850308588876
0.393994992871784
0.430881501009859
0.398672390605183
0.44074089490503
0.413798061217066
0.454929440870765
0.419721032384927
0.449025169129841
0.432670966140554
0.458339740468507
0.466337406991686
0.468877316422867
0.477818668412297
0.483885920102135
0.464647604061052
0.481438040674256
0.463127770240327
0.471139893382514
0.479804706616835
0.515667085187155
0.457014658491608
0.501213194215441
0.483508186267104
0.523809512062052
0.479542222727144
0.519316215457435
0.496340890973419
0.564369602052024
0.494039039257688
0.533315039950903
0.518073771020103
0.561063077704219
0.539718035002076
0.573370263464398
0.511056329938233
0.595583926364021
0.511315721713571
0.574575541793789
0.560767064914487
0.597393571801663
0.539859564991287
0.609446834838663
0.56347871126321
0.600552737373566
0.568171178901411
0.591009079694872
0.579288068520249
0.62450165797481
0.564539130008906
0.652670955650678
0.59404542216504
0.646177777860996
0.592272047724598
0.663724206066707
0.628455239233558
0.673620504712875
0.601130533417544
0.660512019412706
0.635625553787941
0.699617578266361
0.624595010403126
0.709357833746277
0.644250839819257
0.741511333807356
0.651173505284388
0.718003206717599
0.650450946876256
0.722614728859912
0.680697423372413
0.732795117092858
0.671353574058503
0.762028901883712
0.701276184544916
0.755957537944588
0.689255319808142
0.77310192878179
0.70269591842344
0.710022596240778
0.70034374168282
0.737921659532927
0.689483911730418
0.764339118173394
0.748000807128192
0.797983713463234
0.698276004644931
0.814900876339411
0.744082289109981
0.832475175383614
0.723595266579006
0.850843194864808
0.772397309919279
0.870105751556112
0.7786926979984
0.841317742127122
0.778101590892857
0.849041946175665
0.808006506230053
0.83780518996234
0.741488803310986
0.838017707927013
0.772384175345341
0.842488029264028
0.818977332775922
0.917718959192416
0.798706349876672
0.911488407574045
0.797406072291386
0.963800520020469
0.831604017193733
0.942902426841762
0.81786245922503
0.877211558890073
0.854458725190984
0.965382606801754
0.86726116696534
0.948732868566618
0.854747765772605
0.915205613533546
0.862840676912165
0.995979068454878
0.889717436292992
0.927814398971555
0.896154074637423
0.89814411412437
0.905885510005302
0.953840725616895
0.92349034050316
0.970280430784571
0.92396067543501
0.992132409314691
0.976274808337145
1.02406984170249
0.980582985189653
1.03435114692888
0.963342769194582
1.03142651110864
0.982025566972721
1.03721329355225
0.958905500472805
1.02024974476493
0.950917106760377
1.08336145524066
1.01846613257718
1.10013259849751
0.98515163430059
1.05419812352365
0.97909707389907
1.08349615718673
0.97299698246722
1.07015729358836
0.968639323773671
1.15099278112521
1.01564724973343
1.13201209104326
1.08230342065437
1.12991698580931
1.03124002287055
1.11060256855568
1.09777209770484
1.08028921556891
1.08167981795054
1.21566517684481
1.05487631807416
1.2113310354122
1.0101976852928
1.13150911323408
1.07608905599593
1.13363388975708
1.04001915990202
1.16924991375024
1.13543371146753
1.21321728483188
1.11887959200399
1.17297702998445
1.10297403359032
1.23747409846758
1.06169850656458
1.19630677377568
1.09276768552981
1.2565389802521
1.02972662280758
1.22349850428727
1.11702823535547
1.21940233154415
1.14903210358436
1.26784439338985
1.10700818350722
1.24345008774053
1.09350267542352
1.1985061679188
1.15042640508044
1.25704677933649
1.2381466489349
1.34343298152844
1.06967398574966
1.34664124255982
1.19402961761047
1.33692864293303
1.18693524322787
1.19820503729237
1.19326816263102
1.21607685479431
1.18655923355563
1.2938165750488
1.25226676690705
1.3546787709862
1.20897323572562
1.29630319159356
1.21820562866144
1.29631163666803
1.1435243569913
1.31374013380192
1.23247459295215
1.41104253113647
1.20266272134662
1.42483520939272
1.25474866311037
1.28280327194892
1.29129264668914
1.34379213201783
1.17786325081889
1.29709293590766
1.23449931766744
1.33639769882143
1.1764240204656
1.24356042013498
1.21164138650169
1.36664947336339
1.41487172121356
1.45983261407981
1.19215156061049
1.47441140967016
1.16394371289593
1.31960714415805
1.2423548829785
1.40766173936998
1.21326654782135
1.295268191898
1.33536836080171
1.43436494118253
1.17833851699317
1.47373581718751
1.31550454682076
1.29576939845717
1.17912540607232
1.51000190632405
1.29248608617195
1.42000848588277
1.31959067038835
1.55360818819411
1.29391830531354
1.31696546791818
1.29698204522647
1.41610432459765
1.28824733563709
1.3582648181308
1.2539229031922
1.4629385802702
1.23559617610061
1.48960105669732
1.48222456080671
1.38548024903771
1.2371518215978
1.39532128094213
1.22533492590351
1.47632523113083
1.20671880711336
1.45753673260579
1.24148896983053
1.34967440594326
1.30863471978045
1.46520322176444
1.35234762638842
1.47726478459524
1.39362631493762
1.46064602578744
1.30380838627154
1.38561424646433
1.38272153446629
1.41480816654376
1.31143963862295
1.42041854518509
1.26838191819276
1.43793387761586
1.36181391730994
1.39310636369766
1.29606694002892
1.45130553660583
1.26818510897143
1.33481807682854
1.27467008898444
1.35250637877995
1.28503934934494
1.45091537684667
1.24971740455977
1.34781462748514
1.46823234750149
1.41912444559458
1.29609857521678
1.38394749023849
1.35417421812594
1.39951307446659
1.27508950205687
1.41983678488702
1.26408634393845
1.4578825088809
1.3276226707949
1.43570628946585
1.36223780260292
1.36377169970176
1.23709543126347
1.37639669842396
1.39491449902738
1.44233502004349
1.25538515824058
1.41585147314415
1.32051192846497
1.41739823391748
1.3520507955524
1.43991161112735
1.34032610185275
1.40029598403494
1.33967819348699
1.45701662880807
1.2692208930756
1.49182928429603
1.44216891524184
1.33285777295094
1.29890684928525
1.37411802583089
1.36570325344408
1.37553180740853
1.40346235076499
1.30371460700215
1.34961729058465
1.491241925289
1.35460444375
1.54145110977172
1.29847049612419
1.31617304524733
1.30016668330449
1.30741653953268
1.2666446912766
1.51008599065585
1.43665425030566
1.37076401130079
1.30701258864038
1.38767463948961
1.4424885483679
1.37769694008785
1.32089282612726
1.31348684999586
1.31412970907121
1.34991407135762
1.28672854548466
1.39236377733996
1.32343518690572
1.37873981826758
1.24228695449491
1.46995398253957
1.27151328170261
1.42711156514312
1.3152830679835
1.3748154990908
1.33609609753439
1.37320778015751
1.29578744160862
1.40850625125679
1.2593460221095
1.28498034072004
1.28425954874043
1.31176075641294
1.30764206652241
1.32925234123111
1.26804599438127
1.34740504723274
1.25463643721564
1.38561401444571
1.23019997817431
1.2023355480011
1.31019401527578
1.38618190924433
1.33474597699886
1.37699548618448
1.31551972503646
1.28668331413601
1.28795496835007
1.38181084574554
1.28873179181707
1.33768309028394
1.2116658042941
1.3080877229743
1.24364929561033
1.24778355768169
1.20629042628219
1.25727379591645
1.23856006416203
1.26927826812675
1.24375512029635
1.2891121129447
1.17004515579016
1.37691015916294
1.25924170370977
1.30767426627271
1.19736872170832
1.31568504249712
1.15849263270038
1.22144321280891
1.20793113951485
1.22129029615615
1.18415197579761
1.19720764068695
1.22632639610798
1.24392366857487
1.26541056980469
1.21507910185558
1.14852151713386
1.27975693047542
1.12174393645974
1.20742667221584
1.18624714962662
1.14881553510692
1.16759615440353
1.18476972775166
1.16144585468526
1.16717840812854
1.12392032655491
1.13249913520013
1.16482801318998
1.16814697927655
1.1150125502987
1.14507680082364
1.12541069161073
1.12003396885664
1.10809872266426
1.1334704111653
1.11900330204391
1.10788143709297
1.09106850702792
1.11402985921756
1.07688503507151
1.11956083106267
1.07400864622358
1.16788566449523
1.05366303052763
1.07855236808863
1.06688970345544
1.06748040770085
1.05102983538152
1.05272132584161
1.02517497049209
1.05550515489362
1.00658362752002
1.06192030916944
1.01791542124809
1.0387426689549
1.01679638501392
1.04272131490963
1.00684797439755
1.00643555546033
0.991925141066679
1.00858538598199
1.00200834579405
1.01642451131523
0.980395671717647
0.998750270869324
0.984797353485771
1.00632827891936
0.962523479878365
0.970863831215129
0.949558876474724
0.969193957130585
0.960192779410062
0.972968516023393
0.95906350576892
0.937435767197511
0.93443369997568
0.927798492296399
0.920038797340417
0.943062087848294
0.917352491220567
0.887866769393694
0.895863749715718
0.91282036716477
0.886065302560615
0.885344245547872
0.88974605121364
0.905658386418099
0.885315578846694
0.900145760269848
0.88185162391996
0.874136136099567
0.868614042767813
0.881531446824367
0.861168234956281
0.871217480296233
0.841980880453685
0.850644110271248
0.831054744672921
0.849707885259549
0.836111389405646
0.830723811850296
0.82371822713547
0.821496564896303
0.811828282129179
0.818807962796971
0.811847231033863
0.810071491431817
0.802308311602265
0.82216705719687
0.779138799625528
0.765933175925109
0.785921917549846
0.787752082314949
0.764833704173768
0.769776966999371
0.775252201207756
0.75819267118184
0.763023951603027
0.759263880255309
0.748792706643051
0.767225172497222
0.740116776029042
0.75238073046742
0.744754240360903
0.734900514427092
0.727393650106141
0.738389824070708
0.713147175430366
0.726922198007979
0.717524608170638
0.727042319773265
0.71809234131736
0.70356151914198
0.700598513421267
0.701302541764266
0.68082898443829
0.689831642270754
0.682990258421713
0.704850213952771
0.689049930873502
0.679755891480576
0.678770374086549
0.677287571225165
0.664021655265325
0.68012228439554
0.664931198311719
0.656612390781264
0.652398685997013
0.648138834764858
0.647715903194263
0.664018661030702
0.62928211298008
0.633366724555512
0.647831849199214
0.650572708763532
0.623382420349609
0.631036114929762
0.629598817646676
0.624017728707398
0.612053889063766
0.614881962842013
0.602461348129173
0.608679329521379
0.601028554891498
0.606372576239426
0.60239467457814
0.604125950634329
0.594353505578299
0.591532180760598
0.582895102440539
0.590765691336016
0.576316343986499
0.584474338804234
0.573006133093379
0.580323459396746
0.566354748878361
0.572403646741333
0.565471730796053
0.566379365771452
0.552572602132754
0.559513648165939
0.546048919259616
0.553719023917312
0.551005181912837
0.538889511497843
0.538586493232212
0.548904628442586
0.544346258667433
0.530801022136343
0.530933720265728
0.534258830081437
0.519255883212863
0.537810703238624
0.530255767162951
0.524338317571389
0.51080536948942
0.521060564706694
0.5081371631485
0.50906298246568
0.50426354720085
0.512372327017036
0.507340191330232
0.506862833857552
0.492842867140582
0.488855807659978
0.488179493666859
0.496140381958346
0.494320732551466
0.489896430928092
0.488664350262005
0.495142958066242
0.482757671220953
0.490303844946052
0.483762552679955
0.486267820963878
0.478582398036532
0.472030024115054
0.471856704683786
0.481859385225943
0.47040625047805
0.470047738635309
0.4689095534618
0.470488594616219
0.464240617941371
0.469999424403026
0.468177119133548
0.462492182670515
0.462141453827957
0.469834873561774
0.459248588058926
0.466016578909657
0.472599729381773
0.475206308523744
0.46208775258435
0.464060811076587
0.466291571407335
0.47008485872558
0.46404323524647
0.466990672404583
0.463825834884355
0.4772082028201
0.467916761329093
0.465334441936005
0.471006645723935
0.465418270409313
0.471889005196398
0.478304659395842
0.471577946128267
0.471421596877893
0.479169492454969
0.481344988519537
0.473302491083246
0.478231893175733
0.475802270636144
0.487868420257133
0.487028806122553
0.489287655062656
0.490544522205083
0.483654139193688
0.482815785102978
0.493851171692371
0.487978850902055
0.490014956972576
0.493829020444314
0.499066803891329
0.493990912500394
0.493406767743047
0.492933851960651
0.502616249028381
0.49993833571273
0.499663540460127
0.50938059476873
0.508985993374557
0.513334583333736
0.521442621096372
0.51121556709578
0.507080143325447
0.518192975560849
0.532160667348039
0.526789072630095
0.530503941925293
0.53425068203138
0.538966089101815
0.535817108683929
0.536607905896146
0.550527114908098
0.549850681229822
0.545696692182311
0.558577653989391
0.561476591135874
0.562482570209411
0.557364529198734
0.547389536841259
0.549670602531819
0.564334633071823
0.560066184064112
0.564912186570483
0.568442513481025
0.565114968183485
0.560103395416254
0.560542763482377
0.563707752639478
0.562496822562169
0.55962812941005
0.570354031645886
0.566483681748673
0.554074705859976
0.550062561540261
0.547534206672741
0.5652800420879
0.568050863264018
0.551424839812121
0.557501320683633
0.557150839520281
0.548333709459294
0.546076458622967
0.552615374550232
0.551944161126436
0.551640763101828
0.55518888733639
0.549032135704212
0.544077200352145
0.539883514466829
0.544479826957929
0.546202375773363
0.54198975945792
0.548653511873132
0.552007933106639
0.550058473032679
0.547848972663793
0.545481647810345
0.542229654624776
0.543592453796683
0.552241404451256
0.556208458654913
0.547409745229155
0.548175539453641
0.552765079239938
0.548166683536146
0.544871202705822
0.547434833381604
0.551038541304005
0.542388479936418
0.541088754576648
0.535982722675476
0.543353604032404
0.550144495956982
0.538590872408632
0.53801671896018
0.535022167189432
0.524461429123461
0.530085677997257
0.536785776634483
0.539589110812567
0.522440480000253
0.520439245887995
0.523627596758926
0.521014145496301
0.523568208122965
0.517802785202411
0.517805556869958
0.518735028466539
0.506835752668407
0.505247554048941
0.505358854268562
0.503243491018795
0.494215685933945
0.49309618485188
0.499092597460118
0.494996432377964
0.484703224417199
0.482678771826991
0.48165684223001
0.478415589953828
0.471837179565788
0.472317041612948
0.462653534140119
0.467525106684521
0.462380992427592
0.459680400749727
0.455965136357512
0.453325252123261
0.449165394049971
0.448654282170854
0.446134470685584
0.441790663829293
0.444852008770237
0.444853145362583
0.437029892849551
0.443363107988393
0.436981377672103
0.437008097823813
0.429206903707559
0.430884372285463
0.431749786053334
0.418424459357426
0.412373328762136
0.418219400612949
0.414048728597499
0.41352552055166
0.411063993171704
0.405003930512455
0.401918838055969
0.404061387668949
0.397197923926509
0.405573265530342
0.405650500041899
0.401077328440595
0.391064981524603
0.396549967966071
0.399080979814995
0.393376080799436
0.384951230917416
0.389830034911072
0.392154924195438
0.392439314292421
0.376222633525652
0.377782192854659
0.382221229547951
0.383026868999923
0.370666040485575
0.378363318889584
0.379303297913906
0.375845471003859
0.371407219877913
0.371664900460937
0.376614049225398
0.376116296184853
0.368445049439641
0.369413357580239
0.363654372861171
0.369785235179035
0.369153006868763
0.361934991260906
0.357303644146266
0.361943750123521
0.357166582976344
0.358125097289894
0.35433112202555
0.360023678900263
0.35935740785889
0.355460460424939
0.355796356498374
0.35627221370976
0.346940301840134
0.350444701930891
0.348338677866604
0.347921855499997
0.34637450377063
0.348058854736229
0.342298221894157
0.348136329614604
0.350163739964145
0.349465271669772
0.339590814852536
0.341957753193939
0.339906002059942
0.346616878256402
0.341747934700345
0.337779223871839
0.341420153122701
0.337837636728133
0.337586744070793
0.332832397687608
0.331637817201075
0.336451689178289
0.332333302872107
0.330544150199093
0.325808510539627
0.33355269510463
0.328037522173649
0.332165494687217
0.332260874897833
0.330592453441821
0.326014275561259
0.328218669614871
0.324809790801714
0.328103571032547
0.320531863959422
0.322336073711923
0.32208215813801
0.328836196858364
0.322468663977358
0.323023359670175
0.314632852468106
0.319626386960205
0.317454320790428
0.321090734230637
0.315569219325486
0.317293446624615
0.31501817732437
0.315367527555049
0.314460106014252
0.316643623976956
0.314244092627361
0.320391624590315
0.309685418231974
0.311937093030215
0.313791329587508
0.319820310979487
0.310141370904483
0.311272592665268
0.306249927188072
0.3129725575142
0.312034385861128
0.3129775817024
0.309493702579612
0.313717394142802
0.306979199391765
0.312839555278406
0.30810240190296
0.312428593468657
0.308971402209496
0.308365971612043
0.304443186102515
0.31130088964343
0.305541937029202
0.306400144081611
0.304079921986112
0.307156923260541
0.3035920813376
0.304792136200047
0.303618622870939
0.301683726116598
0.299321451540657
0.301909132358202
0.301876514589069
0.301954895144594
0.297420475409884
0.300644651536349
0.300094587750154
0.303185565295469
0.296168521915176
0.303329549392471
0.296227421863623
0.2985344504045
0.291759837881374
0.295909048896362
0.292762271611419
0.294655596197413
0.291343206073127
0.292942504691466
0.286784661238587
0.294377214407377
0.290483241527152
0.294683410260439
0.287490134123672
0.293264681065575
0.288612198933768
0.28907590457323
0.287342671720983
0.285358544617784
0.281951050527377
0.285701129317374
0.281854951353746
0.280156211240888
0.27832930155493
0.281319127655353
0.28065421501139
0.286237195545383
0.2812379963033
0.286041067463041
0.277796721871854
0.280781386842412
0.276870920438819
0.282081408881235
0.276524149203526
0.277017322182732
0.27965392576158
0.275282228631222
0.268728959661671
0.275378215168085
0.270231411027498
0.27567899557442
0.268222434082995
0.26963880462638
0.273345092664119
0.265465705014911
0.26819066516661
0.269845047189792
0.267718650853303
0.273603032173458
0.26359407509314
0.267304937602663
0.266596296988017
0.267151704326733
0.257652185465285
0.260480272688785
0.258468000401286
0.264524176074132
0.259749873515124
0.25918558271321
0.256714599974204
0.262916860043373
0.256537965603827
0.255568820250577
0.254035147939359
0.256297191816593
0.252438639431428
0.256309336708817
0.250380787929975
0.254198782249238
0.250466458553174
0.25183575887945
0.247025921286312
0.248344235818874
0.243820091370814
0.245282376728879
0.243845882672277
0.24821959802797
0.248104646602703
0.250021060918971
0.243197521665459
0.247586422262104
0.243883905621431
0.246893389164848
0.236220849530494
0.240828644340483
0.235224247845921
0.239891897867392
0.237889322804656
0.240641773605267
0.232317555980555
0.238657879677228
0.23372731208119
0.235150473423625
0.234191218591333
0.235588396521548
0.229355722888654
0.235090316125754
0.233390576222735
0.228591295327012
0.228487736772864
0.231627367671265
0.230574102072839
0.229233204902923
0.227701664965423
0.231160301068719
0.226018545611431
0.228282114298117
0.226099865769521
0.229324520398695
0.226553011229605
0.225218510836781
0.22011505322968
0.224967571013735
0.220048665162129
0.224270461839742
0.221251341281316
0.222962914359546
0.216866390171279
0.223813030483155
0.219191370287392
0.219853553829592
0.215816730614602
0.216514072920932
0.210574220246776
0.219873183165831
0.21641635439388
0.215012949552236
0.214211110322475
0.216584109002062
0.214446057399019
0.216514863792198
0.215844736733356
0.215676079603916
0.212792889849017
0.21835534178663
0.208173451691765
0.213092036647713
0.207918229690777
0.212958930448425
0.208685767001605
0.211525753547197
0.210787053944774
0.210946228875589
0.208096858508978
0.209137815504865
0.20845961752425
0.211040393225585
0.206539723072005
0.21065799579443
0.203745832531844
0.212415169907745
0.208327433632797
0.205696812520666
0.202864411029784
0.209772642241832
0.204437448012519
0.209286618041953
0.205478103301375
0.204859771494627
0.201138756333286
0.205859442888388
0.204901741078815
0.202515474211657
0.203946057134694
0.205640893613048
0.198666656043056
0.204910081498312
0.199529060839646
0.208439407636051
0.201325304970309
0.206025799437702
0.201071269563781
0.203955035041844
0.199173797656527
0.199854720560366
0.198492445037132
0.201249634158514
0.197993273354582
0.1991685877795
0.194784946131379
0.202250889362608
0.196198149352554
0.199423569860038
0.194653258963208
0.199938872445357
0.196957510984825
0.198051291717747
0.191963979120134
0.195466172847597
0.19459398299696
0.197190496160105
0.188944934210949
0.194815489084436
0.190883067090958
0.195836024113747
0.188329443886231
0.192753683308063
0.188924567291145
0.19299979916248
0.188398019944367
0.192996992526328
0.187609099315445
0.19326545495675
0.18598981002639
0.190874853689865
0.193643819475257
0.191049029536113
0.186309126554234
0.192582429405454
0.187717420713539
0.188892564362018
0.188221036675239
0.189694000527267
0.186309027039176
0.188434647229663
0.184968352299275
0.187930432093355
0.183009458676003
0.187820015076342
0.182660443913348
0.186515970400594
0.18325462452908
0.187790907102474
0.18366132824278
0.185307377713753
0.183178580623756
0.186750061056539
0.181828419655139
0.181848710491991
0.177840591071812
0.18397447623616
0.182999258229576
0.183559179083427
0.183058002061782
0.180075601120544
0.175541940657051
0.183306762018738
0.177755986674292
0.181483360348384
0.180445017791419
0.18231866437838
0.17311635159032
0.178263903553499
0.178304043329773
0.177639490329582
0.175786723577191
0.178562877416472
0.174353832567927
0.175630957492805
0.173662492543147
0.173565360476379
0.172712535525508
0.178665116179525
0.170021291158114
0.171735537805703
0.171605105887641
0.170028687959744
0.167495843638997
0.172473293289166
0.167857821659411
0.170991705730422
0.166696148679407
0.171625278937489
0.164379301557577
0.168806278500815
0.169001582557562
0.16782054398991
0.163062647913862
0.168472857686965
0.163758823513355
0.165947554324506
0.165154139123542
0.167434323236417
0.164673350258447
0.166252700881201
0.159315957577945
0.164428122591471
0.161483047307954
0.162198513141122
0.160704620810602
0.163824909892703
0.161749116189831
0.162475026884326
0.157594581392676
0.16306978777785
0.158387421839502
0.161191313845163
0.154964276058737
0.16256296149228
0.158576079831976
0.160282448692349
0.155239305154648
0.159013165162155
0.155882289872511
0.155961528740635
0.154144966755071
0.158539688936909
0.154103513398475
0.154393777647879
0.151710256359293
0.153390399475322
0.152834623544428
0.15645339868395
0.150008415319042
0.155117382733267
0.151936783043685
0.15306612380671
0.1486636957334
0.152503019863066
0.151611195782527
0.153658435804184
0.149741832152892
0.147950561394048
0.148497926179053
0.151145639292662
0.147599697142387
0.147797853729374
0.145957943897525
0.147963549363893
0.145430734100842
0.147980897063603
0.146034917052068
0.148096380865726
0.145890560514534
0.146967820775078
0.142864582876059
0.143465444718139
0.145824318242461
0.144392374077632
0.142197977843177
0.144190414434026
0.14399106308602
0.145238530194647
0.139366947820255
0.143549211499302
0.14315642748072
0.143187628322851
0.14104809593081
0.144356648484611
0.141198480997549
0.145628426152445
0.138205436972688
0.142076051403029
0.140134279411151
0.14428118750582
0.140826957017171
0.143999763431607
0.138406047595075
0.143841340033314
0.142859440397451
0.143237453311589
0.141238879992406
0.148484767013201
0.143326150998905
0.14390688663729
0.142836293057373
0.149712314460102
0.14574998669905
0.149177700151881
0.146863000754086
0.150820688248327
0.147977447389524
0.146870003020577
0.143090336614186
0.140542547483274
0.142708171589787
0.151937367341912
0.148143346497473
0.150405046524958
0.138882555898435
0.15040654228675
0.146976300428903
0.142064050488164
0.147063362137121
0.145998516835439
0.140632353630299
0.153315886951656
0.13855640807945
0.143772952864106
0.137850192839208
0.14308323206625
0.145014457570971
0.142644618287041
0.141728192503694
0.137342804404986
0.137422969716176
0.136277313095898
0.146539280787321
0.140707765067726
0.139665104369695
0.143539476263088
0.138455400300089
0.13857592166768
0.143712481376827
0.133740368390571
0.148716831001344
0.135875869799929
0.151550725253611
0.137473075992512
0.141211680880099
0.128735754075802
0.139362644549589
0.135239052485517
0.145250856813595
0.134050338035246
0.151904949863746
0.132418496611368
0.138785023756268
0.129983704341245
0.146528206595876
0.13956293035691
0.151373431380207
0.128538997335526
0.136070519885901
0.135520211138224
0.142030752195798
0.134221770910598
0.133460188963746
0.14365961734751
0.128123188866418
0.139689374904392
0.12108478597157
0.145517480833261
0.121168164888605
0.15278119113768
0.122079886151158
0.145962554700925
0.123819261876746
0.142876289760295
0.127302962544529
0.136543485774982
0.127492282901664
0.132314781643943
0.12623932650119
0.128917796615025
0.12796882567903
0.132134087090787
0.128649560449305
0.131430915947424
0.125304982686865
0.133023974749512
0.126316850699729
0.133154119755228
0.124412764585289
0.131524804034202
0.125537516725781
0.131300503101896
0.126178656603862
0.130344237519189
0.12664728275854
0.128318210274619
0.124874965588957
0.133705759734575
0.123548775632048
0.130543483786259
0.123499528710213
0.131321057502351
0.125896835577264
0.129222592060978
0.124638919702454
0.128001375680912
0.124522616853332
0.129234545496537
0.124866614295045
0.129983886170474
0.123636411351426
0.130975904703021
0.127944907751873
0.1338282240405
0.128467402480135
0.13098846222738
0.12556332877462
0.130725551883525
0.12661273256195
0.132343707293922
0.125890357384516
0.132135632870139
0.125772586770004
0.130553709338328
0.126937531357279
0.131702796814125
0.125197862074016
0.130135989957749
0.125128937527793
0.131804019297096
0.127417387934309
0.130968714423795
0.128286574793509
0.133730211873395
0.12743576739949
0.130110321398159
0.128172051351403
0.129438082126405
0.125533251720072
0.13172278472031
0.127198764044767
0.130833175050986
0.126825925734413
0.132568882548475
0.127724021460842
0.129282345996062
0.129028160879854
0.131750162575368
0.129416222085794
0.130361528319419
0.126763902938508
0.135340972289119
0.129644780459631
0.131332054444225
0.128113355284919
0.132478670225797
0.128114987615884
0.133744586170652
0.130326782443791
0.133136893212318
0.129583464637669
0.134516800245104
0.128866322212313
0.132689096238708
0.130099540888698
0.134684652927409
0.132456108800449
0.13406006727136
0.132282070544959
0.133828714587472
0.132692490731417
0.133667066918903
0.130540397133461
0.133995227589872
0.131155177615569
0.137945666078875
0.129795901004433
0.133931996300838
0.132652346941073
0.134266168465614
0.131590079766303
0.136204774722718
0.130626197755585
0.136274013709616
0.129943946464464
0.135144793698562
0.134049987103509
0.137003813152796
0.130609143211299
0.135586933725729
0.133297656034563
0.138726463691427
0.131956322065306
0.136004471752238
0.135313898329823
0.137637756806588
0.133360738264767
0.138683303798927
0.134701096790523
0.140334955041067
0.135378975520031
0.140107570038391
0.133609123648182
0.138500850344866
0.133180655684638
0.135602530214811
0.137585682298719
0.139293669377515
0.13452366846672
0.138156099887168
0.134338305820566
0.140192529677961
0.138248178509916
0.140317789598724
0.134785042655911
0.141509387361758
0.136785461978776
0.14393814054705
0.137620300797583
0.138316654614683
0.135264326629434
0.140553504143666
0.14035093331434
0.144018789349866
0.140501338587437
0.141538257714017
0.138747003970165
0.142431327789475
0.137284533775275
0.143305972632519
0.139034195179294
0.144005262454139
0.139574453586522
0.144374860779768
0.138588390609213
0.14410981135865
0.139409637715482
0.144321681429668
0.140761588288888
0.141664077041157
0.142451646036495
0.143660208271638
0.142001357341985
0.143833914535362
0.141331834148658
0.142924906199245
0.139867269485665
0.14572592104805
0.141035072735453
0.145600413139905
0.137947929357554
0.145519914585561
0.139175669200173
0.142496798942747
0.139317928129436
0.140597291906468
0.140228581244668
0.141989831765553
0.139881725319668
0.144437239171867
0.138382802681294
0.141686065778581
0.13511802464756
0.141837919381441
0.139022586678741
0.142773453450138
0.138501750417009
0.14176357099285
0.135418718034387
0.140535969874369
0.138868021863364
0.140450441963089
0.13547327202638
0.140432318518366
0.135577168930647
0.13924922714952
0.138028115641293
0.139113854551246
0.134903840147815
0.142282109134903
0.136223239278647
0.139803742824602
0.13754438398942
0.139202208582474
0.136694019591326
0.138540758850631
0.135601168756289
0.138492789500638
0.136371097501157
0.138378420981508
0.134103244877841
0.13897616623485
0.134398174181532
0.137495795838854
0.133902712621514
0.13600755921651
0.13566233790415
0.138046453716177
0.13387732004945
0.136702942780014
0.133916512548768
0.138621959580351
0.13543570599082
0.135545678875032
0.132721858832796
0.133252793792054
0.13433861685542
0.137060875163517
0.133654747830018
0.137702448521348
0.133671994862643
0.137503060481151
0.130773480184251
0.137132493430943
0.13221587874787
0.133204044430306
0.129685571569457
0.135844411793675
0.129699937211563
0.134223001612978
0.13082693175322
0.136583350370528
0.131193829855875
0.135048779523932
0.132740934322049
0.133709459567536
0.129249353218245
0.132740590288975
0.129723962376642
0.134030217851421
0.131984735653836
0.132526643495605
0.131217005537535
0.130540566813493
0.128840430460557
0.136712766574525
0.127794929432325
0.131432697862757
0.127027043913318
0.131518607118709
0.127296514016682
0.132124242744811
0.129275274355429
0.131260421956624
0.130961498268655
0.133832284443218
0.127102064446082
0.129750231273057
0.127821972886877
0.128526868262439
0.126377602014326
0.127780253228529
0.125574832977571
0.129994388882946
0.123923277179638
0.126041102423811
0.123822842852554
0.12785225382875
0.12715887793652
0.127890585895755
0.126708701037956
0.129272098291735
0.12421654246176
0.126402392636065
0.122459266893732
0.124841199072993
0.121562570254646
0.125183299092119
0.124142503799247
0.125409402596567
0.119697533279945
0.12393886096437
0.121213561102398
0.122451974472019
0.118925886278671
0.120557210533662
0.117752114421418
0.123849136898611
0.118950496392929
0.121300553621066
0.118550785236984
0.125079312597872
0.115204925330525
0.119442094420501
0.117124061112199
0.121058316651903
0.117876204828663
0.118411498984084
0.115763462880646
0.113836620405441
0.11614830240026
0.117433600535986
0.116101996957031
0.116944105216859
0.11445144834189
0.115133575627983
0.113182678481559
0.115013224714626
0.112317073753557
0.113921705900009
0.11124478750422
0.113599912657804
0.110225963225906
0.113071261507693
0.11073836430074
0.111963833202652
0.109299105741287
0.11193327471818
0.109073384697967
0.111109908008939
0.110183314875235
0.109279600866495
0.110019569357418
0.114450118604803
0.115859910752809
0.108183050769278
0.106632458228269
0.110366078334357
0.109386056601526
0.109954326093005
0.105273768426685
0.110351574069065
0.106996603014881
0.108227267876938
0.104252324728514
0.108143244749237
0.1059454397674
0.108324758067958
0.103990541143612
0.106442563103432
0.106076761524459
0.106867950726363
0.103648333377815
0.107953193421922
0.102862633490147
0.104917485118318
0.102281729802916
0.105633971755572
0.103691526430289
0.107162855295345
0.106213680038198
0.108212989111269
0.0999587451370252
0.105721984423068
0.100429330301966
0.106729418063419
0.102346113099815
0.104795529478592
0.101778581273095
0.102619590324766
0.100309552682824
0.104438248084043
0.098908603138556
0.103346037297906
0.0982877077352426
0.101614973225956
0.0983254890513898
0.104039469976771
0.0981497506493957
0.102427271121628
0.0959767432915186
0.101047804193808
0.0979165590861416
0.103464718975941
0.0953941249024995
0.103069305792757
0.102752842259036
0.109377009759929
0.0995704441388328
0.0990818621464372
0.099090954389834
0.0989612194014894
0.0972060154933568
0.0995983202919019
0.0969644826854442
0.0971196027811495
0.095829055997059
0.0982635738858063
0.0965182343984513
0.098405848131965
0.0950049394194118
0.0982763394156618
0.0970991253141674
0.0965554412401438
0.0966485646255416
0.093592919373835
0.0964656956221784
0.102729768600416
0.103312220682499
0.101280986358309
0.0953600771970209
0.0963926698245839
0.103254245127558
0.102887706596365
0.103038260565933
0.093707428296702
0.0967035970526345
0.0938723905525737
0.0970683981119779
0.0937051415819721
0.0989521939809213
0.0961178129074132
0.0983695309437619
0.0984100340288697
0.0958852066642769
0.0977505657941749
0.0950765740715167
0.0975679100865553
0.0949396836599198
0.0967924550334892
0.0959652876379796
0.094746308998518
0.0931532134120213
0.094122024362903
0.0930427068987883
0.0933872836034688
0.0946464397306091
0.0975594613201553
0.0964460198995645
0.0914324320242142
0.0965464252028213
0.0911405068837469
0.0955886293807872
0.103150468737427
0.0961229037916358
0.0979107500333534
0.0922082497033264
0.0989918539711476
0.0892484985292865
0.0945684443154934
0.0915605494652979
0.0940360396932653
0.0908009136634911
0.0960330386952145
0.0931741813986492
0.0962118885845577
0.0909820189550664
0.0952199616505459
0.0912338533666202
0.0957904355904331
0.091649290009012
0.0945205649719522
0.0956718962537623
0.0930329402388832
0.103455177896607
0.10836243430111
0.106388714040333
0.0971966537811288
0.0959076810851583
0.0929795488369746
0.0925226058783342
0.0958684283826441
0.0916158902161192
0.0961012976567157
0.0950165133771663
0.0949421447306048
0.0924344582538092
0.0964335595712303
0.0896761730143159
0.0940423482158827
0.0906397955020758
0.0958652837692681
0.0901514058491053
0.0968646892779504
0.0906526339400189
0.0984817071742934
0.0867696366534467
0.101645135484215
0.0925129412895827
0.107430287567945
0.0853270525975136
0.11664972105845
0.0995218070922805
0.109072492587519
0.0945623699032129
0.0956238003029902
0.0938384823872314
0.0928566132222441
0.0928618789288924
0.0991609488180113
0.0968154565990673
0.0958723103237239
0.0927285931112756
0.0950693506777081
0.0987949492125757
0.0932936349799675
0.0978653074034585
0.119439624992755
0.108240034743192
0.104911458613432
0.0917877027149592
0.100618771473384
0.110764544400038
0.107935614469056
0.100726643131925
0.0953451273064569
0.101900320580293
0.0982423045849883
0.0974891013849044
0.0959327760021265
0.10249645394424
0.102890496340277
0.0972680772309365
0.0979059531923879
0.0965135117628262
0.100242898825881
0.0951797798940109
0.106276809418506
0.104240168553459
0.101828646266061
0.101282461021201
0.0998979775479503
0.102632434730962
0.101053924597399
0.102511101030735
0.0998205374810482
0.102470166814256
0.110194224602475
0.104932756719605
0.111715885380938
0.109021117434731
0.105143423239998
0.102625149396906
0.102739267662829
0.114004849172124
0.0976831415772434
0.109491769872614
0.114292744735226
0.11457379624068
0.126963493541196
0.104282002609682
0.115408974150308
0.0992485259486645
0.115526405747844
0.0931288560409875
0.124161814280619
0.105075123653923
0.118605855562847
0.0931122234422835
0.118521442595221
0.10261090246711
0.117924407683355
0.10836145725433
0.113720539466388
0.107494719694796
0.120918251442166
0.11540649437206
0.11574130492242
0.127753466120897
0.126354465486241
0.126220341983679
0.119709454766034
0.112844738956294
0.13137383524942
0.107854414923296
0.125390431600746
0.109455616360786
0.124049803044482
0.107365704612615
0.118357221148578
0.132192144804731
0.133860331403144
0.122538119382229
0.122521060591319
0.116695825114427
0.137215806671309
0.129395293456881
0.132985388149491
0.116414625498701
0.130739249602827
0.11357112834599
0.152993327837139
0.127081667693115
0.149507030860852
0.136401275211138
0.147235637586549
0.139307505431314
0.138892214443029
0.137300259991222
0.135631196896191
0.148809704757873
0.144426817632552
0.133488070866734
0.143815206563301
0.150706639837385
0.139872910286028
0.152156749925264
0.138489086120929
0.150593176750582
0.159233257529053
0.179521731654365
0.17250296361437
0.155674721179829
0.153709125954464
0.168520367567518
0.161336062193612
0.165926573346532
0.156412847068358
0.160239203229221
0.162321009063138
0.160091723731621
0.170522431023258
0.166040216797445
0.176138587537321
0.170092033181723
0.175480528542319
0.18496778348136
0.208396966425876
0.213305408565079
0.184853919441831
0.210588628108302
0.176094971330466
0.202892689274864
0.189865183892172
0.196143104926473
0.196123787108337
0.197945689096413
0.203370068101042
0.199508462416756
0.219220917604405
0.214120474432288
0.222156321019729
0.238481334936795
0.219239057937606
0.233251523798759
0.219156441216991
0.314397091469633
0.207865206725069
0.276346355072698
0.227853982693349
0.268114096026168
0.28619964303021
0.268826729291379
0.276948703974634
0.273152790267574
0.276428605870571
0.284268282959101
0.295915181762739
0.30415542341455
0.310608844222713
0.321617111958959
0.310914226468682
0.335461246611018
0.345745903427297
0.399295846279979
0.384401017998952
0.352983199026259
0.366769532720562
0.383003404735266
0.386343143074493
0.39199276495689
0.388480102454228
0.396254439107131
0.443411259904178
0.422540789818897
0.435972813898644
0.412081522333246
0.469180269363424
0.432674889143865
0.49526286176341
0.454514251333854
0.497878195391735
0.483042613526632
0.495892637641139
0.499071845440186
0.494878597438472
0.52759180409481
0.523092099239535
0.542821079824919
0.542031636903423
0.542198779987793
0.551680141872539
0.556238939803243
0.578753372705308
0.570773233491771
0.597751333113942
0.596295549595766
0.665197425541598
0.62780846472298
0.618293558746333
0.597519567822268
0.585895649019724
0.618600866487182
0.625605113055986
0.648689234578914
0.630878911763456
0.63388318897633
0.626014535814557
0.618602951381345
0.639341817002065
0.625844287867784
0.636786954869735
0.610489737261841
0.65607989025121
0.630702767252298
0.652996527857809
0.69909698116809
0.683320145442567
0.642731622813775
0.6180599427224
0.635072440779318
0.62907323155468
0.6344802462968
0.618261802230597
0.637433546829408
0.614955835955537
0.628415208569423
0.597723719954327
0.625187788549525
0.624266524495052
0.622869716563809
0.600987651910746
0.586172217402749
0.593911497131093
0.573723041953093
0.573050575564595
0.60798840265888
0.582481617418936
0.570135732258361
0.539206590666224
0.559485535799652
0.542896002321244
0.538588826049878
0.532042205748768
0.543618196032357
0.525919815090349
0.537308798419141
0.517622737027495
0.525077379540747
0.508267203910622
0.512136430582166
0.505544409221403
0.511522014484219
0.507682250643844
0.508354282173679
0.500003571128963
0.495941141988241
0.491167633807619
0.502577918178194
0.488671512006358
0.495791049574354
0.490915293617182
0.49063354733807
0.486487431240855
0.490268645942395
0.483066299549297
0.482328833279887
0.485145909027543
0.476450845609708
0.478489355209143
0.480064560675313
0.477552034453084
0.473257674981407
0.475823872323324
0.474138798517386
0.480229321285031
0.467033520450426
0.474720877860207
0.460244655622053
0.491653933518264
0.498533259524024
0.469342013371301
0.468031671039502
0.450837302891633
0.469002906145788
0.438126632573281
0.476122906418384
0.470219956845707
0.462168058108259
0.445542886291261
0.443179926322751
0.439241150689916
0.457949616060879
0.431063167348378
0.440061621284987
0.415181225813811
0.450084855539667
0.443739848031317
0.47233931776397
0.519447552577865
0.439003275568307
0.423293262822104
0.406648963433207
0.460090095256866
0.403934656508517
0.422629241365789
0.390552409612126
0.406872571872536
0.406200825933256
0.404000692000348
0.402790763881213
0.38153343285657
0.39446794932489
0.417580037075791
0.405450427156056
0.397259983254627
0.413078855773896
0.393003878497298
0.414839319511115
0.41716241514093
0.429585884231396
0.366497192039905
0.36920872787601
0.358167706981238
0.354854012750239
0.39185331417483
0.359689113789869
0.372058304392197
0.351074425316033
0.338772529681044
0.348150182714803
0.349281561801436
0.365644727050288
0.325294324668455
0.379152240137884
0.320748155113693
0.352051422150304
0.332740753643948
0.356151947830283
0.377509889751321
0.353277070625462
0.32675917061829
0.324422841891974
0.362278953834876
0.328947980171465
0.34127251237394
0.32017564616142
0.311093053043881
0.327433733399847
0.309487560374185
0.314069460739731
0.326302660386933
0.323690529292537
0.348092259469774
0.338180005509917
0.358308096819197
0.315081276209274
0.30063214590402
0.301062757982043
0.292468937654313
0.308986519980729
0.287384445442958
0.305276342697205
0.323396424582521
0.289583282892913
0.328883733867748
0.296261989955689
0.30878101430127
0.300148009365652
0.297385297776825
0.305665175158868
0.317045600094128
0.336906610889016
0.331436313109924
0.312028047201308
0.344557867669877
0.323653542356665
0.338048485086053
0.315236187747114
0.340122262024759
0.323886815784413
0.344460326888398
0.344401185778051
0.347999483162611
0.348786068775378
0.358238762361879
0.350279489157497
0.405350206129255
0.359658700426872
0.403827935210853
0.387709336048334
0.422044509016551
0.425577880954977
0.406418094013654
0.415321647963027
0.412829067118557
0.423788201703628
0.420395905561443
0.423172113119892
0.46607129723279
0.43922396244774
0.452469204426958
0.44620733568205
0.461924324794803
0.453612019781562
0.483622723156272
0.4814550695186
0.492709208736842
0.553201142358278
0.477977532929181
0.509190663557068
0.47507273284422
0.497000311801182
0.493126600686998
0.496981958819265
0.491555135316798
0.487285698168639
0.520508302042955
0.510604506305175
0.503657071360563
0.504264324836796
0.501419942851366
0.50929990874923
0.508478940340854
0.51788881436277
0.515145416396212
0.522145256395433
0.527326114113185
0.511171208529395
0.549082567685353
0.559015830343479
0.54459987748225
0.538004660213404
0.536753440158996
0.558092942024132
0.538809049372269
0.561271121303154
0.564585180400611
0.566917186808084
0.565321669520816
0.561197690842114
0.573355470036935
0.566340524257595
0.593973836243607
0.5871613628456
0.586852439698684
0.584911324921353
0.578584149607288
0.651897692952101
0.598395403662792
0.627692167331631
0.602265102794697
0.615189086758368
0.591617848224556
0.61224975774758
0.603186665379229
0.610646976666212
0.612547336623035
0.615972960161632
0.60204376400239
0.611428472973273
0.617900138221431
0.605837173342908
0.617243086259336
0.627933816485374
0.61468786796097
0.617083514371014
0.608741140123108
0.614798832345078
0.609766278028125
0.63681824440359
0.614497236902228
0.620344744184011
0.597068871805524
0.623638246096457
0.63014639166922
0.61670986492738
0.60505264886862
0.615676808377185
0.60567051996658
0.620450715685923
0.594686594475413
0.639699524979268
0.626808811775681
0.629642598732123
0.614539743262548
0.631708676196964
0.613518930364084
0.637165334237848
0.619105417588869
0.63421087347004
0.636318716984051
0.647784885211624
0.638668669341835
0.644596963974861
0.644954238085832
0.656379811482123
0.668387894030386
0.657279247933634
0.642199833805733
0.654092703785709
0.644967239913102
0.654048966908597
0.638718364141962
0.650346391769296
0.634730927917776
0.641153139418482
0.615945211349832
0.645653611489415
0.632500414747839
0.62714047713545
0.631350617145242
0.601258848522004
0.613357078640446
0.602376482448125
0.598573010775832
0.593867822965305
0.603382190663352
0.594842055171038
0.586614470421061
0.58653852951984
0.587036877952144
0.585443082806229
0.584031303194077
0.580792803091387
0.577501699680342
0.576315843806615
0.576009921688961
0.58039234034601
0.580645838965457
0.577396452486093
0.576157143155472
0.574813381497845
0.591293998173183
0.585456079012224
0.590653892651995
0.577813040863549
0.58962534608411
0.567646465095074
0.572218080076526
0.564626594439246
0.575144105298398
0.569706274120439
0.576765847968194
0.572692747005896
0.571915917757683
0.563415578807454
0.567086133990998
0.570607915389914
0.563989885945613
0.564350407675517
0.563334311874104
0.55984804035116
0.559531563859386
0.563171750990705
0.560698478773441
0.572252541850017
0.558206994227974
0.568215425149644
0.559036581095803
0.566904049269625
0.558445477283417
0.563464904426173
0.562565796785712
0.558882330693159
0.555719299649152
0.559641561734877
0.559448738055241
0.560400255516229
0.558581963486834
0.557169051242494
0.555036133174114
0.557617190854292
0.548099087970753
0.547259209769848
0.544958922602379
0.546354727475948
0.535284029301333
0.53976100102845
0.531392060761287
0.534799560114827
0.526667937325796
0.52486732010968
0.515471343726168
0.517480149108409
0.51678421393096
0.515212288202012
0.506896754408522
0.508452235017861
0.503351928435907
0.509095094330596
0.504539902874837
0.502820280785967
0.498355915226229
0.498258645672857
0.500511706333255
0.498104862251534
0.496880371474974
0.501217455781129
0.49533657576329
0.50029042188266
0.495218896669167
0.50013183423363
0.499115577402226
0.505938996847122
0.503082623158951
0.50259615298886
0.504384010285848
0.507038854402139
0.511879590005504
0.511424163538658
0.512296172949036
0.515011763082331
0.513342707934638
0.516568938381817
0.517061709808865
0.518411986954456
0.515204076002112
0.519348822960924
0.520172649798492
0.520887035481707
0.521904269963096
0.515483885728602
0.51747653766545
0.520966669447818
0.524138974654308
0.52108100721956
0.514935022716721
0.517714677634527
0.519301036615782
0.514672293197922
0.512430974149397
0.518961347186911
0.513153585296772
0.512563702762226
0.510168922522132
0.510437899608459
0.506931257594855
0.506754553169809
0.503188990860754
0.504552476961142
0.500975115313166
0.500168652129569
0.495273552821117
0.499394265978187
0.497790774327553
0.494591410185136
0.492154539395692
0.488697893192481
0.488396627714742
0.488683748373363
0.486746224093205
0.483730241760789
0.478581679000169
0.487851905832741
0.484059724035036
0.479370269907937
0.479045083204127
0.480759301018461
0.472584896144562
0.473678655757559
0.470638268269349
0.470072736095766
0.466488607497546
0.467023233855323
0.460592463148382
0.466020242845676
0.456609749205555
0.456318527884923
0.449348839648279
0.450693036739225
0.450254185425022
0.442109703962762
0.43863054995528
0.440336457063661
0.437146315582865
0.433392835236509
0.437982085018759
0.43375132541472
0.438360550048103
0.434223560996658
0.431445847560373
0.427955272566022
0.429321133060769
0.427116066428444
0.42310866435205
0.421773366295498
0.418757344069376
0.413416179266642
0.412376416901205
0.408544152542434
0.403110714753341
0.399731576245917
0.393426931451282
0.389623070652843
0.384551643437953
0.376938674440306
0.377646251699805
0.374901165528102
0.370512659935562
0.373444691100851
0.374200580746183
0.377136669379187
0.379967669030908
0.387746640726194
0.390829840299054
0.40334935725829
0.40925489277939
0.420315534362452
0.429948949740853
0.443624403445039
0.456428226089284
0.473867099975831
0.487927979235196
0.503309244019376
0.51578859995442
0.536041417434149
0.548795055499028
0.569068823557765
0.583203316740153
0.600094471068619
0.607689294406355
0.629750848322984
0.647102978529078
0.663286140538279
0.6775593816559
0.689302040014438
0.705485859038972
0.722242147150181
0.73579996600855
0.756883195568063
0.760348397304768
0.766542014662363
0.778720944817098
0.786044300738346
0.801003772819704
0.813860560575202
0.807378340375835
0.81489466850858
0.812679635448823
0.81683284163592
0.810536794992617
0.814299487418595
0.818877060930427
0.824610339764615
0.818661751462996
0.812149901975092
0.815418981257489
0.808317309988217
0.808431091549518
0.810059456014623
0.814967421827188
0.811256064254729
0.814215542483769
0.816875839383288
0.819005118019322
0.827587158548189
0.82931676147512
0.823468152336473
0.834119480836024
0.841619280863579
0.856486589669668
0.857376232275819
0.868953709947281
0.878070198855754
0.892124710197775
0.899488048037451
0.921864184048408
0.92584921606395
0.935838208067499
0.940971537223291
0.947172201655482
0.965549429997655
0.955385969350755
0.957365295422032
0.977249298926891
0.962469108029805
0.966893880414656
0.975712417523837
0.974098913043984
0.954182834766001
0.95886507922459
0.956119817188604
0.954182168159357
0.960005427557465
0.9535636520759
0.950215877332009
0.966356850172721
0.969818106613958
0.984489341179085
0.993223082105023
1.00934060562471
1.00438234042118
1.02620948991897
1.03467229261718
1.04968279277042
1.0628490635429
1.09564135819504
1.10068681703012
1.09639477944341
1.11814898831559
1.15369060656743
1.14831220054785
1.14666051055303
1.14046662883865
1.18031048340385
1.19109766235208
1.20650276985428
1.2599430656098
1.25730135935218
1.28007340840724
1.30968489960452
1.28086714028133
1.36204579698658
1.34890935392648
1.38742472997415
1.38930068297051
1.40215437574222
1.41715437431002
1.47024390841905
1.46220465972932
1.4343559561017
1.44467544467113
1.54194082441805
1.48594375321213
1.52989066675904
1.52920353293714
1.57398536571914
1.52634721741788
1.50304722557785
1.53017002204007
1.55974961252262
1.52766649798091
1.47169211896018
1.45732430670927
1.54451050359622
1.58059104339783
1.50656409302989
1.48430662706139
1.57741479690487
1.5472874535505
1.57814747732944
1.52230095571496
1.59649314342373
1.60385055384132
1.60204214682223
1.58838236451102
1.64367333331112
1.65375038313353
1.694329183389
1.60564329127443
1.7466005734655
1.57617599554932
1.72033298927912
1.65382456167425
1.7921805138139
1.82846652890144
1.75572126723471
1.67737253149758
1.84317438439371
1.72405104060991
1.80185844143686
1.67495522396317
1.76654465608316
1.87622356398691
1.99410391403291
1.9096569442855
1.9260521209339
1.88799109008943
2.05276984118671
1.9787846530441
1.9633449551673
1.87785004954119
1.95574795698913
1.90248022334372
2.02652730572876
1.91220784682146
2.15217850576307
1.84567311933398
1.85451202973176
1.88933628702807
1.89866244866482
1.91442194130194
2.13676270066059
1.97337621304663
1.97876874587853
1.76393168618863
1.81436707529412
1.91611558360032
1.86046736154557
1.77465168902713
1.78912042459212
1.63843484309566
1.71400564132301
1.65374424181848
1.6995861884114
1.5575682980897
1.59558896598175
1.53398879731299
1.56761560349964
1.58209236816691
1.69841250369386
1.51553802749591
1.56231164819542
1.45247036129959
1.47171901519485
1.45004804098875
1.50698765042921
1.45265856920046
1.45597625526918
1.48622936164864
1.4573722914849
1.40749638301591
1.38720767832293
1.36471965050931
1.32298023484964
1.31384880652797
1.30025424357154
1.22844334746201
1.26983232768192
1.19280170213468
1.18492715014557
1.13231727374897
1.11194390717467
1.05957851368474
1.04323325606893
0.999258090145864
0.956327718068566
0.944979067787246
0.883479972674425
0.862523959773416
0.828391034287889
0.805091734865448
0.78224596086286
0.779321728226058
0.741527654772428
0.727668024231149
0.708057185290375
0.68530974350282
0.685541125457769
0.671348948353546
0.66344815931906
0.65555215009688
0.654092977570893
0.642421650054895
0.637265663661588
0.636539594052496
0.640014209591378
0.625309908195349
0.638138256529769
0.623501482501084
0.622619639358693
0.632090087770943
0.630683002304826
0.63308722413168
0.645633703408944
0.630861923860247
0.635590251758778
0.632640945634186
0.631568825120295
0.628008023051518
0.630499483818094
0.627878553394349
0.625978271497977
0.615149136374038
0.624231162878317
0.606983919696422
0.612925200723366
0.609163523535049
0.611504186908219
0.609133857719901
0.605832688067775
0.60952620486191
0.615548875954421
0.612011452324774
0.611339853802247
0.617396261439497
0.618494941939759
0.622835567062363
0.623688152666489
0.62033604085691
0.619353478417535
0.632031140882141
0.634200699929332
0.634198306839112
0.644468155029817
0.635907032274371
0.647754098407323
0.634429440700398
0.643919228524574
0.634135839253362
0.638072393504849
0.635344492398628
0.640924306438176
0.640008255896186
0.633230516044169
0.639866909062969
0.646289098703189
0.639128866977004
0.651852855237956
0.649355306612248
0.650004972836168
0.650380946037081
0.666482347268987
0.667786339267602
0.693628617485104
0.692410079463132
0.698665655103614
0.716268555156716
0.742319799823684
0.740503079556095
0.770062357669867
0.753205494159822
0.770186637587609
0.778811931644846
0.764877437768577
0.756845857883182
0.746978299704676
0.744251878558052
0.743900741200426
0.74358459465418
0.743580409085589
0.706398439550523
0.732027937161883
0.73479019765299
0.730460815649528
0.724290407714767
0.739441424101567
0.720111415037451
0.728128351502713
0.723546461038935
0.744765030997193
0.728408278324492
0.739733807706982
0.728585807923352
0.736921542755278
0.722670792123138
0.712501962474528
0.721059951647356
0.717177103775602
0.708373156392384
0.718950333371959
0.708967503273353
0.712426920077401
0.720191528708046
0.698826251961223
0.691623492415186
0.712707441713708
0.695354633536321
0.716932629412617
0.708311369372669
0.710381333912702
0.697433846120792
0.71935106909752
0.69345579538652
0.707546834352022
0.693000985886566
0.709395184070238
0.706882599440586
0.702608505437868
0.708044489328146
0.692939485819399
0.676193994748666
0.705911522263012
0.698596646788518
0.684896321446997
0.687167103122483
0.723877201110347
0.693214049131978
0.701164020100751
0.696543571694619
0.707199662052529
0.678507347527699
0.710427218020788
0.684416259035702
0.662513306894635
0.669243492377362
0.688322491584487
0.667247953086247
0.68780014750514
0.704344941626851
0.692194624367333
0.675810314971597
0.694881901563507
0.69754382847631
0.688920129695078
0.6580181783168
0.692487641403989
0.687593642384912
0.684176678051181
0.669726109644149
0.708035789283515
0.685751620934444
0.697757989578472
0.698902297580604
0.695157845467871
0.69882173076703
0.741534519572526
0.718071365207868
0.718622199230217
0.728044143848403
0.701982624590842
0.698731821512055
0.740608148918262
0.751711367089625
0.743219912727583
0.758716132834098
0.757551898274383
0.745166993747395
0.753122451873906
0.77373932214729
0.745216882797622
0.746111801900547
0.834863580853779
0.789593566327439
0.782142629707483
0.779188873969179
0.823106199950628
0.786414448754113
0.81832518935615
0.848446163824368
0.855137927825634
0.901475135841472
0.90388215676162
0.903567955935753
0.952471095318919
0.916395000730656
0.978190559431992
0.990270213198205
1.01313991850812
0.942984033772197
0.990547571046827
1.02345139583169
1.03702345106331
0.988859647247303
1.04641722993886
1.04588290260499
1.05004378277909
0.990010722946272
1.02908882985803
0.982716954077756
0.993911243349075
1.05076151650195
1.11996353242537
0.949218887073575
0.933547060800058
1.0250840110284
1.1344014399353
0.946339301215341
0.994276540239124
1.05075434175258
1.05738376564266
1.05684735805547
1.04547890996969
0.994891309833853
1.10661979086895
1.04967657495397
1.02519274552947
1.00750157821376
1.03843056149459
1.02270404431764
0.993029810655457
0.972246484468501
1.06452752936122
1.00514277090903
0.987543420213707
0.971853395039073
0.978501685482616
0.966399701746251
1.00216812894734
0.954900533440661
1.00638051272685
1.12106187497343
1.09102499225836
0.945285315626946
1.15844238286809
0.972573734361813
1.01407542193672
0.904430342224893
1.03632436655085
0.900481224978805
0.943734080241443
0.986596840030092
1.03430062657051
1.19887475372953
0.972915953964066
0.967141065967691
1.09005757614893
1.03632436438357
1.05596172154102
0.972308459191178
1.08151741838964
1.0801093407361
1.27725604280518
1.14100412523327
1.0991501400133
1.07184905647328
1.17098212082307
0.98713960792976
1.12904823799681
1.14832979410812
1.11326774130715
1.01058825967163
1.18425326796036
1.05602542142781
1.0633608926818
1.3540917680037
1.36140947865325
1.03515930118481
1.19216485681574
1.16759338086321
1.04609049969893
1.00091440718415
1.23510155812636
1.19008089544321
1.26755777590715
1.30247533362198
1.46259961317782
1.44458828274079
1.42832846793768
1.21086651501802
1.40342340268751
1.16268540152472
1.21148364579095
1.24046092951379
1.53722422647045
1.19880249794881
1.56998975550163
1.26196601262343
1.47202319751359
1.05142136978301
1.08477187855047
1.16680942232755
1.36758838622372
1.11067455190098
5
1.31195580679133
1.23853899470815
1.20701144698442
1.59624449434845
1.72094685905295
1.34375288453203
0.976067610584898
1.22589619284857
1.41764704625619
1.64499398427056
1.364279095663
2.34529049297804
5
1.15925551927389
0.967940694862413
1.08655699017694
0.905291746498256
1.05278739548595
0.789414655304757
0.918268729747988
0.879785469315328
0.905652040366927
1.02534283356496
1.28858289433562
1.03011326334003
1.16365692282181
5
1.97023117913859
5
5
5
1.2397332485035
1.31852523814054
5
1.14068588007148
5
5
1.25592011874941
1.06808652653823
