3596
4000.36533379555
650.420452594757
1
2
2
0.055133320675791
0.0639585752973801
0.0452125291296193
0.0693898114172177
0.0595047754591402
0.0634841494175351
0.056362521386273
0.0612672966814098
0.0625049438802442
0.0682692139263243
0.0572691749380107
0.0636091120686827
0.0682292811218272
0.0636832978677363
0.0605208995578949
0.0625274456053484
0.055612086289572
0.0653692747135392
0.0585933162508029
0.0713126125580899
0.0544085620651418
0.0721451157288322
0.0562978543601369
0.0654046103540153
0.0640526969503895
0.0643167229979604
0.0582724043002451
0.074123734747897
0.0575286351919709
0.0656232910877792
0.0547279051283403
0.065935459354536
0.0537662441156343
0.0600258181734457
0.0555539374547179
0.0625765872095711
0.0602271516490664
0.0698817032337868
0.0571493649972943
0.0674976933177145
0.052548419183202
0.0708281536085636
0.0630077892409222
0.0654440375838197
0.059350068028802
0.0698851651326361
0.0642400324324544
0.0671716869850129
0.0518275227735872
0.0597103903160611
0.0511435409189578
0.0622391777747175
0.0626880972700636
0.0620820530307733
0.0624889392392702
0.073571899531265
0.0559187901425191
0.0688233528908851
0.0648251445722641
0.0748846027457947
0.0610367844685993
0.0704672111244364
0.0527488524279072
0.0610489065626949
0.0495714906042183
0.0634086783000441
0.0578292065238725
0.0615522278931807
0.0616270888968938
0.0643598073041404
0.0574359351417993
0.0729244040750316
0.0674775765361971
0.058796033966244
0.0533742931996855
0.0634540063873024
0.0464038216748512
0.0571393160369195
0.0630145266997466
0.0684569582847879
0.0586127442868807
0.0589370173873535
0.0571804520283763
0.0671256891304572
0.0566595181343241
0.0626569184570118
0.0513536413665206
0.0722660283736397
0.0677009918172983
0.0598922566514026
0.054842023667703
0.0603740626428852
0.0512373545318377
0.057115231938378
0.0624703816373808
0.0597598134852901
0.0569630241007207
0.0556202446738263
0.0631220836089413
0.0630638331635113
0.0628385615556312
0.0779835087833632
0.0433523954258305
0.0855619597707611
0.0552294349491727
0.0720859928905674
0.0656342668691401
0.0695506063819587
0.0617296312924958
0.0567593617289965
0.0551397143825393
0.0501041174314537
0.061203829512466
0.0511227386702195
0.0653505836263517
0.0743480264487811
0.0654985968208248
0.0622332835295135
0.0498656388418463
0.050909349693625
0.0616916100369097
0.0730905699736139
0.0602456458565796
0.0629805010939766
0.0568190279538344
0.0577577020281187
0.0647874867239889
0.0865398897974299
0.064087320559177
0.058455910463938
0.0467793766677334
0.0613248003509488
0.0508889490327684
0.0764766633507319
0.0574826316151853
0.0591297577210246
0.0402165665537469
0.0843092083491007
0.0702455498257913
0.0618361678008003
0.0538695345548258
0.0594043378557918
0.0572649828232886
0.0860005632521952
0.0574259302927141
0.0496882020656294
0.0552134381916085
0.0672852718841696
0.0482069361167742
0.0537081116135622
0.0420477670138625
0.0672369303379345
0.0563339045808018
0.0481696319939308
0.0877511579836898
0.0748194332853072
0.0526064767158466
0.108737012450371
0.0395998286313547
0.0841662894276147
0.037905835086596
0.0637793933846438
0.0355138731131252
0.0657302428192678
0.0499620838982578
0.0720636624314519
0.0541682034863873
0.0621712990997195
0.0531983669269388
0.0788563474056533
0.0564097454518736
0.0611268768550175
0.0897577020146404
0.0540785585062088
0.0493589484191294
0.0740174924628647
0.0566933594005239
0.0657458864000305
0.0495178996649373
0.0760433685520916
0.0401442634350269
0.0607411337644072
0.0388701469341782
0.0674831298187998
0.0487934589728087
0.0652455270490493
0.0452957314562428
0.0609835153083725
0.0471455342756706
0.0735716306821019
0.0720664449877697
0.0841640054542304
0.05152551754167
0.0600082176510742
0.0347981399298703
0.0886439513546869
0.0491099712619993
0.0685923005606907
0.0480229354049787
0.0558105458895835
0.0492128639442392
0.0519524441431478
0.0462121095753375
0.0682661055648273
0.0452025237803911
0.0902010803001546
0.0391263430756754
0.070197554590509
0.0399903680477371
0.0607385873517877
0.0533405492890669
0.0943665296201636
0.0532375981555887
0.068418865875888
0.0505724760157275
0.0614877006997326
0.0616025684328544
0.070861778397242
0.044418906182954
0.0616745446386973
0.0462513977171715
0.0606390086532679
0.0494650828714189
0.0606949419247396
0.0472685881559278
0.0543584531254565
0.0518553273522104
0.0603480354319526
0.0476003189672924
0.0613671337540602
0.0571379558293482
0.0657901222608307
0.0454703892196196
0.0511717102148837
0.0539596553254346
0.0763777981459704
0.0511434772458786
0.0668539440494272
0.0517093015891952
0.0619819014893573
0.0401062108524035
0.0606891642274169
0.0508984732300233
0.0684745759840606
0.0462183132068744
0.0963988645799941
0.0393082983224362
0.0675457035287711
0.0380010942429781
0.0756061919313168
0.044548294369865
0.0683804286727375
0.0470903713859336
0.0620644165461731
0.0436642245838429
0.0687807335582685
0.0650069248560419
0.0757302650496069
0.0576114899800952
0.0680682981369308
0.0473116424042035
0.0629947346344004
0.0639259635156853
0.0678925095521812
0.0929702246406718
0.0717518414673936
0.064285432186492
0.0887767179652799
0.0421006939546227
0.0730984087831732
0.0520922834449502
0.065462645288357
0.0992510342866139
0.0948783472358709
0.0565550394000708
0.0580245904349278
0.061988617526826
0.0628874015867928
0.0600051176963741
0.0657327773393321
0.0633196182743581
0.0887592363425039
0.0644418052771659
0.131848053810601
0.0457240197599196
0.0994629629171247
0.0474823586986455
0.0726906428147886
0.0490158411260568
0.0637335902368148
0.0524409908325405
0.0826706601476887
0.064299611007497
0.071415639832132
0.0718096532784331
0.0683630761525513
0.0789711873108672
0.0763124209111597
0.0642737147200719
0.0702277959238147
0.0720995251454131
0.0696316640484152
0.0578727026236348
0.0607145374524669
0.0667467220081233
0.0710891045812496
0.0636658810641596
0.0954813545759875
0.063183384874935
0.0752830636683175
0.0760375551113321
0.0760171075612904
0.0615259429629963
0.0673387227757285
0.0609801270110932
0.0710062508637646
0.0602029613151722
0.0721219023818577
0.0864865758601258
0.0856678228846757
0.0621715330683084
0.0673790087000028
0.0648747184638997
0.0719277447894914
0.0642797116827129
0.0757358996608751
0.0626108973145173
0.0826174033358296
0.0652593918065746
0.0832567958895812
0.0923227498257955
0.0769988586032864
0.0961267449077474
0.111906733871852
0.058265827957224
0.0851511223377629
0.0625486081987043
0.0935864501235227
0.0760861078832045
0.0950176498538779
0.068144605821085
0.0877620801739498
0.0850718959773715
0.103997933944903
0.079463598950866
0.107497972607659
0.102838485984156
0.154685816323993
0.0900727921858289
0.105907407141353
0.072430435246915
0.119217209683683
0.106466015805042
0.108934530519325
0.11145683753838
0.0982213847567375
0.0998008256940455
0.0965033357350108
0.102656844544309
0.099279298552037
0.106477227152886
0.113840124356365
0.113314106012841
0.121955941204377
0.114629571267821
0.117283487589065
0.115914647483157
0.155763738430115
0.123450241110427
0.131449484519117
0.12512882788071
0.128948713170193
0.13640369960612
0.165435851943527
0.147554896337842
0.188100398869105
0.134659848182021
0.19490413510377
0.128180927320795
0.160280582623118
0.133988262335695
0.164771129488731
0.150028440969366
0.174872135362649
0.148351340878138
0.17023015920074
0.15591496929888
0.185353350905021
0.16086359340376
0.180677075953856
0.163428265397787
0.20911221831298
0.166233155722634
0.200125328160346
0.179277788952993
0.214590295188935
0.225151218321407
0.267143585438722
0.197141546640826
0.206111231532971
0.197209417659631
0.202114832877736
0.202038713884201
0.212308183330256
0.220727067775092
0.225762659802828
0.247945922438641
0.258509077664109
0.228887530145703
0.275117802159078
0.210735676627676
0.266009084700288
0.24968201587726
0.263133354877528
0.255241165321112
0.285041532168331
0.241353330686389
0.283066943900017
0.279991876676302
0.271958724086097
0.289518956925283
0.275144792542043
0.270919925371965
0.274374187382417
0.269815015954773
0.287183446044058
0.281540879408799
0.325487193360118
0.291342027911478
0.303349939913625
0.294246255779064
0.312777120064003
0.307042136886637
0.329453253127157
0.307573330253024
0.353804086433913
0.30382173815581
0.336109464883076
0.332227319621848
0.361512958373992
0.348045119018309
0.356821965740061
0.366549628049063
0.355091956468166
0.339297431487134
0.380921817063809
0.354313914488281
0.369933133676264
0.356037599654736
0.384176962896917
0.384387512776835
0.418205029457953
0.384715203686647
0.398522966033952
0.396640486698211
0.422476641629948
0.391163978841386
0.437207612846091
0.39605861280202
0.459190909133586
0.403223930149329
0.448235570228076
0.44258575840936
0.471063779134604
0.449097196691946
0.458860076660595
0.444313231835479
0.470363004938756
0.455744899352104
0.4544421989116
0.475856868818841
0.483564585703852
0.439095265386708
0.513475397417268
0.46321663057767
0.519986125810743
0.478373470352533
0.512607423259011
0.490479142244102
0.561114731854755
0.512233470076745
0.566813722687935
0.521116907952539
0.542114623116116
0.561948819435234
0.580780792171653
0.521640138161551
0.57920725351367
0.51908610671321
0.577625360197522
0.522422300912194
0.587553956307732
0.544642120228366
0.616567021673744
0.57515871069727
0.625977181626718
0.543829244037808
0.629305376748883
0.584252435229464
0.640187493656328
0.599555814184347
0.664282888404007
0.618341467777174
0.679153622763066
0.656069015440847
0.662806441758961
0.641216040392766
0.684478211937071
0.625402024129812
0.714669408057231
0.638470673209497
0.683241650855658
0.646205002232844
0.761990636742121
0.644153932823095
0.734071842855899
0.674293197246906
0.72514118700119
0.660122076357704
0.749446373698987
0.723298560120722
0.731414799547566
0.706763837468754
0.797485955847481
0.697528381596152
0.769819296225457
0.693319075639059
0.809480150525272
0.717547333850644
0.796498513977789
0.737074067015391
0.794434279913497
0.743052478795419
0.848892463410661
0.781030099694792
0.87791940942673
0.757999921458174
0.831762012866999
0.797639708585476
0.844078624043178
0.771927377464412
0.869473739232845
0.832673279477018
0.891495993874601
0.866904197347071
0.88357573820612
0.873281456985111
0.908942261244232
0.819043932662143
0.908892490904724
0.807729600529671
0.977389604515214
0.890026579738072
0.930978804624965
0.863674594555887
1.00212164669147
0.847104669312708
0.959854433104619
0.885436495472108
0.962003160290578
0.956002839445908
0.94628469526287
0.921800929706073
1.01569434181418
0.892595605222788
1.01485556532536
0.899163191686939
1.00758570941594
0.895248539415777
1.04420140168165
0.970591712757685
1.08509006971026
0.933290745995532
1.08578287504937
0.966191938406177
1.0244484472716
0.967054827108434
1.16943679453135
0.99810188534027
1.10780557543434
1.08923213282027
1.1687434208107
1.02741606911973
1.17514608277932
1.02234783266661
1.10692482304694
1.00188709204395
1.14949870432202
1.0495135518014
1.1688893767135
1.0752013734114
1.18254759529347
1.00802549640939
1.29350941019374
1.14314304147467
1.25255490330307
1.00941739444391
1.15228554625807
1.05420287457363
1.22332042204201
1.05274545549579
1.22814013781942
1.02342070993647
1.28054713326363
1.09528941044505
1.23023731982093
1.06650964645535
1.26047999603785
1.1752582898507
1.33654930019142
1.0460735623723
1.31666003470383
1.15713393470232
1.2442779737584
1.15500109218423
1.32021023542325
1.19769697959912
1.39111544723801
1.1800230536879
1.27741993139242
1.20058178234297
1.3338898426602
1.22787415990925
1.29317179998769
1.15064538285038
1.50484324104289
1.23777546642251
1.45023692231525
1.20318994195124
1.23850525419971
1.24804382413149
1.2317929439832
1.19246616304923
1.37506083512285
1.30661347363206
1.4957102177654
1.30051968982486
1.38154031984265
1.29154453523421
1.3542870801254
1.24439437807514
1.3166725993128
1.21454843895781
1.36626323679743
1.22542386237378
1.43921336375041
1.50424860610822
1.43688234561126
1.2529526970861
1.45035855143672
1.30059592356843
1.44657954535203
1.29526135594713
1.5213292261768
1.35580197362345
1.67629399756094
1.3537867615678
1.63137878574128
1.30687365681476
1.56546712140726
1.36947257304008
1.48775853941476
1.2658685324418
1.53267282462881
1.31451466395102
1.7391626789865
1.51864417952739
1.49653609505841
1.37072733827071
1.48716313504639
1.30677557391361
1.60423866531799
1.34122488262382
1.42976238123739
1.40788784020908
1.57327710967195
1.33866402284555
1.36560788857221
1.35653379494282
1.47910447968742
1.56068046049018
1.58357229397595
1.43613795706201
1.60527967260019
1.4074378339266
1.71076442908621
1.2088239813325
1.75091878092322
1.51798374390613
1.56366597595346
1.44464437046606
1.595130027554
1.37234670074039
1.76680031220805
1.45122374793212
1.54839500519837
1.36039907319198
1.59107628270204
1.5580397602301
1.4595957967092
1.30166390700655
1.56277919458983
1.33829219404424
1.43512685939999
1.49655400044805
1.65029999725695
1.38172564604344
1.49905176033888
1.51139168580894
1.55448328021014
1.4291675741278
1.63639194453995
1.37375654459378
1.63732461166207
1.62261170646064
1.64267061236985
1.41041398457058
1.46875919766957
1.46798513402696
1.62795257969468
1.48688889040334
1.59685618310448
1.39179174047116
1.51913844219539
1.47606619903572
1.5497409832233
1.50140086762323
1.61358698366439
1.56368787930667
1.93503203571126
1.50645860649698
1.65472061883753
1.54097867620297
1.59036859525539
1.4428157838163
1.60365130326516
1.53652650978454
1.74918377438989
1.54570168564733
1.63622729342913
1.47303428845502
1.81429353773345
1.50025190944727
1.71062061549136
1.51155835632166
1.63768464380901
1.45653236523659
1.37970221028875
1.48362868406254
1.46065783740409
1.51855471921813
1.70607271915992
1.51429134082277
1.69514902130442
1.57319528197975
1.54772914677672
1.44768076937724
1.61400939439058
1.4414108423845
1.635987489993
1.53550632190747
1.47414200463071
1.42228823779889
1.568884905074
1.63012935129613
1.6058900502721
1.636871547805
1.81612673454342
1.39061202862643
1.53289539727536
1.35743406999053
1.71787222563497
1.45573878053304
1.40120731987915
1.48226453974249
1.82438971250698
1.58219797543855
1.55404692067029
1.44293182571991
1.56253885498355
1.48671883893123
1.59121571768406
1.45598137204603
1.52148773654791
1.48827989351705
1.68581444111745
1.57780792626408
1.51825168886886
1.5407783018018
1.55875575230918
1.53069822398794
1.4860669517119
1.48432396252844
1.465043336351
1.42752877622643
1.50321327590739
1.48979162787694
1.585110091456
1.49815808324342
1.47456120711488
1.49478359986031
1.51306723559966
1.42166576202253
1.64478447461801
1.43638851508307
1.52151789672113
1.53354164118727
1.51628648652056
1.59072932185884
1.68094645438682
1.48857775261229
1.59712133458319
1.41870094179364
1.49260506800289
1.39669481955424
1.59434391811966
1.39571492373411
1.44979350496625
1.4334669431088
1.50029112084164
1.35043814313971
1.45465983798069
1.33937740361637
1.45688923264662
1.47602375259178
1.43974166214977
1.40637454087076
1.52062737153487
1.40346173217297
1.40464945996743
1.43888833088907
1.51008600222535
1.3548691530591
1.43569231685939
1.53105579230987
1.44538112402876
1.4142767795932
1.48838016279046
1.3724313690505
1.40490220996896
1.34265483170391
1.4241338223671
1.35945502745788
1.38040504621694
1.54822894008192
1.3965600156332
1.34109107916938
1.5049911292666
1.35615160639519
1.4026018391405
1.31889073977439
1.36994213780377
1.34113640156913
1.36525248084729
1.35117034446793
1.43343266512326
1.30435977299103
1.33003399832803
1.30717212815903
1.33817063761284
1.27678508971509
1.42638267674136
1.25445818753902
1.3286584566084
1.26451047707745
1.28477595045689
1.26031351845638
1.31596107055282
1.29640661913547
1.34063989653306
1.23905943740984
1.32736481772886
1.28750373642962
1.24732589137255
1.24914081435803
1.21170395860934
1.22111496030925
1.27901544890076
1.21619209244409
1.21864731017669
1.24776139372939
1.26146432671343
1.16458998059167
1.24952079005228
1.21120849194805
1.1737394264147
1.21164987056775
1.22103830921937
1.21025578320408
1.21130226664969
1.17678647091751
1.20108608969851
1.156844185016
1.12998092406838
1.12658295958965
1.16099104688502
1.15347490957649
1.21204576550501
1.15628469055431
1.12016777754723
1.10474384295061
1.15648693196647
1.04886785784246
1.15497465666104
1.10638895204353
1.09639577278884
1.04759607129639
1.07158717506751
1.11933871733905
1.14928795905361
1.06737266251944
1.1237876663664
1.08167595255373
1.08017325242126
1.1183487669038
1.12999952804801
1.04997475286498
1.04612180414225
0.992510433046178
1.04114684563573
1.02698810876525
1.01161227845889
0.97109333047538
1.06354273651052
1.03146883793424
1.02278069156007
0.985154450670128
1.00542290810628
1.002162237591
1.01422658686602
0.974179399622283
0.957132390436953
0.971091898875904
1.00035795689271
0.965427174379115
0.967713634432305
0.943850062509146
0.946102069765216
0.909886467092574
0.976590396142933
0.914448608853289
0.942521040536229
0.946398415380074
0.920647959912089
0.929505265202001
0.907095113663838
0.902578437099661
0.908709943320524
0.900393483804659
0.907633763713489
0.883590582299698
0.884264126527747
0.89034856147527
0.8795506718896
0.853546222830386
0.870715466508849
0.851124190082015
0.843711480571642
0.85108802132243
0.856887287322861
0.832890399263492
0.853613390149639
0.854896847600098
0.85120869634906
0.848053418575396
0.863868552535927
0.833247362017216
0.809852507285736
0.802357156279018
0.814861562891181
0.809629116617782
0.803818059317784
0.789085461870904
0.793563386004256
0.779583720326082
0.790020448397194
0.793464407211989
0.77815278857631
0.756675846227088
0.767615103139496
0.753796467447944
0.762346090652398
0.747967326813632
0.750418511778304
0.773008633497642
0.777977522776987
0.736040555459234
0.74298778051719
0.721419187810805
0.763404360755284
0.724901676229414
0.736319634209506
0.716159231576158
0.728711311527529
0.71106814854427
0.713289566804647
0.686469572180478
0.701645072480486
0.687639625029002
0.699103159261725
0.704984214640888
0.702554235203908
0.681238178340183
0.692662780504205
0.677869105157498
0.676380769403143
0.672775448210925
0.67160012535584
0.648363677305068
0.676484900871118
0.658433619670671
0.663666963002188
0.652264173951609
0.650008231603513
0.635267620411409
0.647320484278837
0.636462417401384
0.642049262221093
0.638942162231185
0.62906797177999
0.624910828821014
0.626871602464548
0.617697916462169
0.636027556462097
0.599551888079345
0.612823723616984
0.617701904583433
0.611679179480267
0.595882195817385
0.606702722027831
0.59600339414331
0.60059322297876
0.579811485956874
0.595142086763092
0.587733996932264
0.596024032119136
0.572308028686503
0.566674912497734
0.579863173338936
0.581620649601042
0.567592211953862
0.569955493047594
0.566837361807359
0.55854725286843
0.557342038530139
0.56486737761492
0.561160779274068
0.558247616236004
0.54559075251864
0.543054279830135
0.542468315738224
0.533496702718416
0.538431758730443
0.545772007213814
0.531478593629141
0.525018033103421
0.524046388621472
0.534840996116259
0.524642480475474
0.527582124598776
0.525584853887847
0.521039181745863
0.508361472651921
0.521498497531657
0.509642871524565
0.512633284025759
0.514509014228506
0.498462938501672
0.50562524558076
0.508421481757719
0.500512224848433
0.499081520116938
0.498125380044367
0.507585942630623
0.490460525058448
0.4958483710459
0.495674062016679
0.495404275955069
0.490234055203489
0.497917581646564
0.492441845284087
0.502202136416344
0.499806929443128
0.506947269187175
0.498217840764936
0.496085270434609
0.503559299855565
0.501063557020291
0.498089620097451
0.504066880281021
0.493799269817655
0.495636125609195
0.491258902445382
0.497487879433903
0.502245451006427
0.50563093246384
0.511158293832901
0.514068501079514
0.505254925490555
0.508350381600532
0.511662516163082
0.519230099991366
0.520352008155868
0.513783083875217
0.5119348936117
0.521568707942638
0.518981607668039
0.528352392667282
0.530839921250911
0.527750282746362
0.517140619145082
0.526992301641047
0.535884362443771
0.526974561581183
0.530771871861084
0.54729963388266
0.542581648491807
0.54306585859025
0.55312061008576
0.549599243632632
0.547219656413393
0.561906927324792
0.563501324322799
0.560738725413635
0.56146730232884
0.572047049221382
0.567574298123909
0.578948394948587
0.582505643627932
0.581482177161701
0.574975031597699
0.586916166833094
0.589985879272207
0.595501351730904
0.605596037887748
0.610214160571482
0.613302154241434
0.618875852071987
0.62046068948469
0.617277878152015
0.609471763926185
0.614168468564686
0.615962945129194
0.620030201494422
0.61970497294933
0.619084582803884
0.635473459393513
0.64361918449983
0.638272943433591
0.656208156974878
0.649583308376411
0.638453715359748
0.641829003422432
0.635822152144837
0.633893678444453
0.643438229500988
0.641995194709219
0.64269267265185
0.645536349482689
0.635580806024494
0.635160602588143
0.641347813707566
0.63498385636201
0.635996964351962
0.628628411028911
0.649083890341347
0.636586875874769
0.630204750835522
0.633610015057459
0.628677758469604
0.636519251527401
0.641434229126993
0.638042735368838
0.63061449215877
0.640592130155054
0.65181781035948
0.632473034016635
0.634226019086161
0.643721936950818
0.636171027424517
0.636194290866291
0.646948057877811
0.636723443580707
0.626567919994871
0.648937855058609
0.642278224539937
0.624331773299126
0.636375835080905
0.631077562341533
0.64408536638933
0.639174580181254
0.632334533615935
0.641236665636148
0.644838234513867
0.649446415222697
0.642100143967543
0.645480070489476
0.644236323496652
0.638266091706247
0.635151626938671
0.6320894389051
0.634099132274468
0.636219338383867
0.62672912840592
0.629495567935742
0.635391576743159
0.62797407323948
0.619655699884855
0.622804241523969
0.617465079278764
0.611536411164971
0.619457349882859
0.608134058464697
0.602371777258134
0.604650666624167
0.5980558225886
0.593650591229543
0.592422386979127
0.586329856400662
0.579316887433891
0.58783035299145
0.584205672286338
0.570776173428934
0.57074316802575
0.57037119236069
0.559871817632695
0.555995770158353
0.556340138710392
0.559164053685307
0.547233283931165
0.543913801186943
0.543689363244689
0.542579786676797
0.534750293802365
0.524727270889447
0.523467264187153
0.530266367242292
0.52573106965699
0.515026374785
0.509135626552209
0.508574534018963
0.505509299423698
0.504167784233828
0.491250134854263
0.499824110299217
0.501858005879626
0.484094657825768
0.485477545239874
0.483991955485578
0.482017231097484
0.489004051736933
0.479067491863168
0.473865132890966
0.468648172437292
0.46801302132016
0.467044305663669
0.463522477534828
0.458496658576732
0.460414991045766
0.456822686116199
0.457713061362155
0.449606675828457
0.453272891900132
0.44636010499419
0.448308965803255
0.446352215184741
0.436496255547168
0.443434742795042
0.44906532738955
0.435040647656456
0.433109818345545
0.434061887293784
0.432850143003771
0.423577849269892
0.429447695950209
0.432011517396188
0.423329760579226
0.41790098208073
0.420377312220184
0.426569812504434
0.424031723056722
0.41789496869329
0.418972522677298
0.409815815595122
0.41409925553593
0.410737383515835
0.412234530978871
0.407918884315067
0.404948561270336
0.40501527674315
0.410379358829218
0.402791266261451
0.406164559105451
0.401806192434706
0.398546149124106
0.399924959373333
0.398507532384607
0.389122761419498
0.392402188813247
0.390018837786962
0.39697467924366
0.389121827362345
0.390875294908399
0.388004209529028
0.383250820958258
0.383898540389954
0.388258286613301
0.380610193991628
0.382144071046524
0.382360920468549
0.380147209016336
0.376915116194193
0.381647315135066
0.37640419523807
0.377423084604706
0.374170774916544
0.377827520355752
0.372336536502486
0.372126385287162
0.368328468149354
0.369100815340984
0.368480797242989
0.367570547015478
0.367495723059208
0.368823360762505
0.366101694983318
0.365743295358753
0.364433878195198
0.363541012043254
0.36157736401218
0.363536834840083
0.355488630755184
0.355290554042445
0.359125758812745
0.35774070579202
0.352814657972481
0.358086805801985
0.353352981863191
0.360995347286107
0.354273531590577
0.356939230828097
0.349017054688804
0.34911327795482
0.350769271346193
0.346644805837805
0.346930591490569
0.352180363590181
0.344806481838292
0.347933139203497
0.343842285280211
0.344575398716286
0.343659523555373
0.348356548364484
0.340264541183481
0.342241860743929
0.340629699032111
0.348637649301702
0.345948733524987
0.344303141429374
0.343420395817962
0.346419029025121
0.341083153904699
0.341069193310334
0.334101389146764
0.348588226854688
0.344641423184773
0.336069792791511
0.33653735248811
0.338313326338595
0.336606038125728
0.341748337917311
0.33682199583137
0.332438834551405
0.329448773305554
0.333313495385273
0.332856276332788
0.337694279801608
0.332282719879487
0.330101752286972
0.329923744186787
0.334315927508573
0.33057110308384
0.32840156310107
0.330831296023766
0.334128562931956
0.324238761803506
0.331086127717737
0.329753196380433
0.327504896219893
0.325732635956025
0.325270259317795
0.315449299662318
0.323067950133743
0.315197109159874
0.318010507781028
0.314741211926741
0.321665666020561
0.31283844037395
0.319028939336507
0.311061315729452
0.318751033872044
0.316163762998984
0.31303829892751
0.308582275542201
0.309729206442225
0.308051056694041
0.320232688028008
0.313105758151453
0.31118060092454
0.307959186004005
0.309317227465256
0.310082714179974
0.309730842180235
0.307740804567665
0.312350485406668
0.306093509772468
0.309790733089728
0.29968348223068
0.306550971582488
0.301165547444036
0.296792206075244
0.300368589990326
0.300953713191569
0.29341721407345
0.302968523276275
0.296701518649246
0.299549975669087
0.294698881035661
0.297591654248817
0.28937366983072
0.293262230593843
0.289983127693492
0.289212145549033
0.287485438224214
0.291191398740221
0.286792427102252
0.287052247862425
0.281395856468837
0.283281294201006
0.283286335128049
0.287769549310758
0.279475126708181
0.283114425257187
0.274084032427677
0.278085953219919
0.275563218394598
0.278882093379315
0.274441654022334
0.275751580841515
0.270932591629003
0.274645429221876
0.272165761461122
0.274505611684419
0.267413290620558
0.267357634615151
0.264220342376818
0.267777247370184
0.265082100907337
0.266636786358323
0.259388125867994
0.260815490835399
0.257326848868347
0.26330380074411
0.257530696101378
0.262142662935006
0.257896620093014
0.255500931649908
0.250797023929269
0.25471187647873
0.252813923548666
0.254773845294968
0.25210809837562
0.252301519907617
0.245122646376525
0.246625189454262
0.246237368899103
0.253498582634995
0.244667724218574
0.248709914672272
0.248460253017827
0.244770713831677
0.235699854664646
0.24081004447644
0.240863077455836
0.241890923151519
0.237985296337183
0.241874566927262
0.236862808400437
0.237698188644291
0.235487675592132
0.235274883444952
0.227977277653586
0.232855025755272
0.232250963963677
0.233762251394317
0.227235601538562
0.232844797081878
0.228559170672845
0.230460734376646
0.2292222049555
0.229595474566623
0.228230125322523
0.22862347691035
0.226085386852853
0.231027953794871
0.223781671465229
0.224403444053787
0.220551994142511
0.222524529352507
0.221120663661843
0.223265669345325
0.218759771498054
0.221518794348765
0.213743364858506
0.220448427410773
0.220111121016982
0.21945565474658
0.217819049012091
0.219224230196099
0.214662744768604
0.215635752481508
0.213137754352558
0.220792338786191
0.212705454486384
0.218758475365271
0.213361640987127
0.215815114687139
0.208481271325008
0.212251958400456
0.209318475007791
0.211786626732339
0.207717148890276
0.209627408381795
0.205778215582673
0.21282787723752
0.207292123705699
0.208634129300063
0.20834557332592
0.209150502157295
0.206856636982484
0.209186284631177
0.201954429756548
0.210482216825165
0.205513031891968
0.206921146543106
0.203791488137961
0.205416771721698
0.201663410604345
0.199888901276598
0.200005367850032
0.204811879700797
0.199700798320899
0.20157922633951
0.198080789580817
0.202154608469202
0.199127959790568
0.20383564627079
0.200055237005727
0.200271146319609
0.19466009999442
0.197390209697897
0.197729230201055
0.199093262385954
0.196157965893039
0.197934372879273
0.198094519118428
0.195104204306378
0.193817280961522
0.199547946002414
0.192114802544492
0.194189614188037
0.19175691942908
0.19614065076374
0.190440104629849
0.193320778106562
0.190674096349776
0.19413754159719
0.190370946792515
0.191570061080595
0.191598485248802
0.192958746045988
0.186983038508133
0.187354210220792
0.183144990932197
0.186712661621045
0.183798363605047
0.188547731088924
0.181989366524489
0.18815223819086
0.187902339544093
0.187741283938228
0.185535945225239
0.189896896343807
0.184520612110353
0.186682897987258
0.183265190935449
0.18797759312012
0.181690300090819
0.182600340234704
0.179524016646359
0.18159678126486
0.180211180966256
0.183118791328551
0.175691967459052
0.182660759853758
0.173716185230333
0.178515047945065
0.178681517047549
0.18257522272615
0.174466988213915
0.178125516861099
0.179111819300233
0.175009773492608
0.173064458037009
0.177829625183046
0.173625524011888
0.174697279790151
0.170339380123726
0.175642312658792
0.171932664097804
0.172187110841872
0.170482024132116
0.176556277584235
0.169801356921717
0.175691507007485
0.173300829283393
0.174944811408952
0.170427982779671
0.170113061011016
0.164742079446541
0.168266942908093
0.165286762850303
0.166143054728124
0.165291880209939
0.167056342855686
0.165098145399235
0.166039863849173
0.161895261056573
0.16541083349961
0.158234361928474
0.165518427516267
0.15941024485432
0.158802610064954
0.15732039478456
0.162403807271806
0.159598664272909
0.159499273122811
0.155140318543058
0.158742092704706
0.154255724606975
0.156561384550618
0.154520385257211
0.153741017371227
0.151974815972146
0.153619771293689
0.151524890703313
0.155518695213686
0.153555703975169
0.152311190024987
0.148337606639174
0.151566335665987
0.147826380481665
0.149816702501541
0.148199271484474
0.154206266104125
0.147777190343514
0.148957001846762
0.147163395379452
0.149170368688811
0.144447591596666
0.145947813502678
0.146975659097789
0.1463314015746
0.142873692667261
0.146674128573351
0.137992589680738
0.14125168679766
0.138703036719295
0.146369994796232
0.139229858115336
0.13932827902431
0.140517054216522
0.138627363232736
0.138835764754992
0.140802616446049
0.135263145450842
0.138300719098961
0.136069906155587
0.136898279555297
0.133620847841537
0.136053108804887
0.133856336693992
0.138174800000249
0.134775481617894
0.133713947658375
0.136061363394308
0.134523487640614
0.132610794593006
0.131878748336706
0.128170280184447
0.135836937569564
0.130488904236704
0.134420499003874
0.128842279416472
0.130917072070166
0.12724572093102
0.127065250233303
0.127417770776051
0.127301725396406
0.125204844569425
0.12922913874929
0.124746471695599
0.126492317157303
0.126047257198068
0.126593884076782
0.125089444960092
0.1224182383243
0.120021219305368
0.12589354546421
0.121782394591912
0.126336267477748
0.121346773421814
0.122524207415312
0.121286046220745
0.120779533492979
0.122731002570522
0.125181250201846
0.116810639185462
0.122801648731399
0.120516579110519
0.12295882162709
0.117141510798219
0.120475989410091
0.121028385594524
0.124676224180513
0.119463422308403
0.122457789658357
0.119768173505866
0.127422279936859
0.123115569155414
0.124634648984163
0.122391662996886
0.127372478697571
0.123331076531725
0.131621692842451
0.127518233404099
0.128991025481024
0.127178101730302
0.125490031070831
0.12336092644675
0.121483231459597
0.122894887642935
0.127907492661293
0.128298724596533
0.127780383242833
0.123430480433439
0.129475820122022
0.125467630276199
0.122489192930983
0.125983170703582
0.135097899891321
0.12054472941182
0.13125502949936
0.117613080559488
0.124041859789407
0.121178958976355
0.126068481674566
0.127296708965148
0.120418777777015
0.120342301060051
0.120957973276597
0.116836897510731
0.116469149741831
0.126104960807823
0.121191692658422
0.123050979771244
0.113639680114483
0.117016095325841
0.116257631126127
0.125284416928012
0.117927157163399
0.128197507947455
0.116826133304004
0.13147107337936
0.118086970331117
0.123669479690447
0.111269050682122
0.119823692753534
0.107946446795656
0.12659947402596
0.114104944555413
0.13050507567105
0.111089850677019
0.119075752982671
0.106498026929223
0.123826504555899
0.115139690600235
0.127560696756884
0.109561872518107
0.118301239630371
0.115174606556777
0.125040833086408
0.112879191563733
0.109527937233743
0.12632982650597
0.108301367329621
0.117505083588862
0.105074309845993
0.12411714157059
0.0999444440125437
0.12832641520577
0.101927850955054
0.120501901175803
0.102697004981991
0.122370496430959
0.108246176986294
0.11610761186421
0.107289321324879
0.111329458632229
0.10701785604526
0.108803214203126
0.105973187002143
0.109632458354602
0.105637699809251
0.111422176277575
0.103973736513065
0.111574951383523
0.102311760307207
0.10928955866496
0.10456383405581
0.111940194357085
0.10183533878511
0.108667894501871
0.103402822476132
0.109759631684021
0.103699959693745
0.108792272462383
0.101753101455601
0.108899195100399
0.101864205857813
0.105659615908308
0.103024871256588
0.108944430853356
0.102917019007545
0.106548000958825
0.103527612007376
0.10559229740555
0.102330448337308
0.108439818094846
0.102027170489887
0.107123170347408
0.101132904490336
0.10893412776878
0.104046613723135
0.109932678252454
0.10284433802469
0.112222871413366
0.105875437464802
0.111157179871554
0.103342248654388
0.109964804317588
0.106747841111823
0.1097461697406
0.10474186913029
0.108461746678172
0.104363860548714
0.109010338521498
0.104995405253144
0.109357153502813
0.100760070967079
0.109273834119396
0.104299363726151
0.110911110021735
0.102781665088229
0.111481835072379
0.105954162595635
0.108606315956702
0.105597968853237
0.108859216062579
0.103669199717234
0.108516197431809
0.105005641415778
0.10999258201491
0.103261519706308
0.111159599196555
0.10514317375209
0.108411971248083
0.106487415435153
0.106374378522007
0.10779948386065
0.108697421728156
0.107376571296692
0.110526615085435
0.107217513342337
0.1104140279074
0.103741149594731
0.110380461312748
0.103995482745324
0.111751383550938
0.106211946990401
0.110345869473867
0.105369828400346
0.112531433955421
0.108075499611453
0.111683472266704
0.106408021279598
0.110555444488186
0.107953579318038
0.114062445215741
0.10764546841961
0.113012059891906
0.108685426029059
0.112782933549788
0.107151267840097
0.11427379882355
0.109557812685578
0.114370268993246
0.110005247222252
0.113932975090654
0.109095812700274
0.113429904778113
0.112479235484455
0.113673001244868
0.109223144318248
0.114139168412826
0.107337838718127
0.114422131387125
0.112410382718704
0.113552772914351
0.110467543379502
0.115138630673567
0.108940431924854
0.115264199442399
0.110955579893331
0.115049119691669
0.111607374251716
0.114009721402125
0.112844160737709
0.116625697451479
0.113167710826895
0.117910105805617
0.113962544809476
0.118414522601499
0.112579516082636
0.11744957036011
0.11404052539117
0.116186225556833
0.117176117266802
0.118040295008782
0.111633376662022
0.116328089425052
0.113836498686488
0.116591650841218
0.115341410996553
0.117948100811134
0.114413064994593
0.116315650834462
0.115680028629492
0.119658253414589
0.113173518301056
0.119929859441475
0.114138472574456
0.118604341255595
0.118197467024324
0.122244484917941
0.117862208786104
0.121400800056406
0.117031910270067
0.117312757722657
0.11879900670568
0.120971726454457
0.118268740854919
0.120172429466318
0.118600399879888
0.1240280242995
0.118572939913427
0.1236017541435
0.119077078722807
0.122643719724695
0.118171285408617
0.122442680915307
0.118560278738759
0.124464251297008
0.121634694980531
0.122365066415854
0.118204551425609
0.120528696438098
0.119812228719616
0.124683302073679
0.119458130514931
0.122537160814094
0.117825133465493
0.122495536332612
0.117263144325442
0.123288580918135
0.120988847685099
0.120349844622101
0.116051042994505
0.123472412921789
0.119594551396485
0.120577484532102
0.116982101727449
0.120079228777386
0.114696071905911
0.119256956153382
0.119604235455033
0.117452826561377
0.113698348905603
0.118919868343498
0.11767290147362
0.120747002340273
0.115244449271394
0.117874795900242
0.112918574745036
0.117128148320805
0.115063368656845
0.117832995147252
0.117729376098492
0.118334971789435
0.115175271198376
0.120658236780063
0.116097972056467
0.119694405312839
0.11534483183019
0.118293320391354
0.115120544798148
0.117199497455308
0.113979776771157
0.11816568434966
0.113446788211001
0.114957422022467
0.114303337509945
0.117208719014704
0.111165168736265
0.116072360208293
0.11372524945864
0.115504831161194
0.111792492901094
0.117277549898541
0.111417683140495
0.114117842632788
0.11210913482649
0.115197734664556
0.113742357066126
0.114876850170754
0.112309415272415
0.115122114483585
0.112043239965454
0.115857450836537
0.112564057246186
0.118130426447902
0.111425265810221
0.115760281531421
0.1094081175805
0.114750975174262
0.110703671286651
0.112090963794738
0.107057757849629
0.115405343425132
0.110711622981798
0.114723805861176
0.11020190194632
0.115271614850468
0.111056535818951
0.114283821628879
0.111657164295669
0.110941791526756
0.107315585003235
0.113164152595716
0.110475529496684
0.114274895125823
0.111367504620222
0.110410620527658
0.110818957971904
0.112257473256692
0.108534678597133
0.115317582809446
0.106476118403932
0.110434979396096
0.109743012673043
0.111867848603691
0.110629508677308
0.112477809328947
0.107854695695681
0.111426508091084
0.110250875618774
0.112301281718796
0.109480261297164
0.111571464516309
0.106802459334352
0.110161589428208
0.105261762027722
0.107469135606224
0.106408934212424
0.111585938313169
0.106166378765625
0.109085191751864
0.105242777751756
0.112357745075987
0.107501779457351
0.108809038302149
0.10748744987877
0.109940760621713
0.103921876423779
0.108460431899523
0.103560498020147
0.104498081019911
0.103779311597574
0.108612237746386
0.105043629962593
0.106303788371489
0.100813865614759
0.107387216431382
0.103087052665597
0.10759044566284
0.10174434416927
0.103929237406356
0.101667115091768
0.106292467644094
0.100261750791063
0.105362946774764
0.099039752825894
0.103697685140188
0.0978348789947143
0.102275363994466
0.0975655402113025
0.10158982381753
0.0983079749235368
0.100560341467994
0.0984036073389523
0.096798548467365
0.0966198288611496
0.101763573821732
0.0977704466306529
0.0975179911630357
0.0950358195588774
0.0964071605824688
0.0958199118449686
0.0984016531568838
0.0958703686770587
0.0930330050750116
0.0953343954713904
0.0970624307670191
0.092677577688043
0.0961158111526158
0.0923151004925068
0.0963121425277681
0.0931697215331885
0.0955543054760323
0.0936214375178814
0.0952278056487685
0.0922620307854785
0.0918778892253614
0.0919314383321684
0.0993818068107153
0.0982050946879186
0.0915215691838739
0.0935185105823464
0.0961347031215521
0.0916406567498426
0.0914449066501942
0.0911126132252267
0.0922518380803597
0.0888467175557612
0.091294664288007
0.0887059989892297
0.0931692279022442
0.0899323325671896
0.0929682461689513
0.089412816032655
0.0907078705088743
0.0908770777329695
0.0905969788260226
0.0878702594808307
0.092762000138193
0.0905008681161325
0.090662760505284
0.0856311089000087
0.0895511559666478
0.0898594420953409
0.0925156877726147
0.0897984939583784
0.0920269580524335
0.0850856500819228
0.0903977947500252
0.0864542218437729
0.0910665190371473
0.0871150993781287
0.0901369985362687
0.0834721955057018
0.0853136380833243
0.0852898822098442
0.0895614647713011
0.08409332268006
0.0882407093595103
0.0842882451199194
0.0878634399881404
0.0841860014413875
0.0885238595188458
0.0823919521963602
0.0864480406547026
0.0820099420027035
0.0868081428834038
0.0830953103294716
0.0907315625818227
0.0830280400052532
0.0890679351275248
0.0913002117539445
0.0963099646185295
0.0850442038950338
0.0837260259629393
0.0839267513021428
0.0846463181963962
0.0805218130600867
0.0821630957227383
0.0837681072045963
0.0830261588335925
0.0822928819532454
0.0836725668908859
0.0828995200272518
0.085481099431282
0.0828123206754788
0.0843038689324481
0.0841956850044124
0.0838103087342164
0.0843817998886467
0.0826890585902665
0.0834675546705402
0.0861882121842669
0.088003794728124
0.0866395444672755
0.0811934792367348
0.0856527077657744
0.0902777511845981
0.0900342487226859
0.0899755315491086
0.0802601696190563
0.0850054245759473
0.0816670985532171
0.0830760846451143
0.0811552376549382
0.085095027416538
0.0824162105666817
0.0874664325195634
0.0853034887257063
0.0820370814658732
0.0839898656820336
0.0806401711761112
0.0829597921835648
0.0823166199548558
0.0833647861564446
0.0807262955032263
0.0830793263291381
0.0799957898669338
0.0819590417216298
0.0814680830490997
0.0821220352987248
0.0848398607364343
0.0848627181087579
0.0857312217623009
0.0797334835152319
0.0856990143425778
0.0791586798939217
0.0830513147340296
0.0933854795780751
0.0841914321945158
0.0832398877420434
0.0791543477530296
0.0860076348500129
0.0778241514712916
0.0851787191132617
0.0801071271553707
0.0827658958584369
0.0792939900490606
0.0845141106816639
0.0807309213866187
0.0855554521851826
0.0805922038252584
0.0830170741218572
0.0784683708535928
0.0842132331394268
0.0805038821976973
0.084226513159949
0.0833489272569885
0.0814634551726528
0.0901054290782575
0.0940486216392517
0.0953368495191341
0.0877614801675247
0.085993001231358
0.0831010375309901
0.0816198025018628
0.0846625517315546
0.0813355806060252
0.0853250156545092
0.0830915858386318
0.0851203325620545
0.0829233799188693
0.0855872215275647
0.0813483537275936
0.0847630397528668
0.0777669662613375
0.0838135280455529
0.0810153760804832
0.0861763722184478
0.0782335901745296
0.0858942757891417
0.0769762789355062
0.0896492680243398
0.0822173842797899
0.0952165817854893
0.0761244081077806
0.105107648421286
0.0877940263343069
0.100890896895055
0.0851199752392651
0.0860693094669816
0.0845064403802772
0.0845546385831845
0.0839952822227354
0.0900699000916173
0.0868220720738008
0.0855113695094314
0.0809877285495241
0.0848882795156902
0.0875971423626752
0.08246482532114
0.0873668179866377
0.108788872394989
0.0983310999435517
0.0967211477070694
0.0805611560797658
0.0897065697923289
0.099206761214987
0.099603434260514
0.0904104162603339
0.0839916931123381
0.0902885097140494
0.086314658051825
0.0877752778960743
0.0852603965495122
0.0918868905684714
0.0934685663575253
0.0887390523422101
0.0893811164328981
0.0855873071475948
0.0896733884292024
0.0846227712325896
0.0955181080923066
0.0934779314722494
0.0923258164034503
0.0922225108394348
0.0933924477541929
0.0941501080205406
0.0888762381685755
0.0908884747679906
0.0892729460740849
0.0946855742966971
0.101409501441602
0.0957446039697066
0.103128276408219
0.0993610512673601
0.0964692703650617
0.0932167298123455
0.0944945038394178
0.106785503883866
0.0915700411198234
0.101348112255499
0.103829860987832
0.105514539278213
0.115483222850281
0.0950326994593065
0.103682791763972
0.089661024616904
0.10530147712809
0.0842576327650375
0.111680518346765
0.0955838959469908
0.112921945601231
0.0840453127415039
0.108482457710808
0.0932036051935236
0.108884568118038
0.0987890992791799
0.103156653720323
0.0964747725851213
0.110732941142556
0.103895132906051
0.107501969317091
0.11875215532535
0.116672005223142
0.116844967288905
0.110993233114208
0.103663732595401
0.122067613714932
0.10098087127218
0.11647198804561
0.0994365860388713
0.115387962735124
0.0992588655162697
0.110306360503084
0.122587112018261
0.125837737686562
0.113292411289917
0.111534451781508
0.108310376676024
0.127878570120396
0.118774562126646
0.125144091236057
0.106661954014302
0.120985377482527
0.105852461133921
0.141723635517603
0.117200488403426
0.142754166698583
0.128086262032883
0.13970618648138
0.130271992535176
0.130777176732043
0.12955462414045
0.127754484513822
0.135794608132639
0.136464519704108
0.126410988312885
0.136545099941677
0.142250588473504
0.131501474411432
0.141475027506113
0.128019729945756
0.137824378253656
0.146722495290942
0.171773664141112
0.165050863051438
0.149600858006655
0.145737254949573
0.156224637920809
0.151928757385576
0.157211652581313
0.147894427604827
0.152510814459896
0.154592435706844
0.151784513294049
0.164020406412462
0.157801465897334
0.16700208381604
0.159045889500266
0.165642535619583
0.173140754480209
0.20066545546274
0.202749069223802
0.174363513922301
0.20089468052097
0.163937230396422
0.193300830432935
0.177512770596408
0.185962706573982
0.186692114925615
0.185772379999067
0.19416786695387
0.188414139001789
0.206020515865875
0.198365307843844
0.211094147923554
0.229614864981273
0.207311351175428
0.218937228956915
0.203894561949056
0.28566252102205
0.192731741652519
0.263378686883624
0.212077213422026
0.253637371844067
0.269412472799069
0.255816689195273
0.267046323300783
0.25999553921248
0.265442330192891
0.275498203122034
0.28332793305502
0.289834299237174
0.297260802585225
0.315144253874262
0.30580644826144
0.332336223609114
0.33662943721095
0.375654245022617
0.376384524825695
0.35267823653674
0.366285643224434
0.384833733152449
0.384217987617648
0.391278868561864
0.39032025106538
0.399697611462002
0.442944877622496
0.430677932514901
0.447306751572167
0.421551327603442
0.476507107278695
0.438725574866917
0.497488352994999
0.467289742908063
0.517908535712274
0.490148145116904
0.500210065608094
0.514399824546367
0.518108072144847
0.536203831475941
0.532949028478371
0.56420685586029
0.55463916827614
0.557989487677352
0.567894059099998
0.571805908301896
0.58954223715963
0.591245511949424
0.61332664115451
0.610252350905388
0.707761736562776
0.650311814399477
0.64032404639889
0.617575860012174
0.603610123657085
0.634393365408168
0.644831886757183
0.650682601577413
0.640022451637507
0.638390936767164
0.627993178276377
0.627629287502308
0.643347758726319
0.623851391886212
0.646636842776672
0.625904246566038
0.656246419117755
0.635457565372982
0.665617024199851
0.695633019085433
0.684127234867638
0.635937906469163
0.630166998638927
0.643956390015929
0.628306049713095
0.635563313309129
0.62756732822434
0.652395706946647
0.634863804446063
0.645829780880071
0.606776055795562
0.628354654659488
0.623446186058995
0.619988211796118
0.610624608168709
0.586717695798002
0.598279042612525
0.591405119636426
0.57961832269741
0.611954722994881
0.59614428355106
0.596914984342608
0.558145515983682
0.564099029706778
0.559070396226919
0.565207685238496
0.547028231642276
0.563212267521576
0.55087747874871
0.558612596296534
0.541779451776947
0.545260679827587
0.532184899896358
0.533501700987045
0.534321665916063
0.544679551147358
0.535020477304267
0.53140946880744
0.52763275169339
0.527873753327909
0.524210869462113
0.522701450052789
0.519153481039583
0.525906844215856
0.520375013566687
0.532669234569432
0.520050851259548
0.525536608820588
0.522561870236377
0.519815572386712
0.519382136959732
0.519066849598848
0.511431057604584
0.512162359583586
0.518937467086229
0.51614535323034
0.512334995334258
0.50546661810692
0.509303420701985
0.505735345689233
0.513763642723738
0.491893389103781
0.526468549143176
0.529568422660121
0.509341415847843
0.500777537664423
0.479366864678416
0.504908755304729
0.475286799156874
0.513125042829198
0.506784285238409
0.496935416977253
0.472698096284947
0.467594066531294
0.469598658489701
0.485042434528294
0.46053201525691
0.474779460517389
0.440874874497693
0.471349120527969
0.48465679556762
0.514305849647967
0.548143837091352
0.47020942834076
0.453978417876285
0.434605804317347
0.488245466647427
0.442633874962201
0.455989189605495
0.416080875063263
0.439584422296841
0.439776043663996
0.435799852038654
0.427035516824355
0.413077931376728
0.42211842569289
0.43680199310949
0.433127661851093
0.431037929888505
0.450762976614022
0.417573611299261
0.433066604995432
0.446460970783028
0.448573585993397
0.393714135829181
0.395308567120872
0.392320413616133
0.385335275394387
0.411993255655176
0.383197746996476
0.399566991313174
0.379638467658607
0.369906235876235
0.376856213187166
0.37421087921227
0.388836808712374
0.351034184148659
0.405626305082721
0.347221672784222
0.372650681817973
0.358798698540915
0.377346609881142
0.380122040933695
0.38051008901615
0.350353616587078
0.348192965717125
0.384616864691859
0.354129825470479
0.363409708839314
0.336757448900457
0.332390767751926
0.352165782323734
0.332033182792314
0.336652101090314
0.343179241523295
0.34138122446476
0.368163683783167
0.352400046331415
0.377884017020269
0.341583529342459
0.316438290374475
0.317580499214749
0.308473641734518
0.326251074010367
0.304080644980777
0.321704356970283
0.340249184682193
0.308727317390894
0.351861464937833
0.319008603406222
0.330395679319158
0.322711756147904
0.316043187597625
0.324572437361174
0.333836150598851
0.354656111520318
0.359601584389041
0.33743220419365
0.364951575423378
0.344621851892546
0.360615697341841
0.341281298374981
0.365264212083508
0.352511202402724
0.374116115972849
0.37586935012675
0.38476562796367
0.382335241160087
0.391323196340725
0.387660736178785
0.446444057221911
0.40307310980744
0.443416151044647
0.435681698371146
0.482157771510565
0.45923856454723
0.456780145664467
0.465468590699498
0.462072311777956
0.473930928780311
0.476024456273397
0.481361371752447
0.515342123370381
0.494282557800826
0.507326290196328
0.499676906058383
0.52004872449271
0.511410360635733
0.539837153061233
0.541038044296782
0.547293688887275
0.596500042106663
0.533994407034972
0.573490551428858
0.541245227645832
0.557223401290037
0.552958103193647
0.564244441455829
0.562113602089642
0.55429881769016
0.580201668999771
0.579938435507002
0.568334129373608
0.571912232840749
0.563113143018124
0.576145985978437
0.578817416827259
0.583207775790512
0.583525670173997
0.58934513992703
0.600817369247483
0.58857488765073
0.634187635038581
0.638402142444988
0.623220789283189
0.629258294086846
0.615754356364552
0.632595185549971
0.623174612237033
0.641856924590445
0.648607179268989
0.648319916564622
0.653262001251829
0.642013375054841
0.652386071562526
0.656911011983262
0.669233983466131
0.678236607187562
0.682283595396593
0.679579342317969
0.655871200951246
0.745219008140624
0.686509923159215
0.72226783468848
0.687170122078451
0.710985034462169
0.68740076569334
0.709231096967273
0.684539010045866
0.7151868904756
0.698306618814104
0.711446561151791
0.70516963335453
0.707213204507576
0.706665775769518
0.702112481052533
0.717795715021963
0.719687313917657
0.706960017955324
0.711419851277725
0.705376423231219
0.710421725618406
0.699505716635299
0.736525776962039
0.710224783476429
0.721313207426286
0.694715122561895
0.732434568713297
0.735532006401038
0.716795861455842
0.699495236780648
0.709665121488939
0.698460164300237
0.710584234519457
0.696485723526425
0.736299777619508
0.728807325613191
0.734327687606887
0.716388565604932
0.729324681398567
0.713077249219127
0.739259857896253
0.721569638307092
0.741123612722105
0.734679860808918
0.753740452526558
0.754459090936149
0.744065947538209
0.75345597321413
0.753390657010988
0.761974342058029
0.760155171929716
0.736469049236946
0.746415721840667
0.731289774693023
0.752059371257894
0.736521288372154
0.743065865068326
0.725709356083483
0.738981315677405
0.708685907942682
0.737641945921898
0.723068369229165
0.712175146359512
0.706120878734518
0.692745336616964
0.698177671287535
0.685794276162392
0.689476269163012
0.682104987168522
0.679641144795146
0.674249728655652
0.669773815001865
0.664198857403413
0.65791185300437
0.661798357153572
0.666491859173742
0.661647906453932
0.653576645184805
0.661814833038703
0.654988861116684
0.65839293690237
0.655835270345446
0.655498971737386
0.642195917822568
0.650796050860954
0.665150309692897
0.658091357084886
0.665721321115261
0.651109952467973
0.663112153526891
0.647026054053671
0.656726690878482
0.641691525042937
0.6511995407668
0.644920653353843
0.641003278270097
0.649824442209537
0.64836172726276
0.648787373796754
0.647164662205497
0.649744787695477
0.644567872635451
0.642515756165889
0.640978065765789
0.641148273287772
0.641689624602832
0.647076155145541
0.634823506009824
0.648238279562069
0.643096955424389
0.655352219140894
0.639395559683649
0.648200345846881
0.643720258553441
0.641121016138883
0.643409108485278
0.6362697568232
0.639920227620516
0.641990947302351
0.638953572958789
0.646689082138321
0.642812680532248
0.64038990179273
0.632324610137715
0.638391450288162
0.626182576549885
0.627403902795487
0.631233086265665
0.618295249245248
0.612584568726165
0.614583560198815
0.608126620171471
0.608561805902547
0.59654485851278
0.595864157723931
0.589011084928722
0.587572207799342
0.579693332326605
0.580987821741185
0.576537022836553
0.576250090990624
0.571537623687943
0.567786064214624
0.561849614365262
0.567301554011716
0.56156527527419
0.564094980255637
0.564153304843939
0.561621031036385
0.565084517414034
0.561510667989821
0.554605075763883
0.562567757085131
0.558560562123811
0.557717456336033
0.560096081461238
0.564266601461614
0.568073034201845
0.567720617717812
0.571298650860307
0.576394535357942
0.573445451527387
0.576376380287079
0.571740376305568
0.579444523030084
0.583690166143731
0.585565415993048
0.582671313534776
0.589909878501171
0.58640105876192
0.592398457585654
0.59506796631636
0.58834936668812
0.594898749039993
0.594702714113769
0.594231531332308
0.596400288023344
0.600081183961713
0.593765840750943
0.592227110574888
0.594939490927521
0.58773738146177
0.584678897040484
0.580550437928241
0.585850399399378
0.582395854485469
0.57855726345671
0.579612144950236
0.580878000263145
0.576480501936136
0.575443049166605
0.573868040661386
0.569295653526009
0.568151850510441
0.567849945402996
0.560993811894992
0.562400885209271
0.559947374633141
0.558817468416406
0.556246570398578
0.557747327749139
0.552248260413294
0.551216344925671
0.549210161119368
0.54825189334598
0.544482407650754
0.543663465957901
0.543541271516996
0.542073298425029
0.540148534082248
0.541835437757488
0.539243664351302
0.535804938508967
0.536707653004673
0.53478420675379
0.529562027302499
0.525367142075208
0.522131652808799
0.522626944936415
0.519756147132982
0.520768294308437
0.513753768880961
0.512319073481643
0.502513584914951
0.501473591323332
0.494190591113912
0.494251948002543
0.486849020802964
0.488323805766942
0.486051611968635
0.483216094416173
0.480218696295746
0.484190737290937
0.474545743162363
0.480479958050153
0.47843529387648
0.474205014836931
0.474162204895516
0.473184102106882
0.468757288984997
0.463297921513813
0.460476294293181
0.459855976452179
0.44631088819214
0.447349139063234
0.438856089374198
0.436565444052662
0.426188603165214
0.422271124054637
0.423314006958578
0.420201055974
0.418486553316838
0.420684697831455
0.419032075835782
0.428779959518377
0.432085004927598
0.437771485019932
0.446287116436659
0.453924769975193
0.468240607496248
0.484094710473223
0.496304670315493
0.518130143613497
0.531898570083198
0.553128077292003
0.569372841231632
0.587458475005721
0.601415884975383
0.625069035372794
0.645717224894797
0.666831519695923
0.680768162464059
0.701060075196393
0.711270014485846
0.741010857682901
0.751699000200226
0.763859796619262
0.787299155800747
0.803590210908618
0.819762569470894
0.827629467086414
0.843853384695693
0.855766495543142
0.866445093822174
0.869382483985732
0.889525793043078
0.884922391266512
0.90410270418527
0.903536709352908
0.906890831194889
0.918056778196
0.903310318963823
0.918109033469468
0.910591421101338
0.917455180486923
0.916692066499222
0.91798504659672
0.917059087563184
0.922396044398676
0.917996575012261
0.926474351886284
0.926693453981025
0.928635532736642
0.928809636599646
0.937900839085829
0.943144025339331
0.945904613962214
0.967244167440683
0.966757789084802
0.964666616915577
0.989360566266761
0.991235590706036
0.989707192524896
1.00794018173771
1.01780569653969
1.02458216748238
1.03485844468237
1.05541653169499
1.06104172671112
1.08842959335343
1.09376657939445
1.12049664054443
1.14206499537032
1.13674833046377
1.13244164103767
1.14804327100129
1.16010509705443
1.13847364166378
1.14987346301562
1.16977139207723
1.17121986626131
1.15787150476981
1.14401724823728
1.15924662943985
1.14623898633029
1.1409574039045
1.13890811292355
1.13950528785016
1.15080264025023
1.14990794789752
1.1476960663997
1.1640747744695
1.18038632592222
1.19336066476095
1.20240616672945
1.21557251484728
1.23697045923667
1.26557280899547
1.27779174174393
1.28616445863918
1.31306901450099
1.31471202427208
1.32561728064767
1.37595324421026
1.37608446925327
1.39942989893311
1.4333815256251
1.45428389659703
1.44790813917627
1.49646177823127
1.51726968232269
1.50042443530238
1.56250001309447
1.58180655363738
1.66527395430181
1.59752031891186
1.6767234813228
1.78642934401618
1.68830412788157
1.75282163887899
1.72706118990964
1.75493199241247
1.82246031911885
1.79973956210959
1.75585654405609
2.02511649213504
1.77846301090395
1.93473852439457
1.83491671527168
1.85849602954654
1.82115614406322
1.84793173942631
1.83893557874836
1.8976577757916
1.87247254138916
1.91066551362917
1.85503729948552
1.89249368222258
1.85806016234099
1.74788925180558
1.86064006366033
1.81927021908075
1.82449467738067
1.90992222450397
2.08152665913706
1.92550636022412
1.94512156701723
1.9625018530038
1.99227035868069
2.05199315190624
1.92509086943168
1.9438748133128
2.0102918514579
2.07014882035412
2.01711130101192
2.01609133682606
2.18583908265379
2.08143702276623
2.16728284370329
1.96910646002304
2.11592338084761
2.32513461706902
2.02247722270327
1.96757613431912
1.98100905487991
3.34075537602936
2.06422574387832
2.1601749334471
2.52347297373745
2.10108117180002
2.55483927262191
5
2.39444780981826
2.60210528763879
2.17163066543825
2.11773920082863
2.08040182019045
2.37480552830038
2.00578431179661
2.21507322929864
1.9662229384659
2.16728594818057
2.21047283853184
2.23419188221299
1.9799249035105
2.19932753102455
1.95617006979331
2.12995189610655
2.11990674825781
2.16768934846193
1.99346311625136
2.0849723718216
1.96170467179934
1.8786401240346
1.76466924781076
1.68932956109297
1.70510341686472
1.77409814222937
1.5686789121687
1.6652341570086
1.59522070579608
1.68744154620259
1.5863546435406
1.66921855624146
1.55775680224695
1.59262603344877
1.55284075074853
1.61846841175895
1.55646643699585
1.56558942041082
1.57699906620307
1.51092794650084
1.51416157618038
1.4763166572053
1.41751902266299
1.45847495495391
1.45962909660162
1.38640500617304
1.39833703490583
1.38284873940382
1.29077699428922
1.26304081198342
1.24184257950234
1.21000214136297
1.16485485651164
1.13516010020878
1.08455262640467
1.04219513202394
0.986444074133207
0.987591165946493
0.929346634840656
0.913247156596427
0.851070331612899
0.82816590179441
0.796077132449589
0.779063706624061
0.755397310194325
0.721236216435305
0.701377849317463
0.69054767579175
0.667907729098399
0.652612430885445
0.641314635947518
0.639267565111889
0.61923950396906
0.622646959650419
0.613781891893679
0.609777887781531
0.5962280973103
0.600515310676818
0.595508523564217
0.610650461462481
0.602474948539131
0.59708089189113
0.598710666114572
0.615524321848209
0.609570606150803
0.615818248576033
0.610205021510128
0.615908420736395
0.608264508015204
0.605202034542055
0.593910476459841
0.595948682614572
0.591505953821521
0.595351680307313
0.58109222185324
0.584882641754477
0.569727696423264
0.568223201327908
0.559190001307256
0.567908800883853
0.558501559621106
0.565646338642636
0.552964963864459
0.566014898622854
0.571591015264357
0.561097271167771
0.571870000532298
0.582130923067687
0.576632406926589
0.580782604363245
0.583555696433885
0.596035870070172
0.589116229207099
0.590604768335869
0.589461409690102
0.602346247952648
0.595850001425836
0.618427037692665
0.602512861295377
0.615968108692788
0.609700214847461
0.607561378846933
0.607470653712064
0.61706312055426
0.613075658077904
0.62365085068533
0.627061682380027
0.618386137546001
0.611909845014252
0.636057554157211
0.630578920939333
0.644292104856189
0.647207926774722
0.656919291849324
0.671090821729585
0.693006372248555
0.707724506280481
0.73231135421226
0.736916080969016
0.763398130574856
0.789452739658511
0.776367033522858
0.780499459299556
0.804327946455422
0.810976310019739
0.808236526773492
0.793245000593165
0.788495562713774
0.795064513962429
0.794418331028504
0.76009132439675
0.767308211604699
0.732695592969963
0.732414277117557
0.740142165316352
0.725287578779759
0.724417449469055
0.742707239628508
0.722189563910025
0.740485804063318
0.728370213476614
0.743076904900357
0.721298593659077
0.739569452087904
0.725395170022434
0.724916463513998
0.712867411391588
0.726211035140111
0.710348084742029
0.704647337941382
0.688077219803659
0.692437546587654
0.692758781427069
0.690058937011516
0.664833675864821
0.665056014349048
0.670181470232075
0.668489187866517
0.65223191154368
0.660469305244709
0.656433102095255
0.656548470614423
0.662333741124237
0.652941049586695
0.649497422863072
0.647537977621183
0.649553737722626
0.640759902584396
0.635229420965929
0.64494318151297
0.626262008522647
0.631207926163595
0.62407033795893
0.625532280204102
0.617605718921137
0.639867127875181
0.631943657432828
0.634087364400846
0.624605110115643
0.613503151379652
0.603540596273667
0.602106287524006
0.591650653398996
0.615398884490632
0.610527267292773
0.617077084923849
0.617786637606157
0.608868411077093
0.588535025302107
0.595406646425952
0.582714654515971
0.598349552453765
0.600348752889197
0.601186704941702
0.599850524616373
0.604977331586607
0.602258587417629
0.609346822000473
0.595865120126834
0.595184249760561
0.596748586674283
0.628239914901199
0.611367884816807
0.623632403697979
0.598501781226202
0.617170692836718
0.626114990972701
0.644760041142673
0.62701776685209
0.661093688621428
0.626676622459012
0.633024420806096
0.620211677284366
0.656901021631451
0.662662782249553
0.658967063481938
0.655831391738079
0.660646722013999
0.677526624833393
0.690219184452663
0.674194588792644
0.720136570489702
0.702897323466873
0.692685065149836
0.715842542932502
0.729054190716369
0.755428320804087
0.754451406788997
0.767407353231891
0.832276353865998
0.841045680352604
0.843307875733313
0.867267874316729
0.854514527992873
0.868868413319122
0.887132770811266
0.887647358508518
1.02634942642711
0.948497557795969
0.978487278637818
0.98349673386701
1.0157191642784
0.943358111653359
0.977850243240348
0.975358575419494
0.967374137512429
0.975155076398676
0.988392886367269
0.940027831459833
1.02380708443759
0.959307127870065
0.962289745441745
0.997534177379895
1.08414697188131
0.909716811945309
0.966678606906602
0.940837892142142
0.951031518780154
0.920232482184627
0.908749426508832
0.937424495446764
1.07159209002591
0.927538295564567
0.980649581141439
0.973690857874913
0.927279440685276
0.914014855108603
0.926192483538942
0.931849894793529
0.900428219252916
0.865510327909973
0.949742776994158
0.95400449813706
0.893697332376147
0.874349762424937
0.9042046515771
0.852117748019249
0.861327211432036
0.873059829334748
0.893137285413475
0.887934809462914
0.876798549139415
0.856032733086575
1.01994488246403
0.9635975570754
0.906051178547965
0.877631950854754
1.01416954517496
0.972143480475116
0.915178302736719
0.879160754262092
0.918359156200715
0.931135978212958
1.05392835058992
0.933237510458835
0.929575617268306
0.919516960412485
0.956525121740508
0.94436785266857
0.90401154280003
0.888784295305056
1.03664144198264
0.952620698602987
1.00823943912247
0.956879953225281
0.991724167655756
0.933583391832576
1.09339724678805
1.17294464320956
1.02563092014615
0.976552710890126
1.0091407500275
0.962074201560201
1.05368925755449
0.99987768362768
1.0895414766557
1.01197336357796
0.979868831522549
1.01406949901629
1.2936802195965
1.16888824608461
1.47429339862446
1.1116139037491
1.4001150727105
1.12825164056836
1.25609845318411
1.39949117645102
1.39309507495189
1.26580284890031
1.17372863485087
1.10512032584954
1.31420529931139
1.01035838393135
1.29859174773893
1.15942282854315
1.54181042944772
1.24688846402917
1.48718051494011
1.33420509569662
1.24430887380877
1.23204818374764
1.54405147573331
1.03977600717383
1.25652336104533
0.888303768973031
0.971063595525455
0.939082169324533
1.11802706384796
0.991091741283626
1.07428600472645
1.27569056100978
1.16148731974006
0.817178471605435
1.14270403803788
1.42692976546517
1.18546087472604
0.910149858130066
1.10676008908151
1.06677299337814
1.36484564392314
1.31090838816956
5
5
1.68820924158068
1.35223754020756
5
5
1.3068790562098
1.01012315424767
5
5
1.90044723140634
5
1.1643657203624
0.709966620041639
5
1.21818153015389
1.20496663511869
5
0.92454760533419
1.01256955681353
1.40996734716653
0.671730631174717
5
5
