3596
4000.36533379555
650.420452594757
1
2
2
0.0595505940150112
0.0679515742194524
0.0464941112702936
0.0708641806971334
0.0674881667511753
0.0738373867584203
0.0630195849813947
0.0631170653503262
0.0691154146032504
0.0853007694535456
0.0729409080622581
0.0693326578988711
0.0667184733311396
0.0674858974206688
0.0702305237189361
0.0689236186024205
0.0665070026809124
0.0774763061588774
0.0636128595439287
0.0747249925054034
0.0692195907299861
0.0789350168580982
0.0659140384216233
0.0791405170161688
0.0699686589367323
0.0695048429123468
0.0729560878070748
0.0814357295354832
0.0646580689133884
0.0767500062257664
0.06564721313267
0.0735803240029191
0.0641575738163268
0.0686800621751108
0.0623272524685155
0.0712250211511241
0.0655774233696714
0.0732509250886683
0.0644539932671595
0.0732375083075113
0.0633656718295238
0.0775169419228976
0.0678746236251145
0.0753993169911726
0.065870608226855
0.0725357296404208
0.0684212695686679
0.0701280171328788
0.0604326438347032
0.0668961977601448
0.0576830786311701
0.0778693471838091
0.069377977208547
0.065256169314327
0.0689284653475448
0.0799264355563711
0.0693681127754549
0.0728222124056102
0.0700779892937001
0.086277087159385
0.0700909020963548
0.0749979302362226
0.0609401643093645
0.0710532793175399
0.0588011241126229
0.0659038300431276
0.062774783863968
0.0668159840499576
0.0672377216141613
0.0697530541506078
0.0659887363081244
0.0853022598202167
0.0751385500975351
0.0712194646244256
0.064389600849121
0.0730031693901822
0.0575280826845129
0.0584469079617524
0.0710283593073589
0.0768918091569739
0.0655522731903324
0.065850522515501
0.0565367714886583
0.0731072648433776
0.0760206237876975
0.0703577225353892
0.0603542173855487
0.0823402689313451
0.072221739769222
0.063858836884265
0.0640277705428862
0.0648000216071551
0.0608676631582636
0.0595153202195223
0.0679791681431944
0.0683202801239394
0.0611959488928004
0.0604561361268523
0.066875254473294
0.0688893991849436
0.0753674893767512
0.0882498381592906
0.0568607569325013
0.0987767118448287
0.059017469551247
0.0761422479143406
0.0727568592344661
0.0818291469108958
0.0651245746054888
0.0566094997059307
0.0608667927437414
0.0553951917325208
0.0665009462548034
0.0550687508386439
0.074132952694858
0.0857770551748463
0.0694605807781314
0.0669060401606773
0.0586960731031752
0.0537320489131901
0.0736798463110983
0.0832552518112442
0.0626014724209937
0.0649949054856226
0.0636429439847403
0.0607959962128169
0.0701006780917288
0.0906101763484521
0.0644186294133637
0.0565049493875933
0.0467439979697038
0.0630350927125191
0.0577824482374163
0.074422790253727
0.0553594011492159
0.0666622043756622
0.0480901655929301
0.0813628231291498
0.0717548326133105
0.0732597491651446
0.0603052075200532
0.0622619563400672
0.0596004995928808
0.0886356814304416
0.0679289822593646
0.0601091751028121
0.0631166191647499
0.0706273590934135
0.0563207030016184
0.0563932180721383
0.0514705265407158
0.0709370843547444
0.0593843576100687
0.051299932754567
0.0872321999490103
0.0839318217415171
0.0752506602694362
0.104117121711869
0.0363221237846614
0.0851765454688344
0.0410707324303964
0.0682904708923061
0.0356517781633591
0.0657618046639459
0.0489160637217529
0.0742824623732013
0.0586948251190674
0.0694226919973874
0.0574355937035432
0.0777817392275978
0.0655429156546703
0.0657968222386296
0.0949613094935073
0.0613756139782761
0.0580729403547866
0.076055724888348
0.0637654918129477
0.0650223416446171
0.0541469742513441
0.0820533836817608
0.0466192580270014
0.0571493491535702
0.0451650716503441
0.0776843925597495
0.0550035424509504
0.0731158165658644
0.0540768061236381
0.0586985761622199
0.0526578822156395
0.0776273281751056
0.0762356599167795
0.0887835447349192
0.0530753039038116
0.0690004594901823
0.0422278766438682
0.0966700693660458
0.053696996751341
0.0799543291953843
0.0458529850318382
0.0545814432396366
0.0561086652815826
0.054707431288302
0.0502958343085548
0.0679744480310393
0.0481436364350425
0.0906848188028226
0.0467920267822092
0.0822060069468764
0.0467027866716525
0.0648480636692041
0.0597677537651603
0.100097316970843
0.0555712191407955
0.0782865871997506
0.0557694641418814
0.0633059785733141
0.0618393801068442
0.074376267248651
0.054717584465569
0.0622575013303353
0.0520745505375194
0.0645018680833276
0.0552358523625249
0.0650507357036687
0.0565461502671599
0.061615496656683
0.0540681582420106
0.0600944290504351
0.0520509835731769
0.0671108267205189
0.0598513592531168
0.068188296960689
0.0511257709991978
0.0536979871006768
0.0569085158519169
0.0796411861694859
0.0586708561298251
0.0762106320077223
0.0495756690966698
0.0663459205126013
0.0412876062088822
0.0655565871003019
0.055763608493795
0.0729143090752599
0.0485261796720377
0.0941504128294616
0.0517398624972813
0.0817622633257207
0.0451933385808128
0.085536647197139
0.0524467508007753
0.0784582718836476
0.0520963719815154
0.0718667225153621
0.0464570121694254
0.0676261573995264
0.0643902956061113
0.081476674117947
0.0535499890546793
0.0743091236305833
0.0654513726517713
0.0704199237116261
0.062956938515111
0.0686382178807651
0.0982121748820327
0.082556428092611
0.0669570023636655
0.100937374904209
0.0493172186601125
0.0844984717233757
0.0518970130119006
0.0746865881225364
0.110897445918425
0.0931232356759093
0.0690835503288514
0.0625277924038378
0.0667049225842333
0.0700323980945013
0.0674464644182177
0.0797550341780034
0.0837116176776358
0.092465635267728
0.0769162874864331
0.140756333734167
0.0462249858466822
0.110507057048853
0.0550505358536596
0.0820961215979534
0.0626861929816856
0.0742553560271375
0.0610493283438419
0.0913483445988249
0.0734961001113583
0.0890320966397583
0.081185584817648
0.0724126515703333
0.0887594633866125
0.0842165965436846
0.0717497178677023
0.079368865301479
0.0822472242532785
0.0767342852573752
0.0740556010890247
0.0727376708227931
0.0738835535014653
0.0844424918980369
0.0780174155074281
0.117115407479248
0.0690742949052165
0.0808217644487703
0.0867425535741758
0.0847444182960963
0.0758980116118465
0.0804509138554168
0.0796070033458011
0.0807212472290006
0.074187627907407
0.0796725191975424
0.0931761643750913
0.0935170746923645
0.07698248661137
0.0802577572298414
0.0795951854738209
0.0837633122563606
0.0790477036390399
0.0866158940502597
0.0827954988439541
0.0957921789580841
0.0692858478880377
0.10006037873171
0.110945846936965
0.0826496850272357
0.102218867712784
0.12349969075573
0.0725533080426725
0.100197424271581
0.0767281253027998
0.0969230976748097
0.0846395087108415
0.104907747147683
0.0834870525805319
0.100687739315053
0.104258656903389
0.117419898724593
0.0944527601934424
0.118589354618612
0.12714236092564
0.166181715716799
0.09480834493481
0.122103657338166
0.0883343431515371
0.141130349382125
0.119452218793254
0.113472035496643
0.127243413606284
0.110433771429038
0.113660271177814
0.114108410540972
0.111346246966086
0.114858085802472
0.11619155452821
0.126773657743805
0.125335452473736
0.127803047051404
0.122871241627816
0.129750308978081
0.126208590736951
0.171566189482917
0.130628144791785
0.140837653104632
0.136880443100392
0.136085678271419
0.148403202372635
0.175614097809651
0.172054666281541
0.202958046686703
0.150639506741253
0.205235299791701
0.143649710671566
0.172482983716966
0.15005292628929
0.173172421285638
0.152312977480712
0.186453439770113
0.164651177177935
0.179073122320829
0.167833124555877
0.189554065725533
0.172375897921978
0.20072802690894
0.175954240569097
0.222449883583507
0.186380742742293
0.209087273609309
0.186961633756563
0.226552553302352
0.230770381696187
0.257058296491382
0.20836405217858
0.219621632055808
0.211696386484112
0.21618061092106
0.225267239000608
0.22798938386718
0.225471778275129
0.238553823705877
0.25436296276486
0.262310766073039
0.246648302650934
0.267424105803536
0.237129544298718
0.28508548155874
0.247558634034946
0.278077649537117
0.280623655091179
0.289814547608029
0.247765949867044
0.285501667159337
0.296224724987334
0.275320697197454
0.286960028368901
0.295863111871715
0.283115253208291
0.289602531174663
0.296547251799721
0.296829027143054
0.299486355841117
0.334545138087645
0.31171528882964
0.343357752552841
0.32173091790758
0.334067817134993
0.310948922900827
0.353538192680944
0.330737445978127
0.370689929491775
0.323798142550545
0.359232944260478
0.337660999574893
0.371347202257427
0.394429321877282
0.381390017092186
0.385438822997299
0.3592458963981
0.369522243655325
0.383492601312683
0.372736004662672
0.400208236759992
0.376840469722499
0.404911541583457
0.390947071559878
0.414777301097476
0.381986527526063
0.429688212135283
0.415274184845369
0.438970675128391
0.398351222660154
0.442723656134662
0.398013397317437
0.447150916409928
0.422982705267902
0.487500500798843
0.447536524434007
0.482797615084633
0.462278244406422
0.461462612129475
0.479485497531987
0.489387210938561
0.479517540571833
0.489345035810792
0.481997769858628
0.507745207944623
0.477732890623041
0.561701901261127
0.472401284612608
0.53303161980455
0.505831314490793
0.559147700221819
0.50702156025647
0.530185292069701
0.504402676261082
0.57220091686885
0.533134478561111
0.563650177057336
0.536993316675953
0.596700133655605
0.546729657322365
0.581840227611203
0.546293760403828
0.58266352465078
0.555058949608851
0.611583091140969
0.566919800688666
0.644066392959212
0.56875668290829
0.612657049784978
0.60335339993928
0.640370026842732
0.607113538776173
0.635053055443846
0.631371910897315
0.661305416437948
0.604169772738304
0.669000329786331
0.628386493862707
0.687928458300918
0.654821523905096
0.710000188578434
0.713755938935311
0.706941852444191
0.659953068646118
0.731174244445563
0.650828099636775
0.737940639363892
0.679323732047718
0.760229549166929
0.699881950923142
0.77061624109823
0.694986877927872
0.771043618993782
0.685978215379591
0.786566420362346
0.723277505873474
0.77157477067834
0.733324316505838
0.753608695443755
0.755521657829314
0.780709737946031
0.747390239438221
0.803897656908026
0.75965048941932
0.811401859710243
0.786169187848729
0.802448141672299
0.784941797977353
0.869156975399349
0.771197710317328
0.816184214142651
0.761385546977307
0.920744194157615
0.785954385991478
0.874026849112477
0.801155287084897
0.932627453616966
0.781489590779512
0.929093956597892
0.82452664738733
0.880839285212078
0.875373742192738
0.908467010097445
0.869415648328968
0.907344589889842
0.8616996971153
0.981648904594112
0.853552722111266
0.962069236707174
0.879761541180842
0.979013556908408
0.878821744879301
1.01867791272859
0.875393320276424
1.02382258881786
0.888988739058441
1.00856940067227
0.864940001131939
1.05796615174499
1.01452039203195
1.01596933338941
0.864604946443291
1.07216011405268
0.945118726642667
1.04549447322849
0.9961273235119
1.10220220509802
0.927765777894843
1.04463971415173
0.986571339371338
1.02483168295238
1.01218728315916
1.17552345297757
0.971766827457573
1.00231046223191
1.06528643341629
1.11336160864354
1.08968610141573
1.11090305788364
1.04644798444035
1.15367731786693
1.04742948336061
1.13583711031582
1.03754144124215
1.16242293277716
1.01833156302789
1.15387550433254
1.19142906505528
1.18134903950475
1.01435137859694
1.16085887547423
1.11032019894625
1.1863201750041
1.06081800979106
1.22489206634234
1.12481699000415
1.27685370335833
1.08353278067147
1.19773116337742
1.10774759323682
1.25019242851459
1.15005282391779
1.22573144664826
1.16696669414
1.3541544820107
1.11411263896165
1.47347089272124
1.14682596964193
1.24077971693675
1.09543559401885
1.33222360784451
1.20810519390006
1.2633346173551
1.17687622742403
1.40783084662639
1.15447206095261
1.39253933753632
1.30960811015091
1.3644254134979
1.14338608135141
1.32244808737831
1.14666423969516
1.3518485074429
1.16454803392644
1.35005371866593
1.159608599601
1.3447587690341
1.31943805224134
1.34314569464865
1.31149532197589
1.43265734410005
1.26033131687783
1.3976351753992
1.27291468222334
1.27345628441577
1.17684947934721
1.37130820894417
1.2926150428043
1.57033732738588
1.30576881428534
1.37313688336959
1.36288388982284
1.50526641051976
1.21166752907686
1.43001637140674
1.15487966945994
1.5368107048475
1.39770692205081
1.49140043868654
1.45161903992107
1.48555092814285
1.35491955588789
1.41272890935173
1.4115059962915
1.50999652392476
1.2075165198627
1.64968204870591
1.32620146634786
1.6075745768658
1.22796324596349
1.66210687522933
1.3531124775548
1.59377132368093
1.36742687090498
1.80509567233266
1.38108487907759
1.57307152558022
1.36727234406033
1.46627553277469
1.38717550391845
1.51858249372064
1.45070058140243
1.62767837599043
1.37292545148284
1.63107773262338
1.49955804497877
1.57344830571263
1.35814218225247
1.52572209148581
1.45622468212056
1.6152639992517
1.4916247068704
1.69876051558104
1.4425067561038
1.81765986552897
1.38208334407307
1.53863596971171
1.42562119850908
1.46415730257677
1.41053818063183
1.68663588831354
1.41224249048497
1.62106887030596
1.43127102169686
1.85362399503289
1.64417819303636
1.53147167840841
1.93416905301967
1.6196443588831
1.39753589449133
1.58338152906799
1.38494239221629
1.61162072503724
1.3878122757384
1.64843966694172
1.40577984935435
1.60838476882781
1.42057709883817
1.49687256335864
1.49346669553985
1.58647302107444
1.52808255239574
1.60268615418534
1.57373492152699
1.57311526093345
1.42730741243996
1.61593218040862
1.60914799874648
1.64983659590977
1.50067533759857
1.55069037237261
1.53979116853471
1.63325715869701
1.5498834891912
1.84390344669632
1.64064986045671
1.57202014468883
1.42889656100075
1.52686755151757
1.46257658486257
1.66105787647324
1.57242318211548
1.65497442878738
1.45716319066148
1.63270374788303
1.43951541192701
1.52346890247046
1.4774984936057
1.42672226134999
1.53484949315047
1.5818822706243
1.66208379473369
1.56307396635881
1.56004790795184
1.61765211829579
1.47697509906046
1.54756734920414
1.51679793461868
1.62751864308335
1.61594260435799
1.4986719967889
1.51794271653866
1.71105911469529
1.6162307639157
1.79497852620001
1.60273881806062
1.64826801280089
1.50532060885222
1.57612289654455
1.50258127730186
1.6091803239487
1.52231673654547
1.66601362912159
1.38114828221193
1.57946490307306
1.40539303759144
1.5333259615791
1.43438012883635
1.52571193689178
1.61550468463052
1.52313486135285
1.55145328915101
1.73991581357671
1.56536492783037
1.60943603190109
1.49162487543217
1.59844812598655
1.6069632609819
1.55691045531501
1.71317933884614
1.60770888323035
1.49697606995284
1.47662553106187
1.39698641727222
1.81435323869365
1.55463601165594
1.56324599136152
1.41296523400744
1.64259402561134
1.37489188659474
1.60066740232292
1.4852864442994
1.71414723144334
1.47216139455159
1.65532923483846
1.48135926199317
1.37807177155697
1.45635575679011
1.47335732000903
1.61341021408997
1.55729813899254
1.47610941781994
1.63784672980416
1.41774015605213
1.51766761768647
1.42164890799449
1.68524874772007
1.45528736310461
1.48844618739763
1.43368302427421
1.46417523867757
1.45875744748519
1.45843771431535
1.47747386684253
1.45814350029853
1.35777332554572
1.45370164457584
1.50062351043034
1.52302452169089
1.37406099547848
1.49373791189915
1.55168719079205
1.45290015284675
1.36651945546436
1.44354276513726
1.47993094820976
1.43489899489762
1.39008351430793
1.50755721510429
1.41917112944095
1.51919616343009
1.48522550170828
1.35402003156357
1.47020339894437
1.49006725813436
1.38195417306789
1.48780755416454
1.32583554379088
1.47458461809587
1.43940007039548
1.37166914755672
1.347893736546
1.38705411566931
1.3348917065431
1.41073728795749
1.33899206408581
1.48967796962158
1.37765148840899
1.29807701957087
1.38198846034582
1.49813827845939
1.38928937777865
1.30927846673023
1.31349692675201
1.32849392470952
1.35684980052447
1.41023672084503
1.27315016580929
1.41084267196018
1.36308231032963
1.37814195997379
1.33908270649635
1.35137209514093
1.30742583980534
1.32808849395703
1.26921984298055
1.34929854662899
1.18262904303375
1.34562830832053
1.29571052154042
1.30459300868128
1.23165051868843
1.327876295035
1.24435980363726
1.2928585874126
1.21100202095447
1.23802520265444
1.14219839432575
1.29895363948356
1.2283745114297
1.22379916514044
1.20590730338015
1.23016455505027
1.2132932490479
1.22078507783408
1.15137781811251
1.22490654823628
1.24417979576598
1.15886047221883
1.13251006073655
1.22415688263566
1.16951065011949
1.24491685480529
1.15367238984334
1.18995716295826
1.13634328707571
1.12991874094614
1.10379676071877
1.15790594698585
1.08879492042333
1.13757985934837
1.08649281875794
1.07613310180336
1.10415083449983
1.09170270563651
1.07996740693493
1.13662539470951
1.06015762229186
1.06165593103215
1.06535444626138
1.08919114518521
1.07051040417375
1.06175967423603
1.07132377752215
1.04688496654302
0.987571820493683
1.07145385002623
1.0216868631322
1.04313905151259
1.00989172133304
1.05002075527115
1.01022868112098
0.997963563080694
0.9752260670177
1.00380367890808
0.977114231801452
0.988978009423114
0.996688393774033
0.979222897063944
0.964695493681146
0.969898116655582
0.963646740551506
0.97473625964629
0.973873321460087
0.963584200031338
0.916678406335907
0.945909467705563
0.927529331497293
0.938848285816895
0.909900542721714
0.924189700905947
0.898368097180869
0.91614758742085
0.91017761928124
0.902045949284098
0.89396623766963
0.904927036464256
0.861120605578991
0.873944149140082
0.877420910470866
0.896461867668515
0.888107907750015
0.886830583952441
0.860724293745587
0.881222733964298
0.854717681137348
0.856288521319079
0.852907245326311
0.862254199916899
0.842082963926383
0.850532988841941
0.819277513076757
0.826244998581805
0.831224775475115
0.813626887532319
0.80422231822079
0.843324108591346
0.815412021994358
0.819532892590186
0.812291234132443
0.806206231956723
0.794954018796034
0.808377021308295
0.788589588774638
0.787544303751652
0.765497260968556
0.779004885138626
0.761011164220189
0.773497297719919
0.763687444801772
0.760284869638086
0.746110695691524
0.747670313711563
0.746265101888025
0.740246279630597
0.749832272990543
0.743192707590261
0.718362210586572
0.735919410351293
0.721838167817335
0.732016115879385
0.717888637779215
0.720164683737487
0.715184284927705
0.728497362487139
0.684185595662397
0.700895731820901
0.692127803363414
0.692538398755308
0.670466903254744
0.695475212480046
0.668636745745495
0.678970054852675
0.678990614769956
0.66625875527554
0.650255894736326
0.653883588881356
0.647026532879458
0.672924063161215
0.654597131370922
0.658356144113301
0.646976217520805
0.640802848357509
0.636968217667806
0.645017311970133
0.627818268031151
0.636845211699434
0.630967999320372
0.626619849450517
0.617067471036054
0.623937174797895
0.611984045395401
0.615209085785678
0.600943688221036
0.615246170863629
0.605015918035156
0.607504853450836
0.582382179846776
0.592559103442478
0.587276104401287
0.593077471172464
0.592432683008651
0.585505867415753
0.56129861372316
0.574505562661877
0.571587029224721
0.577591819332213
0.571698057022315
0.576792493314753
0.561420351427229
0.56791165223779
0.559941236967739
0.55944293290268
0.55113590731647
0.550939617242908
0.541151461520277
0.555044186468161
0.541095428024557
0.534622337191594
0.534220176143657
0.541454798985927
0.532593789169302
0.530870821558357
0.522805414861088
0.538124023945443
0.532825874598621
0.53095214368998
0.517564948258327
0.523677732667072
0.514227004393424
0.523450915945189
0.51325937950156
0.518393392887143
0.514654654555648
0.517394332837287
0.509062913593703
0.513667103752642
0.503128330501644
0.514148631144119
0.513104932171761
0.516183899017644
0.503842729262685
0.505199440654079
0.504909816017726
0.510696288531403
0.507382152772849
0.516066235717495
0.499761319209008
0.506583769808828
0.509994305344523
0.502302121608874
0.506201998444054
0.514361485242598
0.503763652342648
0.499967107329856
0.502241812884304
0.506227641919951
0.505038826732099
0.515440691016565
0.518483249711787
0.516814943591841
0.506413836011473
0.523240758903463
0.520507826989454
0.519936102939839
0.520254725882141
0.515076395411945
0.515698411554274
0.53604159779887
0.523574309188822
0.529397433846213
0.533042352412384
0.541879921677978
0.539658837726149
0.527304561423247
0.531099164640528
0.55958969284043
0.55975402104635
0.546571086657871
0.54336404934612
0.560384949982803
0.565832344489723
0.560580914376079
0.553648802687654
0.558216464533038
0.5670978068493
0.565316732264284
0.567347874291092
0.569736210210597
0.566387792721979
0.578135912434549
0.573715958444736
0.585164458051592
0.583520769212751
0.599985151362084
0.594367860331157
0.598832034192986
0.599083925805874
0.608140949675344
0.602965490657896
0.613496005413624
0.619115062837323
0.609511412528014
0.614873523337322
0.631899027156295
0.628374987290999
0.637180560577178
0.643721687779429
0.642439587873763
0.63510971963431
0.64391137531367
0.643439159865727
0.64110504151944
0.652687266277026
0.657231049155839
0.643361044882347
0.636125860174468
0.632282099152363
0.641723902405115
0.639822779114819
0.647189664333314
0.639343470567433
0.636896286300835
0.650159018402184
0.635225597786397
0.638786308130082
0.651598673197488
0.630397551751619
0.639510057546071
0.634333218688062
0.639179733988834
0.635714532081822
0.626119864861911
0.631190069534884
0.631868772203922
0.634267236541515
0.637211421816345
0.627977137582418
0.63162072024352
0.633343709087424
0.638164563563925
0.637481028759163
0.63956470046646
0.635782295099528
0.637159854621795
0.631129252451797
0.641884776082332
0.647704951203493
0.643959834645602
0.633321052438437
0.637042979477161
0.629118975913611
0.632195384489415
0.634336025412774
0.641432487538551
0.647411605185344
0.63402955121941
0.634144071438387
0.633297471439428
0.634535486934801
0.643208686201748
0.632505055577925
0.622118017583011
0.627342879246023
0.635692613528143
0.625064887264332
0.615007371330421
0.631319191283593
0.634303739269298
0.620513379105678
0.616829213401111
0.615447178780988
0.61625602580905
0.618032471147127
0.614537220325533
0.614160047759927
0.606319600346833
0.61141079593041
0.603498474624136
0.593046188083297
0.604928127793671
0.596190924883496
0.580381529452821
0.580931318360128
0.575984558998379
0.568061232701776
0.569172740751226
0.570266606565604
0.567623663571816
0.567207655936691
0.563103284233445
0.552001133081168
0.547578601371438
0.541240700343407
0.540354724095051
0.537169121623982
0.537341165257348
0.5332960706168
0.523470362555465
0.521337326496638
0.5183824939855
0.506499854382679
0.508890962429502
0.515791576893325
0.503687028345412
0.50235304634141
0.501074777516202
0.500462947073099
0.490857906657101
0.494406948706815
0.488430473890839
0.47656174440998
0.482720260858734
0.48742571973066
0.481339975481051
0.475438626925476
0.469965210438259
0.473283526602382
0.471334216926176
0.467804122943065
0.458512827624855
0.458915132465563
0.46259423951961
0.461723074904349
0.454248161180278
0.447495291613098
0.452302041513971
0.457626939693929
0.450505860118119
0.441498418431239
0.443375730292278
0.451377362822564
0.44237344609892
0.437427556724128
0.440509287480366
0.433552490507163
0.423813984805429
0.432262136743895
0.432798994471639
0.427221943427387
0.422319919594075
0.424100307570655
0.423597918568914
0.427027785886043
0.424510770427313
0.418367200008012
0.411697959778912
0.418112205657715
0.41942168674227
0.410121244600792
0.408615946048919
0.416819721467264
0.411873031881879
0.412222327855235
0.407119920733171
0.40268409172663
0.403573947864806
0.406396233024783
0.402985149888431
0.405454538741883
0.405926374283626
0.400839302519975
0.387792727305477
0.394251124717947
0.395732911230613
0.393814834287826
0.396767088267042
0.394270344241809
0.388383408825485
0.389975545155786
0.384386559142398
0.387553072206911
0.383683289725881
0.384605794688223
0.382404518750027
0.38208515464985
0.381411069013321
0.385649393809094
0.382190729292757
0.380721513276584
0.379419988312008
0.378429566748881
0.376891139335887
0.375583377970535
0.373626780583432
0.376241758910135
0.371857941195708
0.375998324460891
0.37427534109506
0.373885174755934
0.371358822184684
0.367625200544038
0.365936976522265
0.368239657110501
0.366373749351695
0.36913597163937
0.363599179632281
0.36403250529669
0.361464707259318
0.36369305241554
0.357424014289582
0.358627602734906
0.359784918559366
0.359776064338966
0.360368438101639
0.356401083121435
0.359541999458308
0.358527806407259
0.354154964174003
0.357481872214762
0.358655193908328
0.359971160238933
0.348046018817545
0.356113070286836
0.356859571476437
0.352457613054709
0.349567883320195
0.355157001712227
0.346860152326128
0.351323362367891
0.350219796231357
0.349868356050485
0.350492828466736
0.355573184651982
0.350681230997251
0.34544272218666
0.34505187246698
0.355989048669082
0.352484287496635
0.347465861035463
0.348485287497322
0.348508814216979
0.342024840664091
0.346063429834534
0.343854160380929
0.348662428579708
0.340356205847722
0.34041910632879
0.342408219811665
0.343661509490975
0.338213552543172
0.345171582994859
0.337562669230985
0.336584967217876
0.332238976060851
0.338639260062519
0.338639115296283
0.342782959826481
0.330745563856589
0.338389750551837
0.335856710743639
0.32917018071072
0.330952595609317
0.338173256356753
0.331195399836306
0.333351211446777
0.325940905341807
0.325033633851967
0.327839092027036
0.331613311037955
0.330578684196043
0.327110665133169
0.322977123680041
0.326524034630702
0.319598668852386
0.326210635881903
0.320150090557077
0.324935923818067
0.322049266113761
0.325087076158655
0.318848485758536
0.321066179269714
0.316642891181942
0.31841280918978
0.31561273281754
0.320237903663048
0.316536477885579
0.318394135586184
0.312977203282472
0.317456759082256
0.312114470338289
0.313350788178571
0.30863817344916
0.311838820772326
0.307341070653255
0.306060084626917
0.307499902065514
0.308976680405298
0.306248682327578
0.315220175426452
0.305843450360772
0.307670803690764
0.305995393686417
0.303816809017854
0.303184186862183
0.302122142015785
0.298304785743671
0.300959290000329
0.297928067696702
0.303087157701014
0.293688797040254
0.296261515396093
0.293513312804328
0.297550910615636
0.290424706613609
0.295364691920031
0.293032105161707
0.29077509527056
0.291327477192221
0.294084112081037
0.285774720246817
0.286127044716394
0.284483632117649
0.287258747360275
0.284032915027776
0.284570258754026
0.279350268831696
0.281148061850229
0.277673381621252
0.279992838610888
0.276728198351037
0.283721553835511
0.275518310510547
0.27633173645542
0.27152660422766
0.273380302345063
0.272674359483994
0.278175852886734
0.272737589386856
0.277080436419334
0.271589884523663
0.272831772650215
0.269840566273432
0.273404232261677
0.265017598394561
0.270525812358075
0.264593653346126
0.267546467746546
0.263310982991763
0.270088585379548
0.259286074807514
0.262591265796385
0.260449953556899
0.26356997842011
0.257016270754176
0.26330982832837
0.259646025094503
0.257001465226025
0.25780463901144
0.257022978089225
0.253679221921491
0.255834016924882
0.251099667859842
0.256521754375893
0.252294826698474
0.255782544032333
0.253762686101485
0.258927773828545
0.251441868507013
0.254458985929721
0.247420000280392
0.253376051670545
0.249564424986058
0.250695156006213
0.247279219588137
0.247344714119223
0.245112516438627
0.247505896942175
0.243177041425474
0.244735925800264
0.245331577399446
0.247251430291779
0.238692715360229
0.239094096068694
0.239378228949485
0.238524287699568
0.237439888726492
0.242316928131247
0.238010918260524
0.240451778300712
0.237873333677962
0.240139221822144
0.236313030027499
0.240574740310307
0.23717409914211
0.236585570015775
0.233438732798004
0.236334958402499
0.234169334597326
0.240797493687956
0.231139674817187
0.230967815773446
0.231216181893226
0.234285890607817
0.236629141423295
0.233176555517707
0.230370030387468
0.234478668299901
0.226469796290976
0.232756208966815
0.230524009840395
0.228573690076788
0.223445206289653
0.234927270629613
0.226733838424086
0.228523506168267
0.224415925947566
0.22964564793536
0.225125971245143
0.229309336233651
0.230004371883932
0.22926584392326
0.227606748356654
0.227618162633301
0.223677281688854
0.2281586031267
0.223547952606112
0.227309125398186
0.221590718546075
0.221674480399915
0.221641424819245
0.227200003554609
0.220490962121462
0.223319428665326
0.221427609635932
0.224150765934417
0.219194873731627
0.224687442555541
0.217606452150429
0.217250527132362
0.217795059349273
0.222829907186957
0.21644768352789
0.220505842827446
0.218146770908344
0.218105841407483
0.212539381145949
0.217761692323758
0.217169871762772
0.216866839901782
0.216144280659972
0.216278608230928
0.212856979774485
0.218024110067342
0.209784632581689
0.213994252540885
0.206884352919025
0.213839341858747
0.211415081741227
0.2166388719544
0.212912060864476
0.211189727149324
0.209171366375499
0.210402344560727
0.21003834188854
0.211742304691497
0.211144581620342
0.213596957336115
0.206498687567577
0.213985658170855
0.21079970569507
0.209617442145549
0.206265671416861
0.208274953651096
0.207691842443863
0.207620160792299
0.201277736562515
0.207358412562919
0.204900779354054
0.204407413540932
0.205301421527027
0.211760011648279
0.205359933393454
0.201934958587667
0.204375459244182
0.2029332376264
0.200521969181459
0.203637929089624
0.198309210549052
0.202332760799349
0.19792573225786
0.206224305823707
0.202788330849941
0.201844956527551
0.198892975198693
0.20105056968712
0.195337996930658
0.201662029126132
0.1977122898599
0.200607488950328
0.193754519290148
0.198664086654667
0.195600469242097
0.197542835440807
0.19550981325832
0.19582606990869
0.194877116161109
0.194363365076684
0.191739799149993
0.189678050083925
0.193054815115538
0.198102836944899
0.187263451819139
0.192365323635567
0.188891796008744
0.18855800261782
0.184645724690596
0.190034073067326
0.187102259255737
0.18651126809474
0.185423443373648
0.188787381545064
0.184087249816595
0.184047032425135
0.183862539259688
0.183502455805147
0.181125480055628
0.186055566125306
0.180189481932508
0.183864762054665
0.183003905850196
0.185460824778734
0.180998612510176
0.182060068270547
0.175902722223876
0.183306653299652
0.177243078156642
0.182830521731397
0.177846702368378
0.181322870052607
0.173950098728361
0.17781684290163
0.174964517376377
0.179074997964704
0.175731549884994
0.17728571917674
0.172374195370766
0.175542560628836
0.169827871763006
0.173554162247181
0.173289116083413
0.173497241155598
0.17063403124055
0.174336232237657
0.168917613470028
0.171427416347162
0.1683584772748
0.169282395733117
0.166183078332954
0.172180152116231
0.168023015621643
0.170901354545578
0.165544504882726
0.166900729967605
0.166416677431458
0.167873804355283
0.163905681088158
0.166985358847393
0.166600191971788
0.166721918015396
0.161627855034174
0.164381473809672
0.162425063307625
0.165853741130154
0.160505023399054
0.165142123125485
0.16085081512622
0.163680957751285
0.159795551193428
0.160858886069966
0.156439999238402
0.160299759382477
0.155681734689856
0.15888598554983
0.157209221339132
0.157441574668108
0.155002735894526
0.160705886390091
0.15813619484998
0.156965892819155
0.155546540765961
0.159700497473183
0.154295384924503
0.156250991868461
0.154093924501537
0.156064297810595
0.15325513508001
0.155399429923343
0.153250718332565
0.156362003344036
0.152083414200743
0.155520037102922
0.152577312873353
0.156184423624431
0.148947716432881
0.155317051622599
0.153082833680814
0.156319711311565
0.151515836375827
0.154664990933191
0.155121328467071
0.159939136090781
0.154225249218144
0.156280756414625
0.154303746213993
0.162346687939191
0.1533436972729
0.162590860853212
0.161863744603821
0.162834689449132
0.159459532905294
0.165227365361895
0.150797077438912
0.155560168408712
0.155157858065926
0.160458381168897
0.158420519076438
0.165361916564427
0.15116944497628
0.156920608257477
0.155773977222027
0.15470186167443
0.158293075182127
0.160504898275123
0.156105858942695
0.164929923637319
0.14607202418685
0.15453839570307
0.150674627198129
0.155894115878296
0.157359337610273
0.152417402189021
0.149407563950212
0.152481821590046
0.149229104361277
0.148227152114047
0.157434897495506
0.1545573942987
0.154819367447719
0.151122473847286
0.154737180493746
0.148633763219201
0.148465319191598
0.149063503453282
0.161648211774184
0.153808336190104
0.160259781917949
0.149953704724905
0.149074861784232
0.143609933681682
0.150556496919494
0.143307629764948
0.152393895012799
0.145965619850579
0.159980648465009
0.1448309761648
0.151715966852342
0.137858359289608
0.151343427189723
0.15129162792815
0.163503312626034
0.14148849078477
0.146921889097702
0.149313807538333
0.159685403342764
0.143969607592066
0.14238465370402
0.153907736198657
0.140098280273005
0.148450386410421
0.136369431039346
0.152576690172481
0.131216620086137
0.159269055398854
0.13218604335418
0.150803902384106
0.136007459731833
0.151282403151642
0.137519291785654
0.149976246197773
0.13716943302453
0.144034188367378
0.13945365130623
0.139841385458894
0.13983292643564
0.140753138775154
0.135964033505832
0.140314025270982
0.133850579388715
0.142765855087129
0.133421459823795
0.142282616348823
0.13529444534788
0.14027246169204
0.135930032668182
0.139209348808978
0.132143413273146
0.140334206213456
0.134687191497367
0.140598566157428
0.13248243375974
0.136896726812477
0.133925691163892
0.140655686789002
0.132235525722241
0.138145584690011
0.133232469488095
0.139311682965753
0.134520553876171
0.138861195248903
0.135106544002632
0.138455497989813
0.133477547084194
0.140674126464278
0.133046429980939
0.140206153557367
0.134425627439153
0.139360716141057
0.136148432629193
0.141713999716424
0.135545633032025
0.138944466738858
0.135032855596851
0.139336085671997
0.1361550977592
0.138839859700124
0.135576294391628
0.13764624114018
0.137073685335949
0.137935443437318
0.135345901953492
0.139727236843126
0.132561643466008
0.140563417791279
0.133782277439089
0.137764486925809
0.133865034495551
0.14116482642326
0.133361419378334
0.139108064684174
0.134458203712678
0.138591830408399
0.133686807890386
0.139852447583553
0.136948950438476
0.140142840235649
0.132985152324186
0.139150433458644
0.133016997997645
0.136265826912133
0.135619594794142
0.139957766901539
0.135105143350144
0.138377675969116
0.134823729929083
0.138477070818039
0.13619670261314
0.139925750672204
0.134735619152282
0.139831775262082
0.136913336649871
0.140090768795578
0.13517171267655
0.139856893475138
0.137628084903693
0.142550616575484
0.135307665754689
0.140390656561601
0.137142127272515
0.139377750675116
0.136691680016223
0.14238677113657
0.137864569367105
0.14196070401604
0.137582772626968
0.13911206097666
0.136746675002397
0.140209796854262
0.137848005017945
0.141532140324502
0.138921980852916
0.143307319596948
0.137238568484924
0.142220037759093
0.139992106282106
0.1445498654495
0.137800131269809
0.143097400174532
0.137768751536232
0.143170702175444
0.138804727433321
0.145174117038102
0.138249641816828
0.142744425529949
0.139061533723025
0.146464678991152
0.140177054724279
0.144010445351396
0.139498096688412
0.145179293915814
0.139631889580288
0.142587167270504
0.140638855315076
0.145470080573589
0.140511473381982
0.145436640678983
0.143277212653167
0.145250683031118
0.140537012508419
0.144951708705642
0.142105112482351
0.143414234737339
0.137896358332055
0.144975643117374
0.142403719760348
0.145623748229131
0.141662992497089
0.145681580528964
0.141094526967207
0.147849576655646
0.144410554810992
0.146624999221779
0.141593650386787
0.146946578473385
0.141573750775366
0.148892759716872
0.145163765534551
0.147988033755261
0.145120794517574
0.147267267120327
0.143915245072321
0.149089150663769
0.144126682737999
0.147705696857153
0.145664542981056
0.147877735930997
0.14904945413352
0.151336351626522
0.14522029432809
0.15220674720412
0.143990768165337
0.150393842977845
0.147462298399189
0.149022197474824
0.146234216308658
0.148244038129864
0.14909728615712
0.149487257214256
0.147319071749083
0.147435668936067
0.146748278611138
0.14936424539284
0.147601291659197
0.151966713931898
0.145603532473264
0.153907679710757
0.146200320490766
0.14717959534029
0.145504515007748
0.146185201836636
0.144343414917785
0.148174134189978
0.145691597527685
0.146754059699396
0.142254241156414
0.146302322494789
0.14290399578393
0.146480060288805
0.143401157946487
0.14626673478101
0.144221544439215
0.146899874864526
0.143382472353827
0.145291495035813
0.142279097742259
0.144763583150871
0.14153406824367
0.145612777712133
0.140852474488987
0.143258859179159
0.141958523878651
0.146989263082462
0.139987324403699
0.143476333061976
0.137209831052542
0.143728540158248
0.142412577134806
0.145163529995493
0.14117675543652
0.141718362560493
0.141604318554521
0.143715360185322
0.140381177220642
0.141695689993705
0.140697979495542
0.142942907839857
0.138789258712096
0.140353620661675
0.139760491850367
0.140050386182961
0.140907159177992
0.143946933724448
0.136671633330634
0.141681955415906
0.136672707996433
0.140649456845473
0.137713492590025
0.139290109338329
0.136220403193544
0.138882129782413
0.138156019172563
0.14032310422476
0.137305354590283
0.14241724118367
0.137820875426938
0.138830931616754
0.135255113540523
0.139029745903109
0.136069558076525
0.138249812047107
0.133027627204121
0.139025696806268
0.134261901678324
0.138064110210135
0.13488901101736
0.138472506977436
0.135333248718677
0.138639550325161
0.13532172465587
0.138539499912452
0.133702187108731
0.137177769983
0.135035383968249
0.137456496726464
0.132952489251774
0.13756803837421
0.135213757143029
0.135468989619925
0.132053727534925
0.138406018264213
0.13142970869745
0.133913802034544
0.132866921836406
0.136115863770895
0.132641970041977
0.134746393148756
0.132254923845166
0.135117680207469
0.132439130440581
0.136345762208518
0.132884264912102
0.133057137867439
0.132485626812904
0.133644381475453
0.130230280595856
0.131783040336923
0.129937107546035
0.133768752957338
0.12755741070874
0.130777305595107
0.127842009297964
0.133270922099459
0.128266283531499
0.131546180623663
0.128788783793842
0.134687042735866
0.126864365083116
0.131808361713856
0.125677058805956
0.13042685538633
0.12269731761854
0.126077507986037
0.125089143012706
0.128613876733513
0.123137925672735
0.128095388938211
0.124466135290415
0.126165079145673
0.12445069013743
0.125275620032979
0.121180859580214
0.127278335216381
0.120632212452905
0.12449703165078
0.120756925425993
0.124856246108267
0.119689956984807
0.124833622789848
0.120149519370267
0.124735610667372
0.121343158290835
0.121698550223712
0.117424297011919
0.119630957780332
0.117185189643802
0.117536937275178
0.115963491610032
0.119079349144375
0.114933115396983
0.11702182709358
0.116115131006405
0.115374755624234
0.116154052678545
0.11478982878427
0.114609129123912
0.11489204361908
0.112348558812679
0.116927779148282
0.112318157843672
0.114232953683583
0.113971738009907
0.11395917091468
0.112239190242399
0.114207792110577
0.110639322261236
0.109509879270569
0.111573241217903
0.116051075016798
0.11760845159034
0.108743652660752
0.110661434760385
0.114210344199365
0.108275385428327
0.110560657932135
0.108789200139318
0.111589496141884
0.10783064278826
0.109944972085057
0.105944288467504
0.106719997592832
0.107372180446033
0.109279195098324
0.10563147879099
0.109742599202728
0.10739682268124
0.106438817614819
0.103774616643904
0.109225336779111
0.105584543514746
0.107216386122365
0.102040296791181
0.106223887457127
0.105803809957457
0.109902793415539
0.109276414988114
0.1121992551292
0.102400091627608
0.10612890857538
0.103036589569621
0.105715616911
0.102237212209776
0.104899747355573
0.100974854830626
0.101446702841165
0.100602290461803
0.103874011092943
0.0980682763416072
0.102748575216359
0.0997494393255016
0.102172829232933
0.0993048551735866
0.10215347809665
0.0955406448771538
0.100078517738239
0.0965088975511821
0.0999327889606798
0.098225570904608
0.103561581395122
0.0956814319959793
0.10265683499882
0.101750342951215
0.110789674603141
0.0988527480826827
0.0990768239845214
0.0983858649445203
0.0991131920340143
0.098349441283803
0.0981371090466337
0.0958294100785641
0.0955916759011735
0.095721251873839
0.0980711878190476
0.0959799466504235
0.0983951438051463
0.0938610821820018
0.0949820312776619
0.0955468071667389
0.0944468774525082
0.096126282379651
0.0964708470841038
0.0949156290249026
0.0979561489053676
0.0990550214548814
0.0993051569646371
0.091539890842846
0.0949553351222069
0.0994983853015008
0.101426731795193
0.0996778829555687
0.0921044086344394
0.0974258972440691
0.0965725812724619
0.0952861497213436
0.0914725087293897
0.0944146197614621
0.0942421026365855
0.0962135048321642
0.0945144834400724
0.0966695398305772
0.0950804490741402
0.0914229275645704
0.0949931232489723
0.0940811735724104
0.0956722265320866
0.0939258268530147
0.0938765473317306
0.0914258193878813
0.0938915697828194
0.0931271487003594
0.0926562592054257
0.0946405522480404
0.095091755837365
0.0963174349592881
0.0915384193400597
0.0936186589108286
0.088532816838418
0.0949572608983111
0.101962086126711
0.0959764498386
0.09302650240197
0.0906287343528365
0.0976505103456767
0.0885436614022296
0.0940503643165963
0.089859014594807
0.0948885117409106
0.0909254924580507
0.0935218711557139
0.0900265184856734
0.0933612913827345
0.0880353191369923
0.0921342240263262
0.0892156684077336
0.0930347155750747
0.0899537389791622
0.0915484054484169
0.0924836972355631
0.0914144714749589
0.0973564099514488
0.103412389949193
0.103333539746404
0.0948638357064962
0.0969939087947926
0.0926370012852364
0.0904094560495365
0.0938151925258585
0.0911711693522162
0.0935510541962154
0.0911796908376879
0.0916164240040608
0.0906927859813036
0.0940570973454325
0.0898583934506737
0.0949214476748878
0.0887770690262949
0.0925062434115177
0.088974678046036
0.0956649345786291
0.0882908978800084
0.094669431008996
0.0860364242733124
0.0995678027445597
0.0912213318737107
0.104079872512924
0.0868463586405945
0.114368798698981
0.0938000422554322
0.109561460848291
0.0918025710033978
0.0953038817149672
0.0926514533418135
0.0939167168051116
0.092390925086209
0.0982919607764335
0.0954084439897444
0.0938593252003061
0.0907283317844918
0.0934168240773152
0.0942742182543086
0.0930799126846022
0.0960922097407867
0.113448803694185
0.108379955219972
0.105462321670332
0.0908190336615591
0.0995345266073529
0.106722770696685
0.107890699663363
0.0991210954461008
0.0939759351532221
0.0981110214768704
0.0952550067690743
0.095590580970079
0.0936529015192479
0.0996877706791533
0.100550317068365
0.0962887254202418
0.0965148628910479
0.0949862285965581
0.0980738702600248
0.0944997864645393
0.102269823414543
0.10148119386345
0.10153350993063
0.0990666321206811
0.100660495689608
0.103103267974504
0.0994267649208573
0.100789118052162
0.0980293616935271
0.101284141260679
0.108280409120352
0.10569107024095
0.110675623307489
0.109248378700714
0.102663830534611
0.101160046702207
0.102917187474021
0.113138016443076
0.0977227248570897
0.111401685075754
0.114470554550227
0.114882590851044
0.124790425106562
0.105356473022212
0.111285694328493
0.0984029620449035
0.114283707033729
0.0941267968378697
0.121452760759928
0.103969751819498
0.119594260129726
0.0935471394653771
0.118553943495949
0.103408375830422
0.118242334753028
0.104056342805299
0.112827455430754
0.107636209079476
0.117719423550464
0.112697003113377
0.115110108706701
0.123238695076733
0.126496453762316
0.125606469540638
0.120537056495305
0.113945566738436
0.130918861831173
0.112062726278657
0.12594135037952
0.108189008250235
0.123063634790954
0.108976944211477
0.120477918715182
0.130243205469568
0.137265140672846
0.123298670431451
0.119331450113238
0.117098377530928
0.136541233099166
0.129725080726193
0.133199901983636
0.11610261202246
0.131712668102288
0.116227427115386
0.152726318407049
0.125658366487897
0.152892867182871
0.134548986232007
0.150484307651698
0.140525791026488
0.139807327201961
0.137999537009693
0.13921331709051
0.145076939595214
0.147218819331923
0.13578809385151
0.143807635468973
0.152881842681452
0.14768495801314
0.153069590889099
0.138608744189442
0.150552730841356
0.15895519066917
0.178248498316793
0.178111809320399
0.162769711312848
0.158044027644454
0.170481657995102
0.165452679512069
0.168747969187923
0.161454138903081
0.163474941484635
0.163987026774914
0.163849789157763
0.176813697134589
0.169218636835933
0.177862199711934
0.171097011664256
0.181026444368344
0.185150740142307
0.211245606430545
0.215465715472029
0.185239872202494
0.210955792542832
0.17950411411333
0.20586745617298
0.190031142643938
0.197372958830512
0.19976630130403
0.199246392112158
0.20480362532949
0.201349952838729
0.219222144557049
0.214819099355024
0.225448200379989
0.236786142521552
0.221956415618161
0.233081595957087
0.222555957306887
0.300107751694223
0.204829161457809
0.278324579472599
0.229249555574062
0.269795634725417
0.278337040867904
0.267396436741995
0.27991470572587
0.273723736102521
0.279362614290855
0.289014162277697
0.295731248050001
0.306389489423611
0.313621461436369
0.330648111771502
0.315824416587824
0.338862629842546
0.353613739733729
0.392741691786
0.385158937207035
0.366276983799273
0.375888828382618
0.385438888515447
0.387963758938407
0.395804515356539
0.393609140134089
0.407727004897253
0.445426066976213
0.429489639583622
0.456651132882463
0.438904931131205
0.483096523753611
0.448123388183268
0.508610819668247
0.474208154355105
0.518517141279372
0.495353238891746
0.513678382470231
0.51612251400241
0.519696511589211
0.547483335818048
0.547224016219323
0.569835728617613
0.557788379770119
0.563629642952934
0.580535949073544
0.578737151731083
0.589694307325618
0.586173812189564
0.614379037102505
0.606084650347737
0.702143295454738
0.665445399566302
0.641813684750033
0.620755575114657
0.621108305675127
0.649511366017482
0.621437932874183
0.656539701311103
0.663287681335654
0.646533614918222
0.645659313671105
0.633941383089353
0.656733076758076
0.638722658713071
0.661031131479364
0.642481744923818
0.666003241721082
0.633740761283327
0.675585699309473
0.699923327809929
0.708220858406418
0.660166200860874
0.64365172263316
0.663182547829996
0.641250444228201
0.650500311289985
0.638584316172221
0.65159606497306
0.652851376637615
0.654943372391394
0.62554576372113
0.658802943989511
0.643262196641205
0.656735760290944
0.629315696685937
0.598392532004979
0.61110288984563
0.606446058269747
0.599076400230612
0.618249225988868
0.611509590045272
0.609115238938656
0.573654635313046
0.583840726080813
0.574249943483403
0.57358193119608
0.569220478638486
0.580120787431138
0.556039423743971
0.558129798731344
0.548081557929479
0.559169450032373
0.549438293853622
0.554588763507664
0.542962115750277
0.548753390307245
0.549285509123213
0.553359018936815
0.550396147408178
0.542495758808252
0.539625141310901
0.544293436596259
0.536483071090172
0.54308581583426
0.535478166278244
0.543127901462464
0.533839196204143
0.535290965082189
0.537866289783029
0.538183770498922
0.53872864277576
0.528573134887275
0.528188585333624
0.527594362287016
0.527304607781855
0.533462999905833
0.531782964293938
0.52152514521791
0.529467248245993
0.517416318998336
0.525953643399289
0.514564564093384
0.541931057714346
0.535186681208716
0.532471641878571
0.520388274747157
0.500364075900781
0.51979330836207
0.487916690615971
0.521012918660208
0.52210466986877
0.515254888422951
0.492885135596773
0.493601657828526
0.490013274284886
0.500927563327769
0.480937995317024
0.492038233731816
0.458442299561121
0.492919020823223
0.480982203151121
0.507257346005181
0.54225003264645
0.496260840600164
0.475622752582041
0.449192141545677
0.491386876773892
0.454129306537199
0.467558234950304
0.429833716883253
0.450382954937761
0.447869897141267
0.447749285857785
0.443713782886994
0.421205794706196
0.430742998630029
0.453859137369046
0.44726835220133
0.444326660550127
0.456889307920294
0.4365372305557
0.447933588725902
0.436476313786999
0.461816164884875
0.402349348233709
0.405543723018394
0.398435455707007
0.388863288064882
0.422045580346339
0.396964235434795
0.408572262366095
0.39177029795807
0.382762241053563
0.38109717057181
0.382171207029891
0.397506807220032
0.360471413377939
0.411581514651544
0.359943845129877
0.382358598985289
0.361921629573089
0.38912805958375
0.39021699939349
0.397111311675743
0.360665410239556
0.353939731318824
0.393252378470006
0.370722125132605
0.377152112711631
0.348950597588985
0.344144965776907
0.358085883087965
0.337479384875054
0.345802719113594
0.352982464523504
0.35171727843202
0.375513393294089
0.359567396703473
0.392633741887507
0.351476529105403
0.33158977593344
0.331731005703328
0.319026850797083
0.339963365673849
0.321135899134965
0.334905735413488
0.351236051871272
0.321996691007673
0.358650716102683
0.331001476843521
0.346962704727481
0.335062946412054
0.333732379233898
0.340435685618648
0.349737883304437
0.367398855438238
0.374771685018877
0.349825968776474
0.371904372889021
0.357940884963416
0.373631810634479
0.357061779780678
0.375996444749423
0.36291078376382
0.38466031502686
0.385295252942078
0.396591849298517
0.394724745334545
0.405354958118852
0.399517198596328
0.448852452815598
0.410059476706259
0.451552338078842
0.432845014406676
0.471877602250662
0.474624109562205
0.47276574626458
0.479325804580591
0.468673589781773
0.481976125379175
0.4893350812609
0.493420994507275
0.524590752773371
0.509948037710659
0.51811331420461
0.505600156822625
0.527202480649217
0.519014660304596
0.552407524644837
0.55167359605184
0.560952734278227
0.599683399596912
0.557539442552817
0.58840396370291
0.548157119501614
0.569941139081387
0.56636369298315
0.57241796782945
0.568549825365395
0.561913400490276
0.581484419409779
0.580897058392141
0.574158804000275
0.581659378025749
0.580929253119942
0.587050416533803
0.587599172679204
0.592008208862387
0.593720743080417
0.600430676631719
0.611816923834007
0.595658989494053
0.640488146714372
0.651398508410359
0.626091243730478
0.623734886984828
0.618335195613045
0.646081019395784
0.626594418416722
0.646087584515576
0.653253840753306
0.656143290480471
0.661459089919206
0.653947587888249
0.658781864569859
0.658404790568697
0.677963681228183
0.675410710934737
0.686142770701723
0.686577951373032
0.668046401058908
0.739958560487549
0.684194591166674
0.721832761938091
0.699004811649351
0.715894235708037
0.684017737331829
0.710018216933295
0.71044419156447
0.717716065079566
0.706076293904349
0.716029808730969
0.712691476220548
0.714781107926487
0.726185381138313
0.712213436454975
0.716306334798559
0.73500590023264
0.712644448955372
0.709754817365661
0.71694974548091
0.714770751444481
0.709489674919214
0.741400148095395
0.716906320421784
0.735727256788698
0.708793841921149
0.717166379291057
0.729618411178556
0.718995644316059
0.706318512403276
0.718579580380277
0.705309501437533
0.724753172904249
0.705206559712532
0.735794439823896
0.736565386581212
0.73492193880894
0.719212577177231
0.738099028020058
0.722547724549569
0.741133028224969
0.726810415842877
0.737703567782962
0.738514742113777
0.759912918246349
0.748495775570551
0.763088143381605
0.760055957378336
0.76571487316853
0.776942490028258
0.761428949511581
0.756214716660412
0.761753854805548
0.750148431642769
0.771675913152674
0.744102056054522
0.764278407831698
0.735781279133671
0.75103374828076
0.717631567407607
0.745844025266975
0.7364920507244
0.730813402700984
0.730838376056333
0.700157591811355
0.712236762715743
0.700195824681716
0.706734754770722
0.693574943130768
0.686127674179325
0.691457056093925
0.680774554211295
0.68446077388233
0.679880154236369
0.672507535457922
0.666095036756207
0.675442775200264
0.671813600880494
0.67567885845761
0.665122278505019
0.671580731648217
0.658594230533928
0.670832474636239
0.662125021778162
0.664193845727897
0.675172770167722
0.673637414116797
0.673022864796306
0.671504473297211
0.676410286135567
0.668547818800568
0.66722064682087
0.662092665801735
0.664056462188354
0.662696730898809
0.661256792151299
0.661887740791714
0.655323029989174
0.669609475080229
0.655768677543354
0.655293652201292
0.6567373470806
0.658882579095645
0.657906043446118
0.658906825851765
0.658623764111814
0.662462229636983
0.644420876140872
0.656747154403092
0.662006604069179
0.666838985965178
0.648516846263152
0.657555709965119
0.658263953239183
0.654532804756645
0.655897357168345
0.664877029011371
0.659233398846204
0.655938089657235
0.657048128226936
0.656524794284771
0.653276770673421
0.652327852341691
0.652743696840032
0.648782297793423
0.638720714012714
0.641400502106563
0.635211861455805
0.640952780245889
0.632165161170518
0.629123330849308
0.629317144799493
0.626136015500346
0.615784021959161
0.616510048804024
0.604661487747984
0.605019861947356
0.597397021812534
0.597689481245337
0.588029880323172
0.589600173266651
0.585070692486995
0.590728991274042
0.581232886666858
0.585831419017513
0.580753685458013
0.575655952675327
0.574112866321067
0.572759005602002
0.577156930440422
0.577942853591678
0.572158497542007
0.576872975688749
0.573078971556998
0.576219788946414
0.577819972433336
0.587063020620295
0.584018464079581
0.583943568936021
0.587129710145315
0.586145963569682
0.588535924503764
0.595140863962379
0.587640304714301
0.593115141973064
0.59593763728927
0.600429023758483
0.602074729890315
0.605101669181116
0.607474838923714
0.608659236637514
0.605782059088895
0.605976980591357
0.607267735100755
0.606009346754836
0.608324013633064
0.609300036511666
0.611885099387736
0.608966769517287
0.603785301952139
0.60440147656487
0.604361641029849
0.604811277485839
0.594410859698736
0.602004210874869
0.596180858195212
0.594226916031348
0.587594732275535
0.593413183455079
0.592777144221143
0.588965264079416
0.583852033254232
0.58580037961931
0.581472453971364
0.579127531752565
0.581236118778286
0.573965311104076
0.574220581670366
0.572878126474677
0.5713957050983
0.568981588968057
0.569667486294635
0.573932276909747
0.570891691860939
0.564184926127027
0.563083583243365
0.560820827005235
0.559815460267777
0.558747418568804
0.555597230047342
0.557363518480479
0.552693368021943
0.554309047875946
0.553003940239267
0.552885774343402
0.54238448728739
0.541081755113632
0.537853570904014
0.537623463130841
0.528866364311506
0.53156203358327
0.528078825486936
0.522962287509018
0.518893877894976
0.515012925955021
0.511303574041251
0.507585721989893
0.50015499063582
0.501740404889983
0.503915334721112
0.500372402968122
0.494390225732136
0.498046277953438
0.489743576558335
0.494830122091326
0.490101228752563
0.490483317260257
0.486971734699451
0.485866734745222
0.484291548889421
0.47974132473736
0.475521660836529
0.474101704194536
0.462811796334195
0.45979251932595
0.453165521887819
0.448357131152761
0.442251661766499
0.439589775013651
0.434933326967725
0.432866262181761
0.429050208773105
0.429594705530252
0.432236674279983
0.434552875956367
0.438614162606667
0.446981040314361
0.455939325597235
0.463004474823195
0.47626196982036
0.494194496945807
0.501679349599289
0.515833120856068
0.538622989610327
0.556568135515523
0.570762221023853
0.594714705935661
0.608303420750351
0.629268398072735
0.644456770069186
0.665142342660331
0.686458312695423
0.697879960978906
0.717723683334923
0.739283155041157
0.753811397816748
0.770899695794565
0.783630827023781
0.796888760725698
0.813540508305126
0.825801420490529
0.834302625500055
0.856269982871317
0.861639289646753
0.877290964170894
0.878454851584489
0.887073382008733
0.888698247278169
0.90395053933554
0.901673986207554
0.911790801435844
0.898859812507466
0.905161228000885
0.916543165646234
0.909547635044259
0.913454368360294
0.913254539853322
0.915709560794081
0.918980152961139
0.916659550557546
0.923504882766443
0.915194688186235
0.924606923917783
0.920284541848972
0.924192541581768
0.93218115735163
0.941132039022076
0.955001649790965
0.949782008795632
0.951254266969782
0.968081016169695
0.980140436658985
0.984825108700773
0.993101538987761
1.01507114578263
1.02060913712697
1.03085431697758
1.05006827599056
1.06661619994072
1.06642977524696
1.07898940804738
1.09117779141417
1.09421030507088
1.13085724914831
1.12734790399576
1.13967605815408
1.13723686271959
1.13477085061374
1.14404255236237
1.1321162429786
1.14391709764537
1.13572713384236
1.13004605881847
1.15157346935894
1.11822158328496
1.12283045649468
1.11559612874488
1.13643180727039
1.11907888558122
1.12948216586543
1.13883314142161
1.12911999479182
1.1667147856366
1.17635173307628
1.2010429922247
1.21524710242556
1.20139180312398
1.2329799799385
1.22517957039087
1.26024667243686
1.27329196944126
1.2987902095388
1.29298649621593
1.34094604797019
1.32836741917393
1.35090562320596
1.37350164914513
1.41276017453235
1.39287435760576
1.47839345610988
1.43586569660225
1.4624366407292
1.48017824832967
1.56233003398841
1.50617228645565
1.58090273733083
1.63422114204548
1.68334451657959
1.6759570218174
1.65139709193399
1.67596082116827
1.70897285426967
1.68812002198916
1.73944431741218
1.76041534491631
1.78983163099237
1.75517685924713
1.79241437254923
1.8295697810912
1.90738047129464
1.70575646892909
1.86000297499082
1.75798983446118
1.86712163378543
1.70689062573442
1.72641511831956
1.78827070323128
1.80638234644145
1.77111006002246
1.93534775117858
1.70015165162265
1.79838518548935
1.89434588127515
1.83100648281992
1.78080640408199
1.98361995535429
1.85872615743367
1.99546729145904
1.79317302651415
1.82922988797554
1.82763113762469
1.87329598147288
1.81191144408878
1.95045547516465
1.98696680970508
2.00810489018197
1.87024032621771
1.94460491456508
2.02276875772321
1.98606044539317
1.98739234246278
2.12060687811777
1.96295152621499
2.05828071385801
1.99452448483458
2.60046698368914
2.02642583669006
2.08153641453799
2.19017399903847
2.32258780620127
2.13712544853646
2.37447110373168
2.04989571244634
2.00966562024447
1.97936050724349
2.13344451699439
1.96686595675053
2.66350333983273
2.02834629922444
3.3919689104432
2.25958356524657
2.02245306784047
2.11315003546541
2.00536103110696
1.87124544368503
2.13694269749684
2.02806661752057
2.20568879152139
2.07494936666011
2.0059492046805
2.01333667758569
2.24059105689322
1.80224140036668
1.94296737518432
1.88582912132889
1.89514801840634
1.59996318986083
1.74084945347655
1.6827534063698
1.68100716891287
1.67715548047358
1.66276791948553
1.71266640010995
1.65962548820325
1.61593992398566
1.65478948465537
1.5794545432705
1.63301886182963
1.55913409749343
1.62752555970843
1.56700298435407
1.57814268165735
1.53384072555539
1.54413478834493
1.5266030875451
1.52612176873046
1.48095622115548
1.4478575350998
1.39735620557352
1.42011288262669
1.40508707571079
1.39893177385906
1.35764532100749
1.33299024177356
1.3018550081525
1.25267757839861
1.19750092191592
1.20043154970562
1.11512620460137
1.11250970409705
1.02983234219739
1.01491822428852
0.988112067539827
0.95709441686835
0.916414706311968
0.890810590496874
0.86002013939886
0.843255819701667
0.812276743491657
0.79375655424407
0.771105489674914
0.750969017680115
0.73867052946424
0.720857238698832
0.710592755794092
0.714618597530697
0.714859631817436
0.698350803028523
0.696184069686608
0.690020304009105
0.680973001847392
0.689236998113931
0.678006787034967
0.67584539031041
0.693697270843553
0.696566302664493
0.690915939329115
0.693890304061141
0.687077662722818
0.689177012821127
0.69391245779331
0.685161574345584
0.682316059236199
0.683183932145692
0.663473062270089
0.668275419679132
0.661788662430116
0.664178048987922
0.652613541497649
0.647828125978945
0.643705208007753
0.633623964367104
0.636591125108517
0.637749611943233
0.635361755042974
0.630418649107731
0.637975071031585
0.641745048608299
0.645955564117019
0.645600981571458
0.645623413922919
0.654494144154171
0.652619915167267
0.658690958645342
0.664183574550065
0.670437611306088
0.672633622229771
0.668107564718648
0.678266948522311
0.680027533599615
0.683216812598807
0.681904897441479
0.683334571224217
0.680891983105333
0.690611311496584
0.674670494254968
0.679491848761027
0.679244814163523
0.678238375538463
0.687702418118786
0.69167894262044
0.695180607882118
0.706047993749679
0.712501283489495
0.707340304535543
0.736924098919826
0.741090372892249
0.731192445067268
0.75115975948689
0.790043423310138
0.809319596326582
0.823262648613707
0.834937233387434
0.871295009642644
0.858087883607573
0.84879940184782
0.85030691486284
0.890260679091023
0.860972439353394
0.865558700221985
0.856654449003224
0.854645130074497
0.847267391022207
0.801024190246271
0.822850521145668
0.819363282542766
0.802250538460842
0.807014265163955
0.797333267141397
0.813863178099056
0.803204004484496
0.819241767388707
0.808606445144023
0.821075646378053
0.81029987126838
0.804983083944808
0.799436631324503
0.79915800566741
0.786164319346534
0.771178605020624
0.766773766612294
0.804990775031779
0.776266136895888
0.782233954042976
0.751094396928293
0.785804830079472
0.75735957325915
0.736452770368366
0.74091692692548
0.758339406667291
0.746935940279527
0.754128320054692
0.729967009359641
0.742129968112387
0.725787861891939
0.739052857086226
0.73763863077905
0.727911624037738
0.72886471142572
0.728511573295659
0.709236334211881
0.727112846032083
0.709691287871432
0.711914240426086
0.676759728779684
0.692024005918315
0.716414224006311
0.728363702913922
0.714432017880022
0.723856680129344
0.709358292648809
0.699507151681443
0.707727317072755
0.693109036947776
0.690598226481968
0.693116661935706
0.66428357132331
0.706917083946816
0.672675225108522
0.706621608540651
0.692698032662879
0.690014488090865
0.688827207533727
0.691562296972119
0.687729227772124
0.689295542306211
0.676949759277104
0.691699050701838
0.683544208161309
0.681817037271944
0.682725541083579
0.681442888780476
0.699799105454614
0.692319775116232
0.683642686391849
0.706355793934982
0.688749675056019
0.703310682855129
0.706057324175693
0.711500394336367
0.713886285469124
0.737336269646648
0.710897279027472
0.732899253950146
0.718321478511351
0.749913230894595
0.726131502337128
0.737223802027423
0.734667851644012
0.779581867830534
0.766355713661613
0.765037762646238
0.754401418354293
0.76279599929462
0.758996938555231
0.797082393310157
0.815090894905161
0.806867384321571
0.798390879451171
0.867060916632121
0.865849123712983
0.893753623423126
0.875655099103015
0.916583405460928
0.880289100054137
0.946543024311398
0.946249286862567
1.00832040732228
1.00647557000716
1.09365183602557
0.991166240006461
1.03582714044973
1.06519554255564
1.14039453594805
1.12583529859786
1.11930418368482
1.03161263094889
1.0713045187768
1.06167799731885
1.07540659028374
1.08585588805523
1.15212379431655
1.04911258083844
1.02988992767399
0.9831452179892
1.07145093423342
1.08345158862919
1.06869080008471
1.0190683768405
1.13977652145224
1.07380798594451
1.16034038851411
0.969505418724274
1.01680545633896
0.970369982039591
1.02063764754741
1.05664385329917
1.1054613569441
1.0182730077864
1.0641000490321
1.01563327257785
0.976714762870776
0.995165403327919
1.18455443255735
0.948447088823407
0.99256489148241
0.985352552577773
1.03216498928824
0.990756167824948
1.02267043941565
0.964576832790302
1.02556380902649
0.965683539678571
1.01456098588765
0.941115647889979
1.04566440119315
0.963317011644311
1.02821610732531
1.02964996282717
1.09254679258326
0.93946344196419
0.960915864714783
0.960759926514088
1.14110967635262
1.02452882891726
0.957379030163248
1.06247452634608
1.04454317287222
0.990929346568695
1.13486059531466
1.14265334899345
0.98650850218947
0.957810318558795
1.09707836821594
0.989491798916814
1.12216547068198
0.916727151306516
0.992947497680224
0.909294119010711
1.08597536026285
1.02378717917791
1.14998013094495
0.953010677632
1.16505541070778
1.14186412829816
1.08881948081062
1.16043171781009
1.06927744600761
1.08749239359248
1.46375390204252
1.27982435976174
1.30190300332703
1.27250428418786
1.42518162178382
1.50344681765911
1.3141570301574
1.21646985081932
1.50209056585639
1.161628282398
1.23256307595067
1.23938116654196
1.64986805332337
1.37162707047526
1.36224630653593
1.41724996594143
1.64674290942628
1.2257261362435
1.35790076519445
1.37574101615491
1.87245560555807
1.46973807732729
1.41072175281864
1.05054599665122
1.60497197003235
1.34520593509189
1.32832350167177
1.11956582405829
1.13056112276689
1.03736928332956
1.19006557844731
0.959328372330057
1.00075094579183
1.52958268732156
5
1.36605381247205
1.42253811482224
1.02272694615573
2.13724971286218
3.28201948522519
0.862296393188813
1.0950567118024
5
1.25467206282203
1.38599741991371
5
1.44937586914614
0.900565680989769
5
5
5
5
0.866560605108922
1.01824167307724
1.35081981517212
1.0811676379337
1.47929542168557
1.01321482040104
0.976429417263297
1.67042097300708
5
5
2.7003403618666
1.17833836278609
1.08881609130121
0.620723590218136
0.66777279382413
5
