3596
4000.36533379555
650.420452594757
1
2
2
0.0291991602554989
0.0359598306012429
0.0143420026561956
0.0344935506769969
0.0331452223649728
0.0401133118712307
0.030782094622257
0.0392082543134954
0.0334605592543571
0.0428211712838574
0.0325426790026002
0.028605236142355
0.0369367103813772
0.0300535721284857
0.0298007461538658
0.0345355061324129
0.034733971079429
0.040646553929041
0.0331274274517605
0.0460217999439051
0.0386416306946279
0.0377303167276027
0.029141122638581
0.0404487297863245
0.0319070542739017
0.0349483246965598
0.0348555321044271
0.0416570145485294
0.0306336872753114
0.0390298074112906
0.0322434201778447
0.0438684931866102
0.0311774633994208
0.0343071479720276
0.0344324856991709
0.0372824828907965
0.0275023216666644
0.0393260416698273
0.0300137513874074
0.0375721236639949
0.0335073088546512
0.044832250635873
0.0321508472217982
0.0411052099717759
0.0343597038306312
0.0369737318114983
0.0356319606959351
0.039138161784268
0.0273095229876154
0.0367153594528451
0.0341140333870626
0.0426675308457722
0.039159128964756
0.0422016821576599
0.0440782031432217
0.0489602772051254
0.0331203134993241
0.0421911680627665
0.0404658643333028
0.0510610392995606
0.036877189220129
0.0445184958126558
0.0250594833567505
0.0380133147496528
0.0316563164359266
0.0311398320768372
0.035665483223235
0.0409955354547403
0.0329457615619914
0.0385015210769208
0.0315836190584604
0.0414552048037384
0.0435747926851414
0.0371442475027609
0.0331578226776475
0.0413522587548182
0.0247001348818242
0.0309958255680175
0.0418117893293368
0.0459090363570266
0.0446178827231728
0.043503136500709
0.0283997250929572
0.0372130735633101
0.0398583192025532
0.0433077270014714
0.0341761216874582
0.0448969282570887
0.0410272985404803
0.0404918591818046
0.0405247039338556
0.0387867450119156
0.0342072458191811
0.0355506806623967
0.0359386864409585
0.0368833026433138
0.036317466384356
0.027645496110409
0.0437985861931748
0.0355162374658608
0.0436237677599672
0.0626342992395398
0.0357071986481114
0.0609242343385148
0.0298106184589474
0.0545020300813932
0.0479041947618696
0.0524788393788301
0.036230842531387
0.0336581242019664
0.0336866098377039
0.0276004316979507
0.0403105429536294
0.0278753527406446
0.0453599013900543
0.0585157497151868
0.0518963115679185
0.0406278472958574
0.0283726582866027
0.0239173043506629
0.0423223125359766
0.0459964355466738
0.0374131380751946
0.0362508039193931
0.039495541675369
0.0333512401766903
0.0419285926710151
0.0670143256099944
0.0412626214738114
0.0384271423983417
0.0309275456210158
0.0306262137424753
0.0311861047789399
0.0482343946554356
0.0330154456776147
0.0394535964649367
0.0241346765390624
0.0548117458011481
0.047370508746814
0.0498282971996287
0.0329040393877367
0.0382788609080513
0.0409320159666748
0.0617942385070849
0.0506691990103902
0.0346849222215925
0.034713595646509
0.0490514224381894
0.0365011482972024
0.0370623477391483
0.0310389562027824
0.0417543327840203
0.0341058418901463
0.0343543901968089
0.0564920000182653
0.0383282691128395
0.0619866832870114
0.0753709312205859
0.0266416634895404
0.0626186535368321
0.0195799879068146
0.0493007280875257
0.0172764528836238
0.040248551658824
0.0250098881529917
0.0518483305738249
0.0343853186875093
0.0450138647599452
0.0330984791309223
0.0502030114379777
0.0389081706679182
0.0397004366751589
0.0603179124430897
0.0432949294691602
0.0381271945757214
0.046603987870755
0.0429978569756481
0.044210584947618
0.028930634600869
0.0472716445017083
0.0298107321354441
0.0406250467095884
0.021076152189917
0.0482892067345567
0.0328281624204909
0.0472777152237824
0.0318757284470366
0.0385941144818699
0.0356920940873764
0.0510517375609094
0.0420430679761264
0.0662733827516167
0.0397693940191325
0.0438295097765959
0.0101959397711202
0.055775885096745
0.031766641381226
0.0516885940731042
0.021870888335183
0.031204268286727
0.0291101095622782
0.0334280269701072
0.0279580651654624
0.0414780064663809
0.0234360430114994
0.0591901195697485
0.0277817451991708
0.0506814809698298
0.0180062117280746
0.0389333018649945
0.0321847031112255
0.0759218983443275
0.0329341010641692
0.0551874075471909
0.023281504661298
0.036003564980172
0.0384072067044728
0.0469641871856423
0.0338499228145339
0.0405837843911839
0.0255995077291643
0.0420621840489617
0.0259026809524443
0.0317386087957687
0.0255990448760058
0.0294907994102515
0.0267427738326283
0.0376145123781319
0.0238162868665015
0.0363578410479317
0.0339491219498828
0.0414719219956426
0.0241152918253429
0.0270216234135311
0.0282388253027289
0.0491995070742211
0.0377103604210405
0.0460664312596919
0.0271286829693227
0.0379660772549819
0.0179801015076642
0.0437039079328221
0.0280945386241044
0.0406215201898871
0.0226653405811264
0.0598724620629204
0.0199959491874758
0.0541473067657844
0.0164777420697458
0.0552287239219868
0.0258404735659865
0.0460181905690345
0.0215953942737803
0.0448569208889899
0.01843085163624
0.0389781578885949
0.0371382271614923
0.0512721138615223
0.0349803004010298
0.0461730362999385
0.0319614294769706
0.0444141478225753
0.0331477336139346
0.0429972264729987
0.059233934603815
0.0435464105815213
0.0420432284303083
0.0601922436010792
0.0261881932854477
0.0576612375270505
0.025666377575293
0.0408025210565221
0.0770178199949363
0.0664129818571905
0.0507241609568878
0.0352938485142278
0.0377399979662843
0.0396930552953459
0.0364522106479773
0.0351461008290454
0.0472130160195136
0.0569354904566283
0.0496216068785247
0.114792908871561
0.0261128613711543
0.0740227141881851
0.031579132362369
0.0553975559831283
0.0254862201662341
0.0446749334082307
0.034433158051942
0.0554032037014497
0.0366684091433882
0.0502112766452553
0.0410904091132944
0.0464801637095504
0.056352595856701
0.0497309583325043
0.0381188695032044
0.0407678517486915
0.0468596686734314
0.0377917355412958
0.036314263617595
0.0345119105378584
0.0389024510931211
0.0406681256751144
0.0366911249309095
0.0690377404822485
0.0333294101120164
0.0478641392791206
0.0419345166654664
0.0428539366967399
0.0355858260518694
0.0388963421284149
0.0337021070059104
0.0408150433594036
0.0374672014432709
0.0410101832289861
0.050892093011751
0.0459648104044561
0.037910454805749
0.0381883224695289
0.0332255462169078
0.0431149882340291
0.0372107873568187
0.0385667936589191
0.0335995870721593
0.0493968436520915
0.0346861681572218
0.0484090116114257
0.0543534532099822
0.0455423715940825
0.054922054667801
0.0621236956752409
0.0393875758530997
0.0477222061939033
0.0300829644641285
0.0476841084325551
0.0318282205550572
0.0506202155858902
0.0316594647593004
0.042668818648591
0.0446904970579275
0.0631676432442279
0.0385073458494527
0.0534364054125097
0.0500071996613327
0.105035153600029
0.0489491287531929
0.060377028253646
0.0293970648336975
0.071980417499184
0.0554268537907569
0.0679135079609184
0.0691635262153043
0.049311657803792
0.047535470540337
0.0467794105398866
0.0462100206211299
0.0384296008316917
0.0475946253949017
0.0452960702256556
0.0448298909162339
0.054430449678513
0.0450186659115399
0.0561657581669064
0.0529509536746763
0.0843219243590496
0.0591439629243491
0.0572302301573266
0.055284010624782
0.0534736486548789
0.0652521134215947
0.0771997154924055
0.0729390724434061
0.106326717444314
0.0625585739178201
0.110844034065195
0.0582858876668532
0.083052032338002
0.0520420106637788
0.0748598734463396
0.0625213523593586
0.0808420708633114
0.0601188544818176
0.0743649384856345
0.058189960200928
0.0755530098877057
0.0664751143615355
0.0881387079287218
0.0649050305982043
0.0891476682962279
0.067783476854763
0.0939078381105456
0.0645968285798896
0.103410239395011
0.0969946843893142
0.133159175700532
0.0826025399122147
0.0911259806406595
0.0793985651057216
0.0875575581104072
0.082316839323072
0.0900128893226391
0.0905765662375751
0.0905599139949659
0.107986717608258
0.116984172302675
0.10652160676061
0.132143073877421
0.0854999460794265
0.12326478519457
0.102942238585032
0.11462989579555
0.106655916631784
0.124807230973644
0.0867825939131487
0.114251070960527
0.121375646234503
0.111354071742582
0.123756328077982
0.118838582414062
0.117858268211532
0.116163420131895
0.116049019575083
0.123392009316097
0.113064690411998
0.146810547692918
0.11722088896258
0.13469839080574
0.121480354464964
0.127768379963954
0.128823292376975
0.148405072264568
0.129262074643333
0.154643972179827
0.117300653175617
0.151706913030119
0.130869583602617
0.154375073285526
0.1561182350243
0.151375961634988
0.159477404382453
0.149934187782712
0.150952718150316
0.155487825569891
0.155796807839017
0.162492497613038
0.148774415803191
0.16712104907822
0.157009078082407
0.165284373685163
0.146889250779405
0.170929867580068
0.171513476152244
0.174374792509486
0.159027631507547
0.182266378185581
0.153962552545192
0.197036361905506
0.171356809600323
0.20527342573198
0.193162402549937
0.223318662952877
0.198654322742244
0.197079428815381
0.19654946434886
0.208931964289607
0.194344297275354
0.192288974996084
0.202078642800713
0.224154536522699
0.202986882290081
0.208919406087867
0.208514379390198
0.22137914824855
0.197880297311014
0.231999322965292
0.220321945482505
0.253770771764551
0.223016873246271
0.234710302474671
0.221761128107055
0.238836454752008
0.228429827833813
0.259618562459664
0.23751591716815
0.261382119787892
0.237748564392493
0.264970315522211
0.236706551541472
0.255952386619946
0.253427007155921
0.28462872539331
0.255654041385799
0.293941428108078
0.259929954933682
0.275918756528962
0.256727790622288
0.284657635674371
0.24987380242493
0.29076168776846
0.266960584063545
0.321480244664772
0.283307924085218
0.294179710497244
0.29862482011707
0.30166002478897
0.295395807572978
0.309604430087505
0.31340398475322
0.32874968116469
0.291552258839248
0.327168346902634
0.314192575872072
0.33445590022294
0.310593463947565
0.351295530237952
0.306435686758793
0.334797299189748
0.329894654774873
0.355595083681316
0.33119812248434
0.346542942475682
0.335191347157187
0.377366439146624
0.342778324384598
0.376537025888918
0.345530169012885
0.370865008253921
0.340345071163209
0.379867960657842
0.35248097465999
0.40807349014532
0.363921158221857
0.421566200713368
0.364429583617906
0.399950463782847
0.374611128885715
0.3944608978497
0.384841999922425
0.419014565477004
0.383791774249733
0.418567768260929
0.400602536958853
0.431218916618102
0.395368240479075
0.427253189011077
0.424897106599361
0.417811779768264
0.394733649933799
0.427974796803796
0.409925710801663
0.45838151660502
0.433465011313667
0.459693648138921
0.425865315457065
0.46920650630206
0.43253221989526
0.468425275388072
0.428249801660511
0.475771816980061
0.42758520201573
0.477005076388499
0.44651294055248
0.476968479506645
0.44062259756071
0.47050622194882
0.461142204199605
0.501693655457515
0.485478514147619
0.50105308219388
0.467454650611734
0.504887455406473
0.474879249656692
0.518283083551895
0.471756635882685
0.5195955555328
0.478342946245188
0.527735789756042
0.474938205779847
0.530638685582036
0.488948946723452
0.540451792957355
0.495021870339394
0.543305984122656
0.507958061501957
0.527059669143277
0.506470516425653
0.5537788512108
0.527091210086701
0.546245125755828
0.535043976699638
0.556409526261965
0.528258077216131
0.562008349156653
0.522366180866469
0.568466965990676
0.534224300570088
0.586557811781037
0.543423113481081
0.575599677317517
0.535920684552631
0.576647278064103
0.537156306201645
0.568903691170211
0.558216814033669
0.591161045524581
0.562196629936566
0.578468422508685
0.576688867286962
0.629620187025836
0.557162976498943
0.611674549273766
0.585463362476402
0.615710478255023
0.572692434508884
0.620911317628552
0.577521003746
0.605479846497252
0.578640073910419
0.606819256188545
0.624155614877006
0.660494991722056
0.618350622504013
0.648079125848497
0.576960327344098
0.652753758530953
0.611524820742305
0.662448397818339
0.586307838196645
0.649031303949671
0.599911260998704
0.61964914814187
0.625773746796557
0.655682417395181
0.59051678451583
0.650272263792744
0.612742585160336
0.673758828446807
0.626538650789648
0.667503500024078
0.626635109859831
0.6593777211635
0.663471269485485
0.673472777958524
0.658172107989486
0.6963008292806
0.647397039027395
0.666822578041744
0.645692646655719
0.703169622292015
0.631874058564836
0.668459158156292
0.651463802831101
0.704203557772067
0.673706809214435
0.709219983709867
0.669805102497857
0.679794410938206
0.632005075579036
0.696624439047089
0.661481471613974
0.697589564498724
0.660293637363239
0.695161382218598
0.663086925173004
0.682974347040743
0.652601103716477
0.702423418309508
0.653474905423436
0.710932855837293
0.65443631091089
0.704887352343518
0.656826483371694
0.674485358412032
0.650450170249462
0.69971013884361
0.652573451473421
0.760464303195785
0.665134696797813
0.702169663049586
0.662948589429176
0.750104423839473
0.677307484014812
0.733558422826314
0.697416579622155
0.697581138262555
0.669591910989569
0.717626941453083
0.687777049980598
0.732962208759069
0.674579774102409
0.721540288029456
0.680220109041895
0.697155844438641
0.688099998117234
0.737556689877824
0.661718313313924
0.729901393333516
0.67366484917605
0.730435093132909
0.695546669133244
0.737316899537442
0.676223306454017
0.781468638223993
0.668612040562689
0.72377705777966
0.649083493534612
0.745177855230946
0.708406030967903
0.709040688587672
0.693859897060859
0.739735957881683
0.674074852383948
0.719786571388128
0.690598820402101
0.740819288824153
0.668490338136528
0.719591389313247
0.669212569146025
0.732548835972342
0.695558568194456
0.727013960861232
0.683345240477077
0.705086986796916
0.668610911569412
0.717009229128956
0.679927537278964
0.719555858225384
0.680834447190124
0.735175637417764
0.680923171219009
0.706532140483438
0.687871588825583
0.709499540532908
0.672248113880605
0.695609674435158
0.663904824222619
0.732282358358581
0.676108815507103
0.724364953486782
0.677261564461521
0.719896001548573
0.688832942778287
0.738828160221684
0.683782386410844
0.722012179129738
0.677801595678126
0.709568856448957
0.675814486496158
0.703972190958419
0.687185107059804
0.686654968379664
0.666378935457198
0.690144610278452
0.647873297146327
0.701951974784981
0.665077828866394
0.698987156917589
0.694409714664923
0.708394382965439
0.667452101538965
0.677113336616165
0.655313894367885
0.685788987079135
0.645137206999677
0.695555693441391
0.643311026838956
0.682024729342429
0.657712760023324
0.694117294096043
0.65742078040844
0.691043118055533
0.663674805462856
0.686314054725705
0.632559725543862
0.661803704281209
0.655804961893001
0.658951600079634
0.644299018011774
0.663956604550565
0.650440621635028
0.665389338317002
0.636145738435034
0.657992849753686
0.631908955787697
0.671210071723962
0.660368870932035
0.657968744139368
0.64359377557873
0.674228871820752
0.643211429982734
0.661962648844519
0.6186109861834
0.654828525288712
0.628489473144205
0.652038781192334
0.622120930384411
0.642235055219094
0.622511735997247
0.652951749823794
0.609719904671472
0.643821706217977
0.621497355622348
0.662515370488467
0.60375514512999
0.623764894280025
0.603630775542888
0.637154471158341
0.599965788627156
0.617749779178931
0.606180229358866
0.612377730103625
0.586681175779267
0.625212058709498
0.600806031889458
0.59868093385121
0.586118704017904
0.609930602804877
0.601253923877999
0.586979010932296
0.571092549980622
0.608869758876058
0.578629334294123
0.624918237620156
0.585173458367014
0.587289959430011
0.578490096848639
0.587887363042827
0.562629299893676
0.5716359429539
0.553048789856284
0.587393776959193
0.55927905940757
0.578001543725323
0.55085909727802
0.568535887769485
0.563646044657525
0.56797273892337
0.537973777648146
0.577637816934258
0.547916715797418
0.549679592973263
0.533255210308666
0.566005402243284
0.539434040366781
0.56187283946627
0.539477289023741
0.548726932462764
0.533744140989742
0.535117349885322
0.5370887322375
0.536085722024109
0.519866067925541
0.532238532110988
0.517147068679574
0.534879400155191
0.516525758257069
0.533380460515152
0.502076420747042
0.52521465149096
0.496958323894867
0.5247067588618
0.494770798010028
0.504187485164269
0.498943816048306
0.505801269154618
0.493753153747904
0.506308491055911
0.489223614015732
0.493569864366595
0.478326505325083
0.481997615849314
0.49189470924986
0.497593991766551
0.467482538240358
0.48486912635557
0.474902732485524
0.480305193019558
0.466985798136862
0.489457675211362
0.464012525414919
0.484748525469745
0.459938886785948
0.465552484423105
0.45993740998898
0.479605929499559
0.454753506939091
0.459748359830225
0.455001227824266
0.461663417173236
0.438559502440055
0.442723533063222
0.436363159541456
0.44055130221778
0.429794629468537
0.450270497377535
0.436796140416753
0.437673445244715
0.420439026357144
0.426291907158682
0.422030812902544
0.421813913840675
0.406704159846595
0.417622061818295
0.415608636250285
0.422379499762581
0.408978987320384
0.414761673987443
0.398223428896093
0.416051138339185
0.410913852778755
0.408434295115804
0.393109378262713
0.409372283256936
0.393145774390184
0.397683640295718
0.39068397184936
0.396977545963899
0.386854373892731
0.385903348477813
0.370246908589542
0.383459282146681
0.37271627707857
0.387997689718659
0.369621337552094
0.38130635300986
0.367677356807826
0.372551811766123
0.361178093913235
0.363676055305282
0.364430090407947
0.368065278828237
0.349437528066708
0.364888115342175
0.363276685355294
0.354713928330244
0.340580568786256
0.359730882698022
0.344610909820311
0.355298750471754
0.338172189443117
0.341531106927853
0.332019914167998
0.337855075377746
0.342529346979365
0.345188816159885
0.331672225833828
0.33904487463599
0.329870764744821
0.333500067397859
0.322089908936456
0.32740158711605
0.317009420625133
0.325192955146296
0.324893683039037
0.322552572233978
0.309577124406111
0.319137334878416
0.309723902786807
0.313331715438429
0.311248184574009
0.309977182591291
0.302350511730001
0.31324758605693
0.307697834539965
0.302106585419613
0.297893112348898
0.30633911363763
0.300354801069897
0.299236600694413
0.295568841103067
0.296601824097122
0.290810490967655
0.290793366018766
0.287496977802319
0.289823050068505
0.284757815650635
0.28550072127753
0.268523395517889
0.28118128873473
0.276339529033838
0.280445561794641
0.279516812205577
0.27338275534291
0.271843568066239
0.275045007153293
0.263456531715328
0.272818218058404
0.266172434019886
0.265777737902738
0.266722116889004
0.267117554240071
0.253233560878239
0.264437947447503
0.255939451373243
0.258706739609844
0.2545176590967
0.262660320585178
0.25217844046748
0.259799846300254
0.247252337478801
0.253777789320802
0.25012484418726
0.248017239600764
0.237337505343687
0.246351046363848
0.24121755853088
0.243565898465533
0.244834694428569
0.244236658008989
0.233424606932678
0.232910878216606
0.23007928374017
0.238255814563849
0.230564286852567
0.236030110576695
0.233054612281756
0.232725697214221
0.228107737887698
0.234074672324231
0.225119817091642
0.228480797560273
0.220949061726496
0.220184249303497
0.21748721256813
0.221124231420893
0.217544517575146
0.217112663912967
0.213958121348259
0.217295442163111
0.212791881648522
0.213042035893532
0.203355676295511
0.208146800221609
0.208053382219963
0.210669382803642
0.207364621759085
0.209708351248993
0.209658084470944
0.207361949374913
0.203184966760319
0.203353997853094
0.194078595253797
0.199685348586597
0.199228430315014
0.197852381928102
0.188708675919024
0.193523452839639
0.193151097329615
0.193747333066714
0.191468729797361
0.192866881983764
0.18633006268643
0.192428777416727
0.182455266474398
0.188731215389271
0.185859093794972
0.189854456188614
0.185066770583147
0.183540534373335
0.184777021758933
0.183841342244235
0.179316363479053
0.185419163347064
0.1800122416403
0.185629677585908
0.183028402308504
0.180831287368267
0.179948994024187
0.179586650775819
0.173755589767786
0.179060504811756
0.176000811853579
0.182723690295399
0.179293484028638
0.185099477899213
0.179437323674519
0.175777674834787
0.174768042632552
0.181635816343366
0.176609537414155
0.181237751507559
0.179534643239137
0.178144176831135
0.185476074035056
0.184803353421021
0.179286188193048
0.184034666029795
0.176948111179954
0.1846956922081
0.179380563384098
0.183144222380427
0.183114127223011
0.192237410690407
0.188812863607293
0.190529669604047
0.187081852907842
0.185470558307486
0.187215288591519
0.195329796247592
0.193103829962295
0.193937004114916
0.193110745499223
0.196231559998312
0.192499568499986
0.201798403412112
0.201139281690004
0.205453910225559
0.204464020801088
0.201612121114219
0.199335517342511
0.208055761887293
0.204419954070611
0.206706465792768
0.204145921291851
0.210198986729185
0.207865994107941
0.212704371648251
0.212103508998953
0.218392783398467
0.214257076846433
0.218171864697192
0.220717021548391
0.222937304081135
0.225577905393174
0.224818716713332
0.223411570761426
0.227979256785571
0.223323519858729
0.226951268957264
0.223483867158257
0.232044062781775
0.236367079245677
0.234279580774145
0.236008770633707
0.241822902524563
0.241247511235582
0.245968958568916
0.245894747018742
0.253204074798456
0.251148283993708
0.251180955511718
0.249393579076489
0.251492492567416
0.249385720401573
0.255008705814867
0.2630772756916
0.259043684698995
0.256430102057989
0.260492375655826
0.251750732703591
0.255415618273767
0.25732953977162
0.258519440586474
0.255281361523654
0.256730466509532
0.255699566049706
0.256471764146685
0.25428367070616
0.250476388269371
0.249357899933442
0.256077207945337
0.250271429777749
0.246569537971782
0.248656988197265
0.251035348007684
0.252178709853474
0.250227923091599
0.247682168581637
0.248086214510213
0.252620222610087
0.25459524226569
0.248682064524043
0.251397760725344
0.251411944605818
0.251235874488304
0.249354788250145
0.245983956180895
0.245680207128773
0.246352169824758
0.248748771960013
0.253370555215255
0.251858439039814
0.250816869161079
0.25407087926022
0.256982150572495
0.249480936487636
0.250883262004617
0.248197822396346
0.248443366448686
0.252946707235138
0.252119983263798
0.248085240887952
0.247429008007093
0.248379339896441
0.248313087436431
0.245659195144297
0.247663855842478
0.243981095905016
0.244984386817337
0.242052979930939
0.239044169402679
0.241328764824058
0.2460911906663
0.239667663872098
0.230110101213815
0.235894584442008
0.238161286897113
0.234795368254012
0.239637308650181
0.235857956646652
0.235178961022637
0.229312951104365
0.225960009937078
0.227669726335156
0.221394439441755
0.219499266414717
0.221269185892096
0.22233753340674
0.221900025835186
0.2150040983593
0.215279509273541
0.214292385122006
0.210043585329539
0.207288897312956
0.208236829262563
0.205623100700928
0.199589763491614
0.202073246037659
0.200165792627939
0.194713495129061
0.196454905046098
0.192953616679962
0.191636512998874
0.191819069977003
0.187283830623756
0.185952844022706
0.186321983803739
0.186210541134718
0.182812371185345
0.182895680099179
0.18030123533619
0.179795593945031
0.178232417432934
0.173251854183254
0.174389777110726
0.170946538544821
0.172186205867297
0.173160768975673
0.16426755612742
0.166585917743027
0.166148872851798
0.167044351210021
0.165476934444947
0.162558937917729
0.161224126332336
0.161540977544213
0.161598473987687
0.163149662950277
0.158398540341815
0.159725047470256
0.158549493144518
0.158366188621457
0.156389591197269
0.151304620693559
0.155876017659301
0.155354510655394
0.150820617116812
0.150272806589989
0.149861002877859
0.152439123119614
0.14693036571891
0.14824582125611
0.146976431149075
0.149150848926579
0.147928385956071
0.145909160015846
0.146475124371694
0.148102368316012
0.14190977864823
0.139463097389236
0.142745458779829
0.142934498938681
0.144206011112627
0.139309683928204
0.137749462710513
0.139511071311619
0.134534163606403
0.140096597539969
0.137480293385216
0.137861466028548
0.138719818428328
0.134289405936582
0.135862824371091
0.136132665935656
0.131046530217594
0.130958138315205
0.127773456383789
0.131824058311948
0.130252040702704
0.130728792204549
0.130048843306998
0.128464842623953
0.126892781399698
0.131452112179556
0.12726117292396
0.124740097088886
0.124165319600034
0.128353696765182
0.126847445149405
0.122642066479761
0.125624602135052
0.127519284962159
0.123810118045283
0.125068174352169
0.123457529037816
0.12512386558107
0.125204589201608
0.124990476618189
0.121930245136235
0.122529086560966
0.11774058332045
0.12214424945496
0.121318443338086
0.122594675761226
0.122654169715229
0.121115957640633
0.120358746016813
0.121750380957656
0.114914796843025
0.117849797434822
0.117183984518112
0.117634471143552
0.119477396013867
0.119517901843204
0.115640792658308
0.115632198778698
0.113802021383332
0.112945845821732
0.113072948394721
0.112274180275845
0.112350325675601
0.113295022866845
0.114218978433717
0.113992714756653
0.111633226387368
0.11600897964869
0.112884541309113
0.116745130784472
0.113299626145826
0.112403828254336
0.110806838033123
0.11308896674834
0.112078888803461
0.114034676805457
0.111964152512328
0.11319980825062
0.11136498095545
0.110560090122244
0.108226797944579
0.11252401934583
0.10841098946496
0.113368711232097
0.112344637700862
0.107763929440174
0.111465199939444
0.112868684834361
0.109246352043285
0.10993890184793
0.110128420646523
0.109494569816643
0.107285817210457
0.114864707229772
0.107776294172151
0.105962257789345
0.110186336512629
0.110288299930259
0.106352836183985
0.106265654009309
0.102019899181386
0.108334694325783
0.107067174522348
0.106439881313406
0.104053957978664
0.109227094378255
0.104968596883581
0.106932297144264
0.0996516694093379
0.102778594131437
0.103531340228704
0.102127827398707
0.102251718659291
0.102507776948351
0.101679198613669
0.104895277625179
0.101592819288442
0.101597560519388
0.0976468478461092
0.104295143845928
0.101814663122308
0.101798208600846
0.0984677915448211
0.100303585556941
0.0954435675649252
0.101814513645191
0.10036506448854
0.0988463202459212
0.0975055345797722
0.0964148384042588
0.0962216836366548
0.0991160300179709
0.0952507089806529
0.0990220594669295
0.0932811478620036
0.0960348617621475
0.0919652832507991
0.0966097536575257
0.0955820678999651
0.0920278916599853
0.0916710833383837
0.0930992157544463
0.0929911491400745
0.0947663556906388
0.0907376565319417
0.0945239655342252
0.0923163491890576
0.0936241993071048
0.0912421718875206
0.0921115759818778
0.0876150149924264
0.0886112088360408
0.087966225713233
0.0930796991016517
0.0915177563248779
0.0928496436436191
0.0871808439772704
0.0892649237383377
0.0875282951114595
0.088765960525175
0.0819827422910856
0.0864871490784248
0.0876514540092634
0.0838812374973849
0.0834192567352873
0.0876674918796203
0.0806333752028838
0.0827756938397056
0.0826955101491056
0.0831797487716004
0.0817164900648668
0.0869416895888057
0.0847279932232415
0.0823364463695486
0.0759549979712643
0.0805931047875012
0.0813961390072067
0.081630247801558
0.0773347314447494
0.079293597536253
0.0762517212424109
0.0810878373168996
0.079071737388876
0.0785556694817503
0.0777582020145308
0.079152166249049
0.0733124253679977
0.0797230179860118
0.076766299191821
0.0782483505185437
0.0750222786320037
0.0750638583696272
0.072756727286835
0.0743779524943762
0.0728506897074733
0.0794494311925574
0.071218778919307
0.0735534263131017
0.0719784542028899
0.073936992180227
0.0721983077674373
0.0741567823603647
0.0730681660568958
0.0725010416291551
0.0704664296855228
0.0740898175344038
0.0701344338643697
0.0699939023987768
0.0688489169830416
0.0731536517630825
0.0687173261860794
0.074944330607814
0.0680144763505301
0.0699788620744199
0.0687702844738522
0.0697847533374209
0.0640404225157298
0.0708897993735576
0.06595167880067
0.0711112709844401
0.0708225844437627
0.0664892654504762
0.0651340892680641
0.0717230625027851
0.0671870224180222
0.0662328260491129
0.0638383388071595
0.0656961966986841
0.0660940467999706
0.0677103370381486
0.0643445359028462
0.0667360994065875
0.0644449007671324
0.0670328832297637
0.0657889478526082
0.0672637408998441
0.0623833519444423
0.066826384641827
0.0641860169807502
0.0655582348668838
0.0611243151794204
0.0638176977599026
0.0607728306338309
0.0670342317893814
0.0628048821602138
0.0638062291109573
0.0611858228128578
0.0629564636681177
0.0606525292318412
0.0630015453041598
0.0606819400600846
0.0627944121797296
0.0608720041942118
0.0633542939666322
0.0583618928597044
0.0605019875389575
0.0606457928241513
0.0637163306063611
0.0590383867187721
0.0619030390233223
0.0601391858278201
0.0637689928228692
0.0592705713991028
0.0624239477099916
0.0566178245690219
0.0596239247209039
0.0589901410692048
0.0602940006196682
0.0599355255511028
0.0615132462004211
0.0593275250120426
0.0629123675777924
0.0561000072829959
0.0594878935903631
0.0583781461617473
0.0605054813968873
0.0594668600458162
0.0611103506027497
0.0549035525492646
0.0587465549170551
0.0575176713348332
0.0591223624220248
0.058936594460053
0.0576110102611199
0.054820407713402
0.0608986927728471
0.0557883018411783
0.0598034514190685
0.0572072007724232
0.0578039466829975
0.0564198569772571
0.0588372016153471
0.054801432510234
0.0565996119139698
0.0560299220324221
0.0573652126522881
0.0540772911349346
0.0555246335752778
0.0527554111903467
0.0563937599618989
0.0571674549945517
0.0567156155273016
0.0510002405675935
0.0556035990899661
0.0500989037931178
0.0545142992237731
0.0533403605407322
0.0551914835149153
0.0524287769561171
0.0547529675033221
0.0568814936675206
0.0567848392549364
0.0531374645672543
0.0574053972527231
0.0512392635122028
0.056007569860591
0.0504679846544741
0.0535732974610781
0.0525389471210391
0.0551982051272443
0.0505423559043758
0.055684016684635
0.0513608410414338
0.0541522157574797
0.0503994987834346
0.0545942456906386
0.0515600991499614
0.0551102541720806
0.0494569862480766
0.0525086074276035
0.0499988346975135
0.0500463633991046
0.0484113330341411
0.0541240796838959
0.048809212384401
0.0506353996849252
0.0495117237247604
0.0526112463983618
0.0527655878204718
0.0527119059490091
0.0487152715017854
0.0501058953035602
0.0478123674078952
0.0520325924382558
0.0508461474593159
0.0537723012614725
0.0484058001116235
0.051452595329849
0.04999539452566
0.0499561374770546
0.0463423772893675
0.0508517533856077
0.0460411582095115
0.049112564617102
0.0480992896082335
0.0478173488033339
0.0485004372129819
0.0505853773919805
0.0445127458980261
0.0494382411195988
0.0443370972414489
0.0473069694982244
0.0445242770315285
0.0481510714644543
0.0452800668898585
0.0465674327679785
0.0435241793350579
0.0463413510941659
0.0416987405692423
0.0464947754208735
0.0427429434415718
0.0443871934087916
0.042011313652193
0.0442067641844067
0.0452784407622773
0.0440558928765702
0.0449214274509587
0.0467905257441744
0.0429031331844444
0.0435529699429045
0.0406960043618168
0.0438307277066584
0.0403312897599201
0.0455294185131046
0.0416372581332215
0.0438293395909632
0.0429360217038529
0.0446923180374713
0.0428377908338681
0.0435297316142021
0.040717622598405
0.0446652818222239
0.0405247703956353
0.0442909683798309
0.0396336448392584
0.0382529825092906
0.0390726293335951
0.0425395590941033
0.0388967946530813
0.0437984843289089
0.0419484940314772
0.0403129052728508
0.0415657299694317
0.0405123331432519
0.0376652194384315
0.0431215441804376
0.0381737486602387
0.0408588877778102
0.037226153313081
0.0425639318561588
0.0399257087461325
0.0403764108661485
0.039839794209495
0.0390825103456315
0.0385361811471063
0.0419555623985051
0.0380681751679691
0.0381689200336306
0.039578394584081
0.0412657999839969
0.0354328358130989
0.0403231481200673
0.0360994482105093
0.0405962309075583
0.0380607924663244
0.0368769961660829
0.0356608438142928
0.0389362977231267
0.0363444599133417
0.0364523799093471
0.0351020864594858
0.0359119699502217
0.0354967858756275
0.0393377256437435
0.0357818860212156
0.0367250828584359
0.0369773834573993
0.0390961911045817
0.0339280274285194
0.0365878875976233
0.0329749879327353
0.0356705090681252
0.0360950391240551
0.0363780843029303
0.0343190302026749
0.0371984193553851
0.0330606351894662
0.0381968119590757
0.0356630570400403
0.0357033789417844
0.0343953264894805
0.0364846980503709
0.035360970777078
0.039730802506737
0.0353377778295397
0.0380075605959227
0.0375237555799952
0.0403995990412516
0.0392675405937108
0.0421100657545833
0.0390729619989174
0.046969638911511
0.0424398109946742
0.0493144015991857
0.0445591065087957
0.0500738166646913
0.04785377225383
0.0486004871915765
0.0424455754543298
0.0403634206799035
0.0414736697578832
0.0507961216186264
0.0476628812290296
0.052033313237665
0.0405981412153282
0.0476636080441001
0.0480759600811205
0.0426555633331343
0.0476573551020861
0.0495086406907247
0.0393178200594959
0.0527509627001837
0.0430612254558366
0.0514894547549697
0.0430388657584103
0.0491418772917922
0.0504345133270829
0.0427437047926458
0.0448709606931467
0.0423606965932535
0.0404239229859045
0.0365723271595092
0.0485298826361339
0.0451612056249574
0.0444294116934094
0.0417107212575797
0.0445249369524101
0.0404652000335269
0.0457288322894227
0.0431337145755253
0.0500775187495663
0.0404251371254612
0.0560412958876316
0.0415593543139487
0.0448857106789277
0.0341675932948502
0.0451782634304391
0.0343838749700856
0.0473925595072661
0.0371131116035138
0.0591164688682084
0.0373683228322231
0.042004455697893
0.0325816768402741
0.0454378895869088
0.0411789122485311
0.0530184292936898
0.0341881249953025
0.043000250922983
0.0384136338848067
0.0529862675123789
0.0370041833321229
0.0362219901072033
0.0480451851038404
0.0368387690711634
0.0422842995122232
0.0327629397504383
0.0479754002359692
0.0273467658947944
0.0553424968422296
0.0298581098196933
0.0493596117364424
0.0279124074633562
0.0455288920661422
0.0317251398054956
0.0431054514989534
0.0324969505314739
0.0365391836638713
0.0343103670927442
0.0355855453075082
0.0317453899631999
0.0345566098429292
0.03330348571898
0.0368789042364445
0.0312460599540699
0.0357342953976477
0.0310253678279149
0.0356458721932633
0.0275694021492608
0.0369753099426516
0.0298038415111204
0.035260020794489
0.0299037053716784
0.0354679950560406
0.0287163986386139
0.0339994803270992
0.0274051737814265
0.0351076488317888
0.0279746356072388
0.034347669142346
0.0276615044564405
0.0341412036792792
0.0281921437808538
0.0330314888828674
0.0284429351579609
0.0321634288868745
0.0296736346360625
0.0340731196090011
0.0277980575145401
0.0343724526170571
0.0287283418476975
0.0337868816538134
0.0289855939066993
0.0340699778710006
0.0280293172926791
0.0322249364866106
0.029695957827055
0.0339336237115057
0.0299604631253796
0.0347211730757148
0.0283992617862621
0.0331451612593943
0.0291153989681839
0.0321682889722521
0.0307006121660545
0.0320723544070308
0.0279708887356061
0.0326687264009938
0.0272246743818355
0.0344098491103084
0.0306020819242076
0.0343009954275595
0.0290463514833872
0.0315839312757613
0.0281239175459087
0.0316374100149232
0.0307161852020438
0.0320319997974059
0.0279754744679191
0.0316233166320811
0.0281216469298637
0.0337161592047993
0.0288323858673667
0.033414730753535
0.0271260503316933
0.0315301930444524
0.0281628139228177
0.0324820554862588
0.0307445254061032
0.0320313357131523
0.0307377993780797
0.0324594111612051
0.0314508215999958
0.0313157046618559
0.0291360378302725
0.0330936096543505
0.0292007772111646
0.0336383733753678
0.029013172389317
0.0324297831312811
0.0306215596148764
0.0328682599949606
0.0282447491754831
0.0347013113131006
0.028622745414879
0.0327877690920062
0.029825028925043
0.0345847204213103
0.0299362275465228
0.0320644045333829
0.0309720154186272
0.0328714321674833
0.0267395269108889
0.0323206684983897
0.029843734073512
0.0349551062292001
0.0294724992144702
0.0354115375081381
0.0303879074442523
0.0319507383462973
0.0291525964202504
0.0331143698396274
0.0300893334883031
0.0352626689234844
0.0283400186191167
0.0331458870537907
0.0315283761361475
0.0339796126286959
0.0287472458684067
0.0319701405694872
0.0287793427924869
0.0341857757019289
0.0284638793991341
0.0349693736021263
0.0307446654811722
0.0338098953214952
0.0293261338238123
0.0339047859670105
0.0308294174191899
0.0341633017731674
0.0313636319043533
0.0355317721389623
0.0310347907500411
0.03480705372144
0.0304945134990837
0.0320353072507968
0.0316472975559326
0.0318351991852044
0.0285603526026437
0.0325396766372465
0.0311853046389612
0.0340962337216263
0.030742656961496
0.0343175448191391
0.0287693739734909
0.03529526268977
0.0316095560237327
0.0338017740385084
0.030984979589218
0.0335344749040504
0.0316074838088573
0.0342785381029244
0.0321405500293778
0.0371564081424121
0.0305546716575905
0.0349280584368109
0.0320514904165469
0.0319400257695516
0.0308159966072438
0.0336779005394184
0.0312855108767628
0.0356781687852757
0.0325297189356308
0.0365884901549345
0.0319994940281861
0.035763158349617
0.0305426535697158
0.0351564992350489
0.0315755892026355
0.0346256460765542
0.0316836752617655
0.0342677459948502
0.0332374726353971
0.0323084736806192
0.0319710592796571
0.0330919207574222
0.0342757005757661
0.0337492217861348
0.0331880210332683
0.0372054908677915
0.0316109171175902
0.0352825567505204
0.0307380989942533
0.0343118280981032
0.0308007230893919
0.0339884585441248
0.0314816598642162
0.0364536322496374
0.0320987960005711
0.0340586313798
0.0315210327765369
0.0344874076890468
0.0294241335693791
0.0364130449839781
0.031951041674989
0.0348402706146761
0.0300923428064796
0.0340990436517195
0.0306680114634701
0.0356322972744765
0.0306825009555678
0.0343263977357571
0.0280634349146439
0.0336591412410388
0.0300221088303587
0.032071682660826
0.0330849791774909
0.036160572161359
0.0288965939151619
0.0338203769268309
0.0292552020663473
0.0325671113426054
0.0323744164295406
0.0350141778942945
0.0316107732740004
0.032372126587454
0.0300703939611085
0.0334314261586912
0.0288174107405976
0.0315020783156409
0.0308123351090255
0.0321678400970718
0.031008522531666
0.0324319206923722
0.0292001285628995
0.031277303475918
0.0310654568248624
0.0334533779590377
0.0295419714102214
0.0320729846079844
0.030564559416311
0.0331205132217859
0.0321975927466287
0.0307211383655809
0.0288347529578327
0.0323741150709482
0.0296822508427797
0.0345011039014757
0.0312943239948813
0.0358906058347978
0.0285679700767787
0.0331373950389915
0.0291556936215477
0.0326236286115528
0.0291552327871972
0.033097112301699
0.0275060120644475
0.0340433571914477
0.0286615733389658
0.0336610338069573
0.030268650790428
0.0325251902151144
0.0313137379369886
0.0339604311849513
0.0303470679018693
0.0325657075597326
0.0286379221093036
0.0302851228979585
0.0286415494894259
0.0314349300311452
0.0301269343248253
0.0327230749557041
0.0298302414865437
0.03107685194283
0.0304690915887679
0.03487681198489
0.0281770434007858
0.0314474052609033
0.0279649922809054
0.0327740414767835
0.0295207904904133
0.0326907512223985
0.0286969450864037
0.0319414819503042
0.03062727618605
0.0304562067243234
0.0282332762162719
0.0335117237849461
0.0301468510835549
0.0304096108317078
0.0283197046659525
0.0280036245193656
0.0288709001255824
0.0323378385266535
0.0297356753058622
0.0311953627465014
0.028309540572018
0.0316152979195396
0.0291945642886666
0.0283600924495081
0.0300584588220038
0.0340446253166621
0.0277025395463902
0.0312294643205513
0.0261499786726719
0.032024807151223
0.0269679714891259
0.0293453943188891
0.0279773169448278
0.0314999045577038
0.0263782888379673
0.0320097745599423
0.0277293432314931
0.0303976072442117
0.0291936740299487
0.029954099758826
0.0289263328961612
0.0320568476745268
0.0275878454492963
0.0296212673308289
0.0255064824220349
0.0320014826128503
0.0245246168437692
0.0294802154151225
0.0255419255479094
0.0313613757339987
0.0277707152581471
0.0282440699908689
0.0283063596528806
0.0282338825253952
0.0248175152879838
0.028163124903144
0.0257701562902246
0.0284521736737845
0.0260081677902123
0.0282660347465629
0.0279094962421767
0.0282617538238018
0.0272381633349364
0.0261852637670962
0.0262392433288508
0.0269698050636696
0.025930648378563
0.0289564049449622
0.0250403632746984
0.0293297435592244
0.0256949916808013
0.029607197861338
0.025323225964633
0.0281626216358158
0.0255188096589273
0.0249433556587307
0.0267516204547948
0.0316169894291978
0.0330256146496806
0.0253832596820484
0.027059290011622
0.0279423422713243
0.0256045237315315
0.0273289693857143
0.0269603977385612
0.0283093760627606
0.0249766959561182
0.026572580338976
0.023794492713878
0.0264135162516904
0.0258082072003331
0.0272497435707538
0.0251082173062231
0.0260066077689609
0.0261962603297476
0.0263273554533064
0.0235670262534134
0.0281115093151883
0.0244566234913588
0.0279708845932903
0.0226126383868526
0.0248699158719004
0.0247705726513083
0.0292815778176003
0.0290096546654781
0.0304721535674462
0.0234612059174065
0.0272790596164837
0.0246556572723448
0.0291193811374055
0.0229208225053205
0.0278090347089164
0.0251323973316359
0.0249159289009403
0.0236188051925277
0.0268982586148424
0.0210111291764047
0.026823498018025
0.0223200567763999
0.0255351084229686
0.0218249042919321
0.0258418494437886
0.0212478881995648
0.0250085953009313
0.0224344454897592
0.02532555448683
0.0236744624581386
0.0294570014210447
0.0217576719696196
0.027692089094536
0.0279067962817478
0.0385447704653372
0.0259479137831343
0.0241727145264742
0.0257545353489768
0.0260718235266201
0.0224983990684281
0.0246698085072857
0.0227997530406159
0.0238035385891236
0.024300953093964
0.024543455947447
0.0237663628592915
0.0250115932749116
0.0219107358036976
0.0251065305336884
0.0247133171830078
0.0235893385919039
0.0244846603231465
0.0240549760667764
0.0242933863581661
0.0273089191577928
0.0309031904923368
0.0286123449507915
0.0199327079105342
0.0256245217170434
0.028919098758425
0.0321725366244463
0.0325463820698021
0.0214735882049686
0.0250005205496252
0.0230204716439791
0.0244233372032254
0.0223576324083991
0.0254088323837188
0.0233317367426016
0.0281221125855758
0.0255300881079709
0.0240635725002904
0.0269444270453904
0.0228758835322508
0.0243330373258769
0.0230743360977306
0.025170585616296
0.0225006573766097
0.024382405111605
0.0218713917808792
0.0233036620390882
0.0239961583862802
0.0234967108728474
0.0259790375653265
0.028378187587174
0.0279757775238509
0.0232389160361818
0.026300530292635
0.0216884356327761
0.0256930497640323
0.0313608177203302
0.0290960822484027
0.026942441109393
0.0210568014608894
0.0270833812047426
0.021341421941863
0.0278724048625661
0.0218484965134268
0.0234274399202672
0.0210422946389651
0.0251328249756267
0.0221575325215127
0.025849257264012
0.0205791896571575
0.026809942911229
0.021741317217053
0.0240505632148791
0.0206477699355607
0.0262192774375855
0.0249758497792623
0.0231183930379072
0.0300827618274672
0.0355936167438884
0.0369475200833403
0.0310705553405623
0.0296099854122198
0.0234326337708037
0.0235973754010378
0.0255218257465575
0.0226823184511029
0.0256501798700729
0.0240515189443194
0.0250256249119512
0.0213294246886344
0.0262481290261373
0.0232591977296012
0.0256344164714413
0.0199711202014299
0.0250899522471243
0.0220064499721732
0.0259045649727483
0.0208990893222932
0.0278022918303841
0.0176326416796699
0.0297194266224067
0.0242452385856169
0.0362789329370219
0.0166814716972087
0.0427572604932387
0.0274329418752288
0.0448716766569617
0.0243851875246827
0.0255319171010536
0.0240222405074392
0.0254034934568232
0.0223552408012221
0.0280234050696286
0.0255681473173796
0.0265618797824169
0.0213671219834003
0.024738117637216
0.0247977456653449
0.0220701070272733
0.0263121137623778
0.0419599709755568
0.0375644262866128
0.0362469763644954
0.0206551444033386
0.0271176704034404
0.0322109493265018
0.0400209351406264
0.029516282427274
0.0215233912273572
0.027300367682511
0.0251074834675362
0.0251265962745518
0.0228443779471959
0.0286817272411005
0.0301810388080689
0.0261965499646716
0.0259878274331454
0.0240253403547132
0.0259795014055251
0.0230804521664328
0.0316648034085623
0.029721668861118
0.0312918108258111
0.0279549279766321
0.0270757249620372
0.028927785835379
0.0251804434600516
0.0277703333912432
0.0246134294337747
0.0280175664964803
0.0326976809446577
0.0312868247461201
0.0373325489662117
0.032898668839111
0.0292466238002982
0.0278450484889663
0.0267366339505927
0.037549129906457
0.0238218159796542
0.0333145130855963
0.0344362987773922
0.0411665666711412
0.0475563765944316
0.0297343364669844
0.0342919029992686
0.0208375687891448
0.0358440973669599
0.0160747046779433
0.0388044276467798
0.0242157338036026
0.0411904950182766
0.0132427145978872
0.0362989392167362
0.0206530724522145
0.0380286295334052
0.0250538800376674
0.0300652550678246
0.0242716222749373
0.0376139780398436
0.0300637148353981
0.0331639039836859
0.0410897041914621
0.0430331946692764
0.0427851832981709
0.0373414942416071
0.0298468382075387
0.0439056361995767
0.0271184834217643
0.0423170193735773
0.0231276850408986
0.0368243363496834
0.0226450559652013
0.0326538759423425
0.0403400945535041
0.0469649483704347
0.0356474014291832
0.0315930523437232
0.0274346929751117
0.0457328294660217
0.0397726529444563
0.0440411075807048
0.026971611222144
0.0392862033348329
0.0234009702130566
0.0579482696719648
0.0338834343714809
0.0599048266281459
0.0380263906282065
0.0538329865909448
0.0440931609839509
0.0455544705046497
0.041375286888363
0.0403845902206277
0.045848446899636
0.0489818650731028
0.0355081280389321
0.0424295786566854
0.0452868648567697
0.0402441882353472
0.0464863885838348
0.0323789798264493
0.0427992191976556
0.0497112379999654
0.0673077682211292
0.0681742431370771
0.0504934770098258
0.0439873092383955
0.0526093412383671
0.0486964801861
0.0497302730294938
0.0409495175718123
0.0431403781894082
0.0423829189175237
0.039940623168851
0.0491014292859107
0.042865968100792
0.0529468060129446
0.0419109377155483
0.0490029312047294
0.0535660501016212
0.0781730103742091
0.0764291140391783
0.0539419514480179
0.0741400048667649
0.0418161679924883
0.0696429475081372
0.0516574735866442
0.0562411539834633
0.0543946538987003
0.0533732644953537
0.0584004035126666
0.0512587937708074
0.0663944338711428
0.0598811552427379
0.072370434767573
0.0840398072954529
0.062708921446909
0.0697091584873374
0.0588777570359367
0.134325445130043
0.0408679977854897
0.106206279684414
0.0549377943611553
0.0929368347638486
0.0992153597684407
0.0829784906514631
0.089769244213695
0.0813376967891755
0.081701252088273
0.0878140101425962
0.091083395638494
0.0956199736748384
0.0986470410280978
0.105247984403969
0.0920218378522103
0.116809246213061
0.119839155021393
0.157013248545983
0.142851302630088
0.114495326925387
0.122850319371396
0.131872434457086
0.125460689032255
0.129422000969511
0.125352497831732
0.133204059065789
0.16674168319078
0.143126749839401
0.160267981507353
0.130849042562787
0.173599462646136
0.132027884957471
0.191446372377323
0.15098077166696
0.189685050329004
0.16172770675191
0.173823092090264
0.170575699447599
0.169867890422537
0.198574942585917
0.185692583195486
0.196677555925867
0.190103086571575
0.187504942837639
0.19662683474332
0.19180425597364
0.204318905004271
0.196906708377201
0.219609347916447
0.208604348213707
0.315824721691326
0.214368793148788
0.220659487276034
0.211366446909166
0.201951991473363
0.226308280740212
0.214856846475832
0.243159909908215
0.236333105153833
0.215815004505437
0.217874101078289
0.204069523825056
0.219172211106415
0.202307366551055
0.222505632931913
0.194210480906087
0.232411732380587
0.206121561480788
0.239024689021424
0.246052463599083
0.229403545628335
0.216355585827641
0.20723118005212
0.215843142830218
0.207557458031611
0.207105457651788
0.204541626810431
0.227187694838048
0.2048290705675
0.216271908703672
0.19150215301306
0.214950551237738
0.207411984037261
0.207946004575942
0.20155586837964
0.182015709386814
0.197160712272874
0.180328737210107
0.190342662669966
0.219069376533982
0.183119352025228
0.195883142786514
0.171702523145157
0.18377597497238
0.174862529670549
0.176172595373117
0.174543178590532
0.188971583855634
0.171520245295084
0.183626460290116
0.172337149416505
0.178583362203566
0.167906316268783
0.178444190140797
0.1709718073751
0.169244425273238
0.171322935344437
0.169796656143022
0.170431238527931
0.167941096542459
0.166232535858598
0.171622444540533
0.17003497048768
0.177698523756309
0.169201330198853
0.173768332464697
0.169191797447414
0.172598717349472
0.168765964761495
0.170008532688122
0.170925457321747
0.165373919645117
0.163982973240911
0.163798548625716
0.17073549733274
0.16790473610431
0.165500111283997
0.163495028883525
0.167427477443086
0.161895565242749
0.170956558263806
0.154703999740286
0.194693700796016
0.176902392812461
0.169587104474038
0.164852900639561
0.148623554011104
0.170972883316399
0.145545293645141
0.181848052291192
0.176391188568693
0.166468515676416
0.153829464422012
0.150354205121465
0.151306950136528
0.167203411663771
0.144684291588949
0.160875805016147
0.12991484271499
0.169813772741166
0.163832333644705
0.194123075788173
0.230573586535231
0.156632407686388
0.153088948827174
0.139672226178345
0.188185187314783
0.137603577439794
0.157753577608954
0.123744478583736
0.153686164184161
0.144543978353546
0.147198499732768
0.143424345707799
0.127749141697872
0.143865103865107
0.166004498768496
0.1498437833459
0.154911696757458
0.16887849130904
0.140501368860106
0.167913209761255
0.170086417167103
0.167642422283163
0.127924895668182
0.134029522073965
0.125444880607663
0.124374612134105
0.154825199664114
0.119731912459273
0.140823808580452
0.126617082986961
0.119772451455446
0.121550282883876
0.122451779256809
0.137387581218696
0.109094326023523
0.155569901066794
0.104415084473785
0.135189745141716
0.118070701668543
0.144670236548073
0.15447352645264
0.143041424896878
0.115209811673929
0.117064868758068
0.149646760476795
0.120946249595878
0.132467672312855
0.106786107435948
0.107425543346548
0.12563302938011
0.101683511280136
0.111353494280001
0.116889465659252
0.119278114255009
0.150446551599493
0.131003742581815
0.160496883236112
0.116656738644644
0.0990904885025352
0.101508525595695
0.092792292797898
0.108108499371797
0.0891991941592298
0.110520343491146
0.122327107529951
0.0921577704604849
0.128981050165267
0.0929534360708405
0.110353768252033
0.0978846148251493
0.0961362427257334
0.102617851199438
0.109152567479769
0.125382724999724
0.130826326851133
0.103717253459179
0.132191980451216
0.109461647885599
0.12435422028703
0.100521671258598
0.120525962435435
0.105215189234372
0.123965215156329
0.120073677984149
0.125240565215657
0.120569885730961
0.127491900220799
0.118986674979592
0.174996152463447
0.117370294509583
0.164784430226966
0.14147146374917
0.181058988388852
0.161552485549777
0.153307651805457
0.156477580769349
0.147225309603631
0.157022536112529
0.157769919901563
0.152831329053789
0.190473342580184
0.156906530076719
0.177812229653727
0.159037789882756
0.178920831973949
0.161978230633677
0.19531950687485
0.183896593736993
0.206371160777617
0.237904385833278
0.184307304558315
0.212905259130568
0.177332228139172
0.191096427500102
0.187734411716686
0.189607202681231
0.185529514989887
0.181189841948566
0.212266588831144
0.197380641615584
0.191999467205826
0.191305256609255
0.188424489026121
0.196206936252929
0.192484445991242
0.19797485580171
0.196978981075864
0.200087606308803
0.209633865730388
0.194010012093384
0.252175704540186
0.230947363904627
0.213849032417302
0.212367539867691
0.206173948795452
0.222932104628419
0.207215182096713
0.226811674899298
0.232719760079387
0.22371330912107
0.226251700335003
0.219301822409804
0.230616068885554
0.218267878202621
0.245314922911141
0.221199714921528
0.235957563743732
0.227311631800841
0.228098990841681
0.298562752734642
0.225030228372254
0.265467372976458
0.236055516177209
0.253868632131073
0.230953291577816
0.245210466583332
0.231655530777462
0.247193187085763
0.240288871443747
0.246343756716789
0.239747572155799
0.241891491880774
0.241929021923085
0.234966758167006
0.250180996485746
0.25328456767694
0.240338576242413
0.241914423429083
0.24207966144147
0.235270966749129
0.242540016551321
0.258833036606213
0.239904975404873
0.253098348586978
0.232034919187843
0.265357004534387
0.257016063185532
0.243084720649721
0.236778505024617
0.240727952345786
0.234175593995041
0.243806741154178
0.22705474369413
0.267925730661188
0.246015532205148
0.2499833285796
0.237411533551774
0.251113459701559
0.236440320013818
0.246502456553969
0.239009599604366
0.253663571502134
0.242663618055507
0.252659157527336
0.248870510802726
0.24843618255575
0.249768603343296
0.255301462652846
0.268140768329206
0.254159399135992
0.243681038466005
0.249516138891295
0.241668377080407
0.252557082554925
0.23625188820202
0.246175695734832
0.230487799894279
0.243289540782879
0.220989769017002
0.254992656829427
0.236220944739799
0.236289473682152
0.240125047993762
0.218802869251759
0.224999221732091
0.215998989384751
0.224540915707191
0.215545040643795
0.21895558836271
0.214543511074653
0.214653427296558
0.212312278108422
0.211327433853792
0.212121496639797
0.210876719335713
0.211597549259457
0.208170641244257
0.209560887814666
0.205927718691212
0.209693579300317
0.204474893160769
0.210375225247761
0.203530293841497
0.211589204414456
0.218444503205993
0.214379019647015
0.221303663309638
0.209923870067322
0.21907130959077
0.203148482013367
0.208071164209412
0.202211736387284
0.20809648615136
0.201577206516674
0.208105060736581
0.205305908635828
0.203791820794031
0.202919776033611
0.205069231978999
0.203747047245942
0.203509013391997
0.200711200326892
0.204532921046274
0.205681004837144
0.203848445941259
0.205349724325244
0.203457895337184
0.207812347883762
0.202300498296047
0.211333894195462
0.199910519705884
0.20648074684217
0.202167519508158
0.205504468749161
0.203597519733681
0.201348543272481
0.202387362470413
0.201920930345786
0.203120444925475
0.204019738058613
0.201884789874633
0.201702280645008
0.200813862209168
0.198281711711122
0.195011874410592
0.194771916781812
0.194086552483469
0.193389935388424
0.190646824783792
0.191997138187722
0.189373758499109
0.189511709033402
0.184298740365458
0.187939064332656
0.182246063395581
0.181942995906273
0.181667643816544
0.180557881317961
0.177968196786729
0.176900722333076
0.175243554028935
0.175322901519218
0.173788860838504
0.173226642495862
0.171261293150623
0.171258297702358
0.17192443208352
0.172551989200055
0.171975223553169
0.173195523205914
0.169705316582569
0.173150595030373
0.170268817438102
0.17293853836682
0.172194205544903
0.176443586614739
0.173346586849143
0.178216914788396
0.176828589519357
0.178304261806499
0.179329853726717
0.179514994618072
0.178975665851582
0.180114982546647
0.18055033822473
0.181632702381789
0.182271315095002
0.184970973796832
0.181950619611855
0.184231945648772
0.187658327588703
0.185657368890409
0.183823728751795
0.18236050781931
0.183538566830316
0.183615259492255
0.181467598546347
0.183438709581847
0.183517095349026
0.184017409302044
0.181949570357908
0.181141762091946
0.179182117947347
0.181244229662013
0.17854508783312
0.181183731984935
0.180482124055378
0.180839765990192
0.178007225549991
0.178872046043018
0.176031978909485
0.175754250039883
0.176760299998611
0.173783620029305
0.172739426635674
0.174190053316583
0.17294493100255
0.172981669819607
0.171649525856664
0.172347197456069
0.172098128251645
0.172101552748615
0.169694804376182
0.170858015625634
0.168044280740937
0.169319000285049
0.170331829336333
0.168696099503805
0.1674727075931
0.169259225322578
0.167442668882582
0.166636504103726
0.164775014779306
0.164160516123108
0.162017523208832
0.160597407417534
0.160081389689326
0.160319304864199
0.158196871051092
0.159634980185431
0.155961617909303
0.154857331866269
0.154543865416769
0.151584648352459
0.149626692963661
0.150157600364359
0.149562955068103
0.148591960324571
0.150154963780635
0.148285754383434
0.149471517511558
0.148676336109562
0.145838427963745
0.147433407269394
0.145093263667467
0.147149624234533
0.146793099493201
0.144378493950373
0.143932947389637
0.144256220987161
0.142604362980421
0.140848560363543
0.140185201117348
0.137944700222255
0.136920884170407
0.13526368405205
0.132554042825751
0.132601425894531
0.131070776814722
0.133320665108566
0.131607605014206
0.133109098773225
0.134958517075944
0.13489299895095
0.137088389616488
0.143003803445352
0.146039375792447
0.152829805441757
0.154607347997698
0.162677552228548
0.168065688480385
0.175960027156487
0.183254538678135
0.192104818531587
0.196514759420438
0.206804455934869
0.21237161440919
0.220102793205222
0.225951091700119
0.23337720319524
0.242459345035036
0.251647910394349
0.257801206783264
0.261280347183431
0.27008652277613
0.278216802398932
0.281382161942072
0.288430664989333
0.293614489155929
0.298520709932427
0.301418037863114
0.304703424051987
0.308302706410402
0.315527130069476
0.317554300083128
0.321298228075407
0.322255408385542
0.323636452400652
0.327979562147087
0.327986512382656
0.327104562136411
0.329304995295989
0.327004465596474
0.330570132759944
0.328579010470386
0.331180693244203
0.329288511779
0.330095285873348
0.329931521088879
0.332700588884882
0.334672104450387
0.340101901591409
0.338307278013141
0.338792114925415
0.34095191735775
0.344662237143619
0.34677985184762
0.350048768965976
0.35184045836351
0.35498342063849
0.358702102003809
0.366353952276264
0.365820260526598
0.375141704154715
0.379348852358963
0.382575994158036
0.388158836175324
0.393129257531595
0.400710727446037
0.405920397748075
0.408676449644404
0.416638349071815
0.417357558600616
0.425334105214346
0.42631181266236
0.429839862199393
0.425899466375052
0.427130047902597
0.423358013803843
0.421927023531439
0.425286870341178
0.424291598258027
0.423216221336696
0.421920451785482
0.415891854181664
0.419833520891072
0.422689224363475
0.428552058257303
0.42898591605702
0.436649880313564
0.441113264734216
0.451602175717484
0.453965909923947
0.463598483695489
0.470596897847226
0.481197732132873
0.483531601307163
0.496174907374447
0.500204529005387
0.509411781055997
0.516071163365373
0.530388109508004
0.532064048285624
0.545255608856992
0.549580342761529
0.560857627000074
0.564424691227145
0.57164014297483
0.581258537514013
0.594328549879571
0.607612252939035
0.616983004838862
0.625887356914239
0.636817015407676
0.645461416041034
0.658778062057654
0.669419885419418
0.66938050382003
0.677476749310811
0.686613617277703
0.689567354040097
0.698941981721821
0.701791930201275
0.712373385127906
0.713234139925755
0.712378266705095
0.712065797795196
0.708381025653558
0.711057541707726
0.708738847863693
0.701163510948077
0.694185419026578
0.70225610969021
0.699996028842639
0.692369787613263
0.695707923981927
0.688796589510746
0.683798435517819
0.684683037532212
0.697095056692159
0.691830608946171
0.687704730247186
0.698426106249792
0.705082771343001
0.70537814451738
0.714172083253509
0.716686852084904
0.73483105928896
0.722476888111519
0.734853741665083
0.74319336378566
0.741788388842956
0.741050419001039
0.752555936889671
0.748881432578098
0.755809171053103
0.753207579316615
0.766626250750987
0.755576061186684
0.762940686784629
0.757735050365237
0.764868826824516
0.751387915911204
0.771445923875756
0.774169446680497
0.763938960955547
0.754902593364009
0.76664311847015
0.757569810941893
0.750120884066828
0.75011592059966
0.744578920351016
0.746901450721658
0.744165466422032
0.730182939568243
0.728584117269718
0.718891602119299
0.715912462510882
0.712139684439987
0.706721115694407
0.695626770814484
0.687324938727573
0.666039759932097
0.663288570283935
0.645460349506531
0.629499275985951
0.609620419151011
0.593250184130677
0.565295152185653
0.554605156941826
0.531762317077571
0.512842177827214
0.484212818548743
0.476283675260091
0.456353687264588
0.447099446861274
0.436733894686101
0.428628552220823
0.418804901154859
0.41230126753746
0.408646187298993
0.402662618206682
0.404792502606238
0.403723159388685
0.398884855214
0.393999755188419
0.38481192780157
0.381664112041096
0.379299211169224
0.368449856108243
0.363518649437211
0.358918284131566
0.355718138030323
0.348064599425525
0.33971302108488
0.333970207867019
0.323734123142533
0.312256231807846
0.300361958596067
0.290945478534653
0.279411559565739
0.270213742149952
0.257291693107225
0.247474466404285
0.237176871605473
0.224434215760409
0.216672261492885
0.20467770923789
0.197540112445544
0.184981373278923
0.178658232532531
0.169354935492298
0.164101829894491
0.15748161336409
0.152257838741013
0.147075975422148
0.144215023035162
0.133596225708247
0.133635759606804
0.130728597054333
0.127815281803138
0.126551863332521
0.123386600476247
0.123110472862521
0.122173708205375
0.12069500818044
0.120689930829534
0.121801887479545
0.119773300495927
0.11938751339447
0.118935626898308
0.120272947188436
0.122157243328395
0.123498748717865
0.124625074583908
0.1256047812259
0.125346975707848
0.12523902176404
0.124651229756054
0.123848512474044
0.120105146641345
0.120543625475407
0.124120649439375
0.122581176413113
0.119142253818317
0.122065992927676
0.120249710433088
0.113060202536262
0.115658411100588
0.115744179273958
0.115575324467529
0.115718329636226
0.114342448980233
0.11824466664032
0.118216360108591
0.116541442162106
0.118003819096264
0.122435374904643
0.124549849961725
0.121992566667105
0.126514286003743
0.12265698875312
0.123623620786952
0.129207504053789
0.129532262591065
0.131776970888836
0.131924570904344
0.130387705290719
0.131489206954936
0.131661087591603
0.132238285889786
0.133375726688773
0.137171913756647
0.136143143635023
0.136046755318464
0.137601164435075
0.13629220950161
0.136944387341228
0.141141533058119
0.138775394097197
0.139197193595458
0.143446346574754
0.142471958749854
0.141642921080193
0.152802723210972
0.154264108999617
0.156212568688705
0.162320328410032
0.16799418381433
0.168063610253924
0.179750494519916
0.180722944088356
0.180354182024655
0.18257071074301
0.183330049295033
0.180698040380125
0.184793966970191
0.188072039955203
0.181473610583093
0.173187447901485
0.177107052120909
0.171523481390618
0.166295151749842
0.165422697018496
0.163262967107492
0.162576897512962
0.163080151678031
0.16437514924505
0.164031171319235
0.161752111847151
0.156253828494478
0.158355856178393
0.155128288039308
0.166418908557763
0.167876646739064
0.16063652622667
0.159806811629743
0.158443319361922
0.156343639985176
0.150445452894895
0.151096272806793
0.151348173042923
0.150066914986497
0.145622703386757
0.15025111709453
0.145018603231756
0.14154147051522
0.14439287739394
0.141882734059797
0.143358147975654
0.140240121964677
0.137142752004213
0.139583811495894
0.140429677422653
0.14600508975073
0.144263936271669
0.134087386564823
0.13969868970014
0.136210103598783
0.130339110481619
0.140407550608856
0.13347134716912
0.133515698014759
0.12996629066634
0.136605128801862
0.13057090684274
0.127628381448859
0.128446405971437
0.131312601168278
0.123954017248706
0.129958926262526
0.127954870513105
0.122994458634428
0.123888288848151
0.12537227712584
0.122718095707761
0.120580228371795
0.121538557745846
0.121709590919535
0.121361109230189
0.126984921288753
0.125307240162673
0.12275059265035
0.12689528191364
0.1226307779703
0.12378721977113
0.123359728226245
0.125740926714541
0.125455810789364
0.125323790538795
0.125641119578831
0.126612373177807
0.126079757933549
0.123019997157627
0.132907789699208
0.123484994276138
0.133499630185543
0.131575669511141
0.136263394619665
0.135877414480228
0.135988170221449
0.124649133123868
0.137594963486088
0.131368690017066
0.146660421800673
0.137616604624886
0.138747263838946
0.142130141935847
0.146121499277864
0.153222662386374
0.15566866216754
0.142580018664598
0.144533504775563
0.152446838648551
0.162872960387555
0.167276528010162
0.175848118371936
0.15692365692545
0.170570813867288
0.173379079166273
0.18398494168986
0.18921802365212
0.198812126277634
0.189925303594336
0.19855115249754
0.204860784129395
0.21973395207464
0.230945006922619
0.227214415463991
0.223663977588324
0.235224505814737
0.231420222407891
0.233267022940923
0.226995441631266
0.23867819232295
0.223232390895549
0.234264979155554
0.234325013951842
0.234485690608622
0.227021425456765
0.232173672535383
0.221999167002559
0.217470341824268
0.223866078211983
0.226542660049847
0.219001870377519
0.226468823626219
0.22983241684945
0.225926172142931
0.204233112059655
0.219863902610078
0.207222683451989
0.217775237894297
0.211785518119312
0.198491260406718
0.207045729110295
0.212503927978842
0.188650446933917
0.200361233005581
0.197030376854109
0.199386439636439
0.193535190917783
0.195810774828517
0.183731995383022
0.195009765409139
0.207045984214213
0.208267735335429
0.188765414720234
0.196191567259847
0.200078433804027
0.196972496856982
0.190730260164936
0.194478706382846
0.192477880692613
0.214221472156438
0.202146892188409
0.198669514714309
0.197543283717568
0.211670411457232
0.182278733269578
0.18577102322913
0.202309847033503
0.217169090586844
0.216823885032244
0.21100199886871
0.21135127843838
0.227064376885478
0.221014524368312
0.225602301474351
0.219537372573465
0.236837475613104
0.219437685557479
0.226173236647866
0.193284337068579
0.219823408487308
0.210212743222307
0.213102029588375
0.190504598940561
0.234960505806627
0.223909853587112
0.213179234069926
0.210997476340549
0.231887534392898
0.226974665289798
0.254218538715142
0.231381064475532
0.252965562135735
0.257850631651369
0.266491031042947
0.245872518260252
0.241946376570137
0.252784905392258
0.284250888547395
0.27652607653592
0.281232883605598
0.283464159748494
0.285450649375103
0.312411529710616
0.332060128472385
0.285220438117923
0.301846207408007
0.2909025872698
0.289884685419025
0.259167487054005
0.263208956338386
0.267748750052554
0.285733072594581
0.268057689597349
0.291743518275254
0.28189433042515
0.310034825978979
0.26270460877642
0.282224241970831
0.280903873939853
0.241800167262329
0.227345250968483
0.289621393467236
0.22592706526415
0.3008821075666
0.211617902529879
0.24764056756221
0.282468564283859
0.283159426509987
0.205997868280893
0.273120804866069
0.237383749308307
0.27696120869203
0.275726959976715
0.259929374111754
0.295717060006141
0.305924241894858
0.234370803496185
0.32353230676651
0.315387337627199
0.308393380412534
0.238285298965321
0.171293004488713
0.237823948302554
0.286754510077498
0.253217217247103
0.208043666110214
0.22596027378509
0.389754847060522
0.303949359181676
0.202069941821585
0.255620326139004
0.313532959472861
0.343663342295871
0.331532826659966
0.333214641758149
0.305806723822401
0.398983402991112
0.540556007232001
0.315071672074159
0.267119865936011
0.187158517509804
