3596
4000.36533379555
650.420452594757
1
2
2
0.0403305781267271
0.0506171121654404
0.0355740419587245
0.0554936529827693
0.0459305828692711
0.0504306788117836
0.0485653162275508
0.0573150960871531
0.0518796368790445
0.0608024856369653
0.0512048118189822
0.0425702253051362
0.0565389397423728
0.0568448354885499
0.049732635298115
0.0472497024196999
0.0454078289066657
0.0550911752887806
0.0466501225240912
0.0574746634806574
0.0437814737049488
0.0526598888570604
0.0426999133604412
0.056682996511944
0.0470119814709567
0.0458027615544058
0.044778215846535
0.053415715045825
0.0497081956855918
0.0541488344397374
0.0425411998284154
0.0598613324127429
0.0561071003536288
0.0529052050786235
0.0417912179438987
0.0535045844318514
0.0478728691359322
0.0520815276893399
0.0451958776187159
0.0582966777845761
0.0473796038637898
0.0599260370738529
0.0496343445589837
0.0550623792654848
0.0481482808316089
0.0507898336965893
0.044159170321374
0.0508234572246951
0.0428738514197639
0.0442821260124509
0.0438253223215061
0.0510770924677831
0.0524674990528356
0.054070285159641
0.0540596296671299
0.0689921310633115
0.0454557041552614
0.0545146046096926
0.0583019630335689
0.0639304285607983
0.0523044757203339
0.0553005898471725
0.0356123715234587
0.0497935397985595
0.038731219491907
0.0502260443888283
0.0500061317795949
0.0509423537768633
0.0516085247415761
0.0508017641856168
0.047006139484083
0.0641274401755928
0.059738856434963
0.0498291221517686
0.044210691622502
0.0547718026665205
0.0422635802797697
0.0482838483186362
0.0561546854218931
0.0581331499926483
0.0509356959694297
0.0501490928231291
0.0434978256802416
0.0549078198698843
0.0553779307807779
0.0545681342424674
0.0447720789195774
0.0572343991806469
0.0567979571568883
0.045473922755993
0.0434678213206952
0.0484565019185073
0.041558588290338
0.0465104907029269
0.0434996883475696
0.0419072327720789
0.0510262474181821
0.0425256696454857
0.0521966923188286
0.0495870326541951
0.0576495220683053
0.0715060112116455
0.0436948820595173
0.0848203939127611
0.0439489284414873
0.055744071547207
0.0566473879468029
0.0630842446283938
0.0486814470244082
0.0398038856816227
0.041531613038047
0.038575998637618
0.0501561071219118
0.0445149202089198
0.0642095730449071
0.0693665596479097
0.0550754757576226
0.0494439053684627
0.0405647311250803
0.0358183345831268
0.0582915548563909
0.0686472154727497
0.0492545332287944
0.0527932307405794
0.0525821635103801
0.0451773292650359
0.0593584800755836
0.0732970171001531
0.0566194758813173
0.0445988127736607
0.0353046543772503
0.0460651104897951
0.0486939727239211
0.059316227914365
0.0423742055280798
0.0494908570200998
0.0346413053406241
0.0750743379174632
0.0594445349392914
0.0662972618174377
0.0491279007255596
0.0432989012951593
0.0512158791442277
0.0712189191232615
0.0511090004659201
0.0416170230020472
0.0505525191587952
0.0610431997409678
0.0436400618735068
0.0443403866930067
0.0386323040097333
0.0537092025299711
0.0454987454602024
0.0442369100025129
0.0754364371476634
0.0621601465098843
0.0581572645083751
0.0884191572294312
0.0317416451263001
0.0651381739637709
0.0291798194060735
0.0569790409905945
0.0265897656912001
0.0529233403791379
0.0339568543121611
0.0589849621404724
0.0506427311378178
0.058240507354478
0.0451788619698729
0.0699423540176996
0.0504908996767801
0.0549133547958803
0.0799658943083979
0.0528020466286683
0.0497227645954169
0.0577682252831821
0.0419681046843597
0.0549591823928136
0.046732337086968
0.0603730731953482
0.0356166915281477
0.0468724895321924
0.0300487714819115
0.0566589921629921
0.0445464878590332
0.0581127678612157
0.0419939290338609
0.0543711533043625
0.0397130186272843
0.0643666910745907
0.062532838691251
0.0671279254833779
0.046250664823563
0.0476018235430978
0.0229401653924103
0.0800277378033241
0.0479652919345088
0.0702041748155235
0.0313876610626153
0.0374898293133996
0.0415580041687363
0.0426661778605881
0.0370678333675842
0.0522190860980953
0.0400182480084055
0.0776891354918397
0.0305658705021737
0.0621131291547763
0.0340542962430955
0.0579353599799724
0.0407233604343895
0.0798357129930453
0.0445957871559916
0.0658249781539069
0.0435823168999963
0.0530932977093409
0.0488855725591125
0.0628198045638777
0.0405496161436542
0.0511113746852707
0.0344350034244843
0.0507295907424799
0.0398261328911632
0.0514292455417619
0.0442212482370775
0.0453844083216304
0.041342307384829
0.046161477506006
0.0373046664417636
0.058955877551264
0.0487392596268627
0.052714768732709
0.0357125884825011
0.040660257630123
0.0440852685713878
0.0631888248943502
0.0464433044199298
0.0542544965489854
0.0399900631519602
0.0514642217272055
0.0275023579622386
0.0486237525312865
0.038449512507178
0.0517926554842288
0.0382527480798522
0.0794648612170061
0.0350278303363503
0.0597049188091572
0.027779949022314
0.0740405012251209
0.0394446702245757
0.0612217834790311
0.0375609625168405
0.0538563212972759
0.0327635949368104
0.0625429908464975
0.0503480423516248
0.0582157285637939
0.0448376518430573
0.0604712721704453
0.0395510602423844
0.0504889880208902
0.0492612419255976
0.0582880575948139
0.0859951525347067
0.0551357234735449
0.0564381726149075
0.0872166216027732
0.0327746477529748
0.0724346430761942
0.0390209554206953
0.0562733558488792
0.0981314518583301
0.0805842871479202
0.0530599555117074
0.0499200137985151
0.0541035839363058
0.0496308257627814
0.0492509339719965
0.0565295352876989
0.0619662039873876
0.0669529267697949
0.0596578897090603
0.118689875634815
0.0279736662094259
0.0881939905819277
0.0429037806214815
0.0681486948819418
0.0400345285259317
0.056612489901372
0.03861319854689
0.0720223867892944
0.0517601763702638
0.0664042365690753
0.0609932544549235
0.0581031015472981
0.0680818196232645
0.0603323186573351
0.0543274233628549
0.0546881008683293
0.0607230942501031
0.0537384651886679
0.0507908025743365
0.0464639924474129
0.0553548877556868
0.0599727490322594
0.0570401117678367
0.0906751345681332
0.045233580167374
0.0644530839644432
0.0683688091853641
0.0589000318635896
0.047562086317539
0.0494688308823517
0.0530667315404038
0.0643410035658196
0.0502764489209664
0.0538407806642209
0.0769243204736212
0.0759879628774899
0.0530298861581114
0.0530272366000069
0.0542990332486394
0.0589282701687529
0.0534587359294739
0.0588710500049713
0.0496622683244005
0.067642809444686
0.050801511053381
0.0730272977936229
0.0754854398160562
0.0637622461973114
0.0837780341053563
0.087058344866632
0.0541172478796985
0.0661839943197653
0.0500052263305254
0.0709486895062912
0.0545332533380627
0.0750723628219973
0.0534073964993839
0.0701325472712188
0.0684204728713267
0.0808888977031991
0.0644268053910299
0.0871298975367237
0.0903789347251088
0.136372616343267
0.070016942495118
0.0891121625896538
0.0484482064242511
0.108578029935699
0.0798498184217231
0.0863176482747852
0.0901723537268277
0.0713718821160929
0.0788318840784641
0.0756222260457161
0.0779067726108748
0.079280741764554
0.0832417879540035
0.0798466062071318
0.0785289181710627
0.0854743115614288
0.0871921058356366
0.0936506005776693
0.0873115703256984
0.124585541483475
0.0931180017795646
0.0927812578323243
0.0966801480281985
0.0885726054934838
0.108751579443997
0.127818535069739
0.111059462909748
0.147555888241019
0.10434451606645
0.15928931082628
0.101889167486523
0.124720759511294
0.0979174127948325
0.124471391922999
0.108238270328287
0.129910956458851
0.108780144718822
0.126503969010845
0.105944365454506
0.132650771754725
0.112045139060678
0.12908624854061
0.111263450823895
0.151845178819406
0.122613789228031
0.146290630475948
0.121038317706132
0.158356897969722
0.159811460061666
0.200800197326552
0.138455503797151
0.14698389055701
0.133754331304061
0.153115274142488
0.148078689782647
0.151385695184694
0.159139243859165
0.154299566275273
0.175149410183281
0.178214028850831
0.166965277636759
0.189982166668257
0.15327530066324
0.196101885242559
0.163176292388875
0.173924307007776
0.176819810381102
0.195573977486717
0.156053303261805
0.196491558117617
0.200801830098156
0.186727258469405
0.197745763855649
0.182459216823458
0.187520779529632
0.188752057881311
0.187889398083337
0.198564491931989
0.193622710883456
0.232682743147645
0.20228253601146
0.22221206250708
0.208516032426741
0.227609289108553
0.21783353006547
0.235793836183853
0.203584191787246
0.241506872213811
0.201594476017164
0.234009888876716
0.209787392967103
0.253663195840094
0.261494594408891
0.252257941058832
0.247423407622426
0.248857198685768
0.249843416925961
0.257731553026084
0.245474838790163
0.262447071301728
0.239718050853687
0.262797020500871
0.254638292308667
0.260447671364127
0.257892295792673
0.280769153866333
0.268556355253918
0.283351179014925
0.259182502682005
0.283404468138292
0.270588521091165
0.300678814027936
0.271404356742955
0.319866666626358
0.294554749588237
0.328944696399802
0.320393952955556
0.325274234463404
0.322628887615155
0.316431141719052
0.304944884706973
0.321456928942449
0.333170790395917
0.348378883247959
0.309944844163242
0.32921485998441
0.333349276135449
0.341915940269257
0.329937431447589
0.367558169702986
0.343704517946559
0.365781579245708
0.349341335807004
0.379818318701968
0.350301337008221
0.370407902039844
0.360650624584057
0.419378511528018
0.370438132352966
0.392984155553677
0.374227870133244
0.407566147790451
0.384328989235665
0.402711686227081
0.376871670579257
0.413112425030054
0.385424665776874
0.4207235096186
0.390676387909809
0.45233560444847
0.38314522715707
0.421088438442114
0.420613246854574
0.474466070410654
0.426402277875253
0.46107889407574
0.433681059754141
0.452983861524397
0.432679308113858
0.449361331778101
0.445464353829382
0.478461381831272
0.45877478836674
0.491760047415068
0.443440030795282
0.50282789888922
0.473767841675875
0.496786160549736
0.479425586708341
0.520996134881954
0.47036435467083
0.516687790367536
0.472260990299665
0.521352707643803
0.498582011062796
0.55563942457461
0.487572802111828
0.529841694876786
0.517314913747293
0.575613217336322
0.498801777049558
0.539263038929449
0.489041564906339
0.566938033592895
0.547032368143635
0.586202235998166
0.543824077586214
0.588946310203823
0.52659988056419
0.589747826543646
0.554314791096839
0.606927539255945
0.557329260211351
0.597972765222707
0.559075839013065
0.605220267514175
0.557339123708233
0.635261478898989
0.581542601913823
0.618970023745394
0.584076156792681
0.632766644775058
0.610608138403664
0.638484629218884
0.595778710152235
0.631606289892977
0.602918259631834
0.665342049936574
0.616092129268764
0.663849609480317
0.65121162337481
0.653878548497048
0.621613873908392
0.690265394286321
0.638015025610778
0.70643666807013
0.652916804518507
0.676300010011904
0.676469920485867
0.69735238525944
0.641586357416734
0.717792075709974
0.668532649823086
0.745782820392515
0.659552416706777
0.711781732113935
0.679085344240985
0.748727303679852
0.722351997728939
0.713621052424254
0.704482395056122
0.797452685653058
0.679643730960875
0.791993852663058
0.714345713779293
0.76257387915545
0.704841812969569
0.770552139026885
0.732493992458062
0.781779086654964
0.731929184836321
0.799122519462827
0.72404069009184
0.826569237454859
0.821240664712737
0.807691276571642
0.739593132643035
0.862320268236491
0.762311441665868
0.84145052653426
0.770090955226365
0.801570739964047
0.780126852145118
0.847205470340508
0.75692906588948
0.801728192753818
0.784155720740411
0.79900282317373
0.813809158935353
0.908997718552564
0.783142657773176
0.882884825113058
0.775439968360475
0.878372736944854
0.816186079462268
0.852076508995217
0.798667515121164
0.914902553787644
0.804999079589601
0.891975323529632
0.848012613601756
0.862469849460049
0.796784367829574
0.95105085116494
0.88940035334815
0.918999189429816
0.889550919278178
0.955278087492177
0.867282019598251
0.901572844312808
0.858222317294677
0.923529179906752
0.879939463169813
0.957561152382615
0.88954205675605
0.913745560373908
0.928327239137562
0.922708918241721
0.904208653382168
0.955071884441178
0.892041242067988
0.936406568673055
0.929778743791249
0.925843637485689
0.88513823569876
0.975806148706684
0.972663352793394
1.03180186624461
0.890396257925376
0.968484853266578
0.925545341286379
1.00288165798371
0.938231321355104
1.01364422900523
0.92522504656881
0.976294619962448
0.959047648251518
0.962414568197916
0.934656206333075
1.04577142205622
0.953923028083295
1.02463997059164
0.929622812107116
0.997930078768999
0.911820323927073
0.997960801548731
0.930063029981495
1.02386643563124
0.946346102018083
1.03238945154628
1.00534127503737
1.02468639975061
1.01318186073976
1.09321632628361
0.91272123532256
1.02246171303047
0.944413399800342
1.04294173865589
0.958613365345372
1.06798622802026
0.983568286318924
1.06098078687987
0.967060266166622
1.12400407144336
0.99494993680976
1.04467901665249
0.958673026783835
1.02053104025877
1.06741048562419
1.07157393461889
0.985811166126322
1.06995835546577
1.029028757782
1.07130684946055
1.01262427102846
1.05385238468479
0.975119637844048
1.06714729107685
1.00381368329191
1.1216850847934
1.04198643490005
1.06541334581794
1.04935875257226
1.10838509183
1.0445650016671
1.03052306596322
1.01517678891453
1.12319977431714
0.992335011225765
1.09826361528103
0.95759467697219
1.03951334769097
1.00353827212291
1.10697599451455
1.03452692186168
1.08216691208896
1.06514611211076
1.13334215220853
1.03831586041155
1.09888997425837
1.01817985453232
1.08793628950885
1.06338912757369
1.11844942133064
1.00969383605152
1.1127265906206
1.05706790580406
1.0740252096948
1.02605321651436
1.09582338409635
1.01187613492926
1.02107201292025
1.08304311211243
1.15255893267435
1.03670890260653
1.14915328278728
1.04388382442604
1.07358184045803
1.05572531521917
1.08473003500321
1.02206838952354
1.10295089120447
1.0288383234985
1.06896197692956
0.975312923876118
1.07373224934987
1.03279849536713
1.10803665991171
1.05347110054514
1.08927119481615
1.06007268571583
1.12035916707354
1.04532334657265
1.07001345522928
1.02250307751313
1.10952022005875
0.991401121937354
1.07116135046244
1.01203313390519
1.03322347545783
1.0157645485205
1.14309178709587
1.06280078147592
1.08940556941281
1.06005669489331
1.05624503967535
1.04526446898645
1.12864571236246
1.00500665384533
1.07307119613277
1.00448623202404
1.07027255859181
0.971283182475134
1.05154288754297
1.00309769907633
1.06974204154712
1.00945783108082
1.10632842900846
1.02902738593997
1.09407974570498
1.01797764608114
1.07911923938931
1.00652550431143
1.07416775880439
1.02731917198403
1.08019388524679
1.02091416185015
1.0713774925112
0.992758382798471
1.0741723736869
1.04942246656968
1.04865887797922
1.0401066274842
1.08231542607536
0.993133150102012
1.04702952158909
1.01246945658681
1.05461958231926
0.977979862292814
1.03157518433568
0.976315014326387
1.05963600597134
1.02577730063146
1.01815193291042
0.962152878886472
0.998380665503877
0.989381623002047
1.04269331091433
0.957232843059864
1.01004308728403
0.973219919279816
0.987047145387999
0.979522704340761
1.02898483568253
0.973504545105176
1.04197056649291
0.962684274031485
0.972215871315416
0.9404448439212
1.00817524397888
0.915848483273165
1.00373529141969
0.97315511517931
0.959886470359181
0.963560690713704
0.98840137369612
0.936847876381494
1.00832174944473
0.93650107153163
0.940457770925932
0.96351177658451
0.957565317154283
0.972039293917589
0.962321873702591
0.939119095303435
0.945038411908262
0.893064287421769
0.94692725804164
0.890562676488618
0.954515704977668
0.901841454524586
0.968399958993648
0.896446817073713
0.929798174260919
0.930147203211537
0.934512835859219
0.876009957662423
0.916725315428135
0.893131381519005
0.909658525923574
0.85737803135253
0.908269327590784
0.87641890130624
0.886034615835104
0.881259989583866
0.876127782549791
0.874735083529108
0.898669024007084
0.888293333610049
0.899236899016115
0.841691039781164
0.897684469702044
0.877748119848918
0.873291693948088
0.830103025392613
0.887574965950721
0.858449180825659
0.893819528746053
0.840967249816568
0.866028364657174
0.825105987785193
0.828708027878692
0.829183592513409
0.831598949416554
0.826693739937429
0.835338392173707
0.791094216569006
0.818323275752192
0.810257307213503
0.838872575460783
0.789963604541013
0.815796417494276
0.79752487532319
0.801153917054119
0.79237079409014
0.80631967216945
0.779588829447554
0.78860312588226
0.773930627953576
0.805128694668912
0.767618281645357
0.787000216429507
0.763016215918006
0.771971931485542
0.752225361354587
0.763742650377009
0.757212534794569
0.769947785645435
0.747049158226101
0.776626974835164
0.735287019432075
0.7541491564193
0.715583748582268
0.73168930898721
0.734565521864747
0.744789628166289
0.712824045160262
0.732872817054484
0.701554066300875
0.703540275629577
0.715589200755146
0.713151284199469
0.686673918527613
0.708528969323741
0.68081899817175
0.703797738872506
0.699449399744085
0.704659819290927
0.694654045214087
0.693435466574315
0.671082803087907
0.686060826338614
0.668049999337128
0.6549100594839
0.646291896585792
0.667170760521024
0.647541441375695
0.658321833972236
0.645973272137991
0.666801647279818
0.632367364615874
0.656197714939987
0.642882041671805
0.638043942418586
0.633560406396037
0.651011968115782
0.622729623378203
0.644572124215119
0.630494167191243
0.619815113858854
0.615563538639616
0.62463217380521
0.606959744105517
0.62557737015139
0.59518028537207
0.602467194975969
0.59031596916964
0.60875180274697
0.596564195975542
0.612411648855519
0.581918224183176
0.587135866100249
0.583465763580288
0.594900121518591
0.582553543673187
0.591761541297391
0.568315052013511
0.56914615993161
0.558844317403278
0.572498984209782
0.559434455170029
0.567440416985543
0.553986952183168
0.577014087742495
0.549704147577871
0.554934855129214
0.545440822570358
0.556868553695564
0.550897632877647
0.542218298274085
0.532128504543361
0.538507821291695
0.525544949489311
0.537726891131826
0.526159807137553
0.544364321206229
0.524953042986245
0.533775278229714
0.539719875255747
0.526534909463583
0.510386730420443
0.520254735500803
0.513437992007489
0.509484919868054
0.495629705822885
0.517255238038181
0.500826087338679
0.503388175097876
0.496791568454615
0.497617978514806
0.49547449807895
0.499209614009838
0.489056344724004
0.500265813863634
0.488682969009191
0.493727756646974
0.482730613375455
0.478919574883941
0.474098850288714
0.484079336338926
0.46670053272441
0.475341021363104
0.462671819524175
0.469185983950377
0.461311076340178
0.473018157492575
0.450103594206993
0.468549020575622
0.461105045997206
0.456428194192505
0.446652630815537
0.456457292880876
0.451042827063256
0.453389153907557
0.442487725483152
0.435159162831864
0.432497168265057
0.447381253970591
0.432065994629609
0.440676344436863
0.434443602257316
0.435204482310188
0.427458701914865
0.427322284738321
0.427200529139309
0.430702367257678
0.41753290189393
0.423439274533031
0.412001013459412
0.422408409113821
0.412795589567059
0.405722984222972
0.405098969716116
0.407321106511759
0.402220141987798
0.41390802165573
0.398076537676244
0.404177305082172
0.405549457383378
0.404894877023756
0.404471160915484
0.401153753340747
0.392866501034247
0.39342240998821
0.388111433410529
0.389293972921518
0.383326941365257
0.389051953492891
0.378487650159545
0.38646204543719
0.376164946930281
0.375692235375547
0.378389801152132
0.378178454511797
0.375054654219432
0.374614599863612
0.35860485645953
0.37451550920543
0.376107699321978
0.37379529923113
0.359357386672597
0.366803841319949
0.363693739614913
0.366236667811376
0.365215064305719
0.366419430200433
0.358376594182016
0.363344208325922
0.358246295367951
0.36339663244084
0.355524482889625
0.354260438447244
0.352811022385295
0.355202589871408
0.34676254393223
0.349586916342175
0.347928077962193
0.361512033130223
0.346304098711861
0.35089976177668
0.348368506309303
0.355550244963058
0.348800176872205
0.345569752346497
0.341016912880872
0.350610126380934
0.342271342177679
0.350172740753212
0.35760132503068
0.357295447647324
0.345604139613304
0.354464344374265
0.350753409944583
0.36051093280541
0.35227440662104
0.356801873164116
0.351317987523024
0.350699811256766
0.362222146765843
0.36832859749097
0.356178282988777
0.363605199703058
0.366196180736279
0.37791456439402
0.368682265549426
0.373810536331666
0.3647066201797
0.371627004231026
0.372801445651913
0.378578199038958
0.378901264623087
0.381565435476185
0.373415419476978
0.382545786551479
0.378085649917145
0.386482734173662
0.385164383246581
0.387962916616586
0.383393808627451
0.387792705472024
0.385892672324381
0.390417010935661
0.389373124862238
0.397970627238538
0.400009127450687
0.4046327480854
0.397856828870658
0.402442133825176
0.403373933648054
0.411725206972376
0.408423079698364
0.414437990794105
0.40775340926103
0.413541591935016
0.412224780696716
0.4174960583729
0.418957564176537
0.430482648840645
0.44076677254358
0.43578886648291
0.435872895866941
0.441290548415168
0.43275605745515
0.453081630918077
0.447924310376232
0.439067591031752
0.447521446251694
0.452023848679632
0.443631962561699
0.455114091490819
0.456752853890029
0.452396631071852
0.454084667227889
0.463567620645841
0.452653220298183
0.460019034208761
0.45333413286028
0.456429406356597
0.452623835719095
0.462126026364763
0.454228204292654
0.446107268703536
0.446319393503996
0.453294938063505
0.457626826868576
0.456710738000157
0.443359639425813
0.441104381348061
0.44663041616678
0.445647568657195
0.443178139550381
0.443471893372757
0.443184492054075
0.444065130880143
0.442606094384399
0.447831893164985
0.441417228125914
0.444817114530237
0.452860532721806
0.446085867268561
0.441646495706945
0.445960932708478
0.443346515576921
0.436562927494465
0.436022751033721
0.448101144538893
0.44875055570715
0.444637573828989
0.443787320080867
0.449476006356072
0.440945079867249
0.444737598213555
0.443843001909504
0.445114188018762
0.449050706346205
0.450370528781151
0.435257825232188
0.436210914755571
0.445242854134602
0.444240044272658
0.443031691501347
0.434574397583617
0.432822637144368
0.442199387644078
0.43227190082247
0.435338694790515
0.433968767089393
0.434846939576629
0.440452311154439
0.432987239776007
0.426833921073654
0.4322103207203
0.430310740422681
0.426708898215885
0.421124591060967
0.422705349717922
0.423955889953827
0.410621229532974
0.418053248387424
0.422296592462367
0.411881549969593
0.410211798597879
0.402417881713708
0.40381153153818
0.40512679657158
0.400966809530835
0.398242724613016
0.394517343502956
0.39089040899865
0.394111392495023
0.393720065583984
0.383196974747592
0.379593409869998
0.378892538294368
0.377090700469725
0.37763383360873
0.366561770931895
0.368498225321758
0.372423067662385
0.363827164337131
0.35917263490416
0.359662045107118
0.356390759571218
0.351531951269902
0.355838253548113
0.354357833869653
0.352637174713056
0.354432562034783
0.345857760082444
0.343285739376804
0.340369638322725
0.33735718305668
0.334232005840125
0.333492710503922
0.336847409386543
0.332218481740722
0.331201692241325
0.327139399774688
0.323337954564681
0.325947379127926
0.324747716055018
0.319907160127069
0.323332555852931
0.323143787978492
0.318894635521063
0.32297036645037
0.320602075649928
0.314586076073364
0.31491425716736
0.31009911768969
0.31110205832423
0.310460356593196
0.311655640056466
0.307554493984035
0.301513530541794
0.301562373204983
0.303745905738993
0.301414885591665
0.303258621623932
0.29894326469948
0.299193493244274
0.301350899736011
0.301718264420251
0.298022066298903
0.298045413858103
0.295119041403551
0.294172876366194
0.29646205949214
0.29579180111508
0.289856279118863
0.290877399458712
0.288553427994023
0.287931855771715
0.288841599079533
0.290336600341283
0.288479602182985
0.28707969755087
0.286923219913531
0.288255485192976
0.286163721265923
0.281307556112795
0.276914563969078
0.280729899445237
0.276852568080964
0.276530794948676
0.275403414668986
0.27577301627061
0.277403002820314
0.275760654792587
0.271158291957789
0.274141372007086
0.273102833856644
0.272096620048309
0.271721461025939
0.273815216649499
0.270627049115991
0.271809850736112
0.264427636317723
0.265372389217749
0.272207269763178
0.268683009998002
0.267124492370627
0.267953964178485
0.265127608114162
0.263761576669781
0.258096317950316
0.260317555907329
0.261460741234599
0.26142503480628
0.265710119591319
0.2622831369197
0.25819051599192
0.26208490248497
0.257406657532112
0.259243430582484
0.255937042020228
0.259329982305335
0.258765601248495
0.256761676543423
0.250704203217326
0.255876590364487
0.255172306840021
0.254806470893578
0.247718766664346
0.247349590395687
0.253741158683016
0.246121592958522
0.246692533316404
0.25039527101079
0.247473843720795
0.256451265117766
0.250358672970403
0.25322648347866
0.250843226911584
0.247748766714141
0.24533224396062
0.250317898943661
0.243486634756596
0.244891229346964
0.247398123284331
0.245501154053291
0.246625340036604
0.245829277848241
0.241058722341178
0.244538489148737
0.243811614872946
0.25210641818413
0.246595252278243
0.245320504515157
0.246085487812647
0.245289777645256
0.242356796562188
0.243586021875222
0.238548783271803
0.23861387226857
0.240462454148221
0.2405086173155
0.238166155220386
0.242367972688175
0.238656066800926
0.235952910302655
0.236280091831086
0.239529074451894
0.232862782927189
0.237256445544149
0.235078253033766
0.234773785610565
0.234072914850616
0.239389419699593
0.235118543574545
0.241789166669543
0.235081063784435
0.231146994040912
0.228519389620555
0.233935530684971
0.23122672098576
0.229436600016537
0.227239689736028
0.22882912974036
0.228765808479867
0.23195034048836
0.229520855750876
0.231033900905385
0.227292972926909
0.227587468189828
0.224855542796493
0.225287154433638
0.219942811270866
0.227010094239738
0.224072134227199
0.223112709468917
0.221054329039557
0.223904275869571
0.222574444572647
0.221311950822265
0.219484167000362
0.222152040647773
0.214230232441952
0.221590189069741
0.216766550860803
0.219421576644162
0.216930251249397
0.22186079157509
0.21498413225807
0.215590016871332
0.21309925074451
0.218460332307534
0.211376432787798
0.21838188325795
0.212313944878569
0.211236840057263
0.215882296397382
0.213133504400942
0.209766683349817
0.210373907935542
0.208666626342997
0.209809225500905
0.206091084630109
0.210431976995922
0.203512736892839
0.206648702661289
0.202014585502228
0.20626286336083
0.202856110737625
0.205179761434028
0.199743940924062
0.199966834962242
0.202641087420331
0.201349280775159
0.194782029171549
0.198999298559342
0.197724086036316
0.201128324036623
0.194996501948076
0.200508120253045
0.198285962062598
0.194252399573634
0.190084952840597
0.193426047834949
0.19425179059962
0.1917928921545
0.187738458387116
0.193813935101691
0.18583971167518
0.190719322044785
0.191960230090799
0.189482310755449
0.184474606934883
0.188475453774505
0.17896679020671
0.185602751223394
0.186906373954495
0.1860177395061
0.183395579931268
0.184160174061659
0.180642229129393
0.18294028744697
0.178810609941202
0.183167838700769
0.177443589461745
0.178150496937864
0.175920431244227
0.180520569663254
0.174198232049374
0.178982476218985
0.176579905941417
0.174447709000724
0.17527612583391
0.176822176888973
0.171665839825351
0.174815744198462
0.173146660822637
0.178536583347649
0.172232726245611
0.1752941653024
0.173072728518168
0.171687743234404
0.170221128363394
0.171856435576356
0.165457986190108
0.168751407540593
0.165705976665911
0.171798685437433
0.16656280589067
0.165080664973347
0.162558871217236
0.169625214319793
0.164222876467777
0.165678506025412
0.164073314467002
0.164581427423241
0.163269613230325
0.165542963523633
0.162670498890352
0.164360805019856
0.157621375761486
0.16517128095204
0.163544372617495
0.165251303420923
0.157242515428589
0.161616218444572
0.15671365426183
0.158721235147218
0.157652514314889
0.158045160566007
0.152781881720628
0.157571051352523
0.15369212712281
0.159923418753254
0.154302305355953
0.156686527906841
0.153961155191166
0.15691795321184
0.156234379728005
0.154821785752699
0.155706815091332
0.155505728561664
0.152452339077512
0.154422551834203
0.151784945202124
0.15252908566292
0.148723955656911
0.156405589655067
0.147963464504212
0.152604179147561
0.150873893865901
0.152917996715472
0.148539718868866
0.149717113379964
0.145579959349615
0.150717810226776
0.15013108268292
0.151005036507501
0.146381027675673
0.152695320987897
0.146972647919624
0.15064120288524
0.146387968018599
0.152293925549591
0.148896393621363
0.148521961252405
0.143560177225522
0.147780869207499
0.143368062429243
0.146573918833465
0.142323157580944
0.146011732083098
0.14470587421032
0.145253091025619
0.139981811854281
0.143948832088039
0.139684546671256
0.142038829987392
0.14275627851321
0.143309608873132
0.138316180247469
0.141953708954873
0.141601386524845
0.141846075053413
0.136707859180859
0.140132975070673
0.139007417355995
0.138601031260701
0.137220115012327
0.142727167060472
0.135536531954735
0.142491708592763
0.135507187212007
0.137138268257322
0.136551372929146
0.139391052104326
0.13493994961291
0.135678509836835
0.13827391929218
0.139752013809925
0.134279603833441
0.138227762189901
0.133462456484481
0.136479953303582
0.131825993251951
0.132901753669481
0.131187863436551
0.134398200005672
0.132051889821088
0.134986551478809
0.128995528446042
0.134122407379176
0.129108524826146
0.133452889830873
0.131872114170604
0.135395373978168
0.129979923613959
0.131355647592542
0.13060318519782
0.132547449846359
0.128246758925324
0.130985320849178
0.128326064311019
0.129958386694946
0.128682984949809
0.13251541015977
0.129135330292057
0.127400381446352
0.122486076852295
0.128353016617465
0.126915796537529
0.127868787287476
0.126037009782456
0.131443884215086
0.123986686056284
0.125846775726556
0.124759506628317
0.125901179963571
0.122658620240274
0.12344546009467
0.122834885423884
0.122961311225427
0.121116037997044
0.120101081083699
0.119330071545989
0.123304159855625
0.117705315196325
0.122207581982988
0.117459379501562
0.119625003649429
0.114906670661066
0.118460295693385
0.118751459141952
0.119056718233068
0.113080544852569
0.11924445522322
0.114839321635722
0.117011739431637
0.111730526907403
0.112551482943443
0.108808909394817
0.114215432171393
0.112803836549776
0.114533908478032
0.111885478592334
0.116448798585327
0.109154501272846
0.112963835905935
0.107896524532968
0.112492903254376
0.109978630800052
0.115823860288016
0.107691794702346
0.11113114368971
0.106894159054084
0.111597143916113
0.109178335155702
0.108523348157915
0.105722606375808
0.111005068175027
0.10227708216514
0.10954738493928
0.101934083590146
0.105031274701168
0.104867878793626
0.106683960542212
0.101704065051961
0.105782622973529
0.102459953888106
0.10727958379574
0.103757417142335
0.103009081598805
0.0991273985957898
0.10482034400057
0.0995858096684608
0.103703039555293
0.0977977679822415
0.099221029082357
0.0954751467205301
0.100003568668279
0.0982103250593137
0.103173834508746
0.10144135443585
0.10013851779241
0.0953215916515324
0.0997163512345102
0.0948938711745303
0.101060787415039
0.0958533996828213
0.097362127074957
0.0940124957538678
0.0955258669790892
0.0935192420042867
0.0957348357699908
0.0936578284027596
0.0965888706708234
0.0923977720065764
0.0940780160179784
0.0928656359478775
0.0927602642645359
0.0928263218929419
0.0970301669005104
0.0913616311777655
0.0935975728272985
0.0879821701764843
0.0935646279824629
0.0916878636678064
0.0930368696367929
0.0909663952078161
0.0918771139810992
0.0905664284887573
0.0924296155301741
0.0890719237678912
0.0914699802279764
0.0853378028903051
0.0926723966901298
0.0894092484808025
0.0919885469969716
0.0877316411495476
0.0924979424669426
0.0898618469611938
0.0927282904292897
0.0886960526562477
0.0927003789265767
0.0922034397366711
0.0965542911508272
0.0946979312396761
0.0948621135100656
0.0893683844087321
0.100312079025148
0.0935849120747022
0.102037193063288
0.0957220362572505
0.103579817093716
0.0984917950394819
0.102632963533346
0.0953130038845663
0.093638573078925
0.0929165148717176
0.100315303298532
0.0994263802228517
0.0987580419541525
0.0891944566997365
0.0990614840306829
0.100810035061773
0.09363985572086
0.0952863239723758
0.104724634744288
0.0871202174284406
0.108082288175856
0.0890657441716719
0.0973500486566793
0.0865571804897363
0.100780007773351
0.0956791197199966
0.0927944716331277
0.092909845195456
0.0910265177693918
0.0861633310553669
0.0909456025095443
0.0978053804701828
0.0944653572274653
0.0911676317723547
0.0919130644563524
0.0894523539619123
0.0903460121991072
0.0888081261784528
0.0875223387508778
0.10050755806212
0.0918389086331489
0.099259505184745
0.0874949687378527
0.0929154129680275
0.0850486669655786
0.0900619462688148
0.0821856142750045
0.0975562021139487
0.0868560269935176
0.102095798625037
0.0864495970306338
0.0922836898657956
0.0817491040386902
0.0913251422882269
0.09044498020704
0.0994036910620274
0.0815004883090341
0.0900269649056218
0.0845941381623088
0.0958857057918623
0.0831419955603749
0.0888622659394252
0.0903977041200316
0.0845921598834968
0.0848414262679162
0.0770270414834087
0.0899017654332161
0.075137048228985
0.0960666613885204
0.0758419943915749
0.093436737474452
0.0743756148818347
0.0901376391118753
0.0772955174857058
0.0887614089872876
0.0785929110463251
0.0820296534439908
0.0798010740675675
0.0808592330260303
0.0792775099357791
0.0800745953424055
0.0790317464300647
0.0788780093271987
0.075547024256712
0.0811091345650504
0.07480788273414
0.080809861524006
0.0738626002353832
0.079471507706652
0.0763914067770024
0.079711079217536
0.0729223980936533
0.0783808494833468
0.0724721252318268
0.0785910117543675
0.073295382898072
0.0789872074077032
0.0737876814385989
0.0776047720560831
0.0708163034468656
0.0760299200695912
0.0713045652080233
0.0771403344141999
0.0721642737676519
0.0768545942170672
0.0736632137532667
0.0784489864715513
0.0746205336739044
0.0799766796297435
0.0726049588684073
0.0786498206071171
0.0740815047875911
0.0791755983717521
0.0755104745736693
0.0784396656334216
0.0763823747800176
0.0796078841563524
0.0755887774603992
0.0800774027855544
0.0758402186895467
0.0780374383283
0.0736291347935787
0.0777177736118025
0.0767601286310799
0.0781120039471262
0.0722968407313515
0.0760807347025741
0.0718984432390539
0.0796099895513425
0.0726328570868369
0.0791672949063187
0.0729921773204788
0.07881467019375
0.0737592976312699
0.0774481642222663
0.0751633405360376
0.0783686781812042
0.0729009720775639
0.0782743769734479
0.0721053656856996
0.0781230526345238
0.0708578998980353
0.0778285212679712
0.0722031440442754
0.0759645959338176
0.0740849255827801
0.0751573242409577
0.0743291925644124
0.0788688591904013
0.0757014409947379
0.0775039461771848
0.073920834298329
0.0780672904016397
0.0748705684604375
0.0767110210138348
0.0724270784148303
0.0805850443804014
0.0758488248629101
0.0787622272196592
0.073939287258319
0.0797643427168199
0.0727328930204275
0.0779499631648773
0.0746212495790641
0.0797421774891297
0.0742356827231097
0.077808219785267
0.0750580311500453
0.0795046768627335
0.077612709834773
0.0774284097435964
0.0745327203671362
0.0770075152099215
0.0736468570388951
0.0780572494038207
0.0765399747111416
0.0787119153351197
0.0759503043697049
0.0775167306785209
0.0731576525168845
0.0800470890251357
0.0747389244933357
0.0812109357023173
0.0740113427746005
0.0802682474625016
0.0739336187330032
0.0783953256892167
0.0752981627614592
0.0774223839731938
0.0762688180716126
0.0836277161728242
0.0732611185057016
0.0792105153538341
0.0769775408904512
0.0807621433077876
0.0769594956323746
0.0798723574250421
0.0785685486274914
0.0812061949555983
0.0769889731973254
0.0807863028302388
0.0779392924313012
0.0802043699669858
0.0788955387880929
0.0826369382339394
0.0782994972005519
0.082236037015573
0.0754680896223371
0.0812058712745822
0.0758600979276704
0.0813325937223317
0.0776879170567587
0.0801665660275374
0.0760803138794961
0.0810495776665589
0.0785151344758952
0.0825218930353784
0.0779133409052509
0.0794479003141936
0.0761982478372276
0.0819199506959036
0.0802461864077378
0.0846558078162522
0.0803870084728144
0.083236157369224
0.0795137156919312
0.0810523732192244
0.0776535653478933
0.0823170632134349
0.0787742431402553
0.0816227758173832
0.0802119709782288
0.0828955018225204
0.079849669758299
0.0847551151615008
0.0785899225310572
0.0839446494002613
0.0829209230821469
0.083871735253222
0.0810290387928353
0.0817408877232769
0.0791923705687805
0.0822837299634822
0.07844529407004
0.0821317504779815
0.0811897463337668
0.0834352645562653
0.0810328139572527
0.0852834401871858
0.0789619424147157
0.0825558236803596
0.0772343223015232
0.0817878303727384
0.0772863672762867
0.0818371893895417
0.0779920074498778
0.0845344036375872
0.0792114532114621
0.0812756142635651
0.0788961801639026
0.0803650649676893
0.0773849985330792
0.0814539509297207
0.0779451561830478
0.081108023885492
0.077035505286934
0.0815229107097745
0.0774264210790189
0.0836023875383908
0.0769719849271689
0.0794732158896272
0.0763898484492177
0.0794547018005021
0.0753885800439266
0.07900251940813
0.0772635430494401
0.0792005994964494
0.075473647086195
0.0812826792343972
0.0759222931479239
0.0792699170005135
0.0785281426171166
0.0795338334077574
0.0749055262831725
0.0766735976117498
0.0738977819274407
0.079234927722989
0.0758433331741146
0.0780332839468432
0.0762647959891813
0.0780359990129285
0.0727482286003096
0.0786834631192996
0.0762525723564575
0.0763275286577236
0.0734830570542608
0.0787276932344032
0.0748012719489866
0.076935450546906
0.0729534548925331
0.07838653580117
0.074134509050546
0.0755266698952486
0.0753450003225457
0.0761523627404112
0.0755935617627341
0.0763284035903171
0.0755479287073348
0.0786333604083468
0.0730253141035029
0.0769473960254293
0.0702752423995975
0.0757021989948872
0.0737061678075039
0.0752394048782982
0.0710800835841042
0.0776727217550297
0.0707231505723125
0.0768349327905886
0.0705983146563364
0.0754980624386533
0.0741255396998541
0.0766713744466234
0.0727983644899797
0.0742833766838869
0.0718530009453856
0.0729605506598771
0.0715151976007796
0.0754656651762063
0.0724528005723126
0.072616176041981
0.0728841312957694
0.073904132314124
0.0717594712027291
0.0782818532127277
0.0707618133837566
0.0733186513808191
0.0707030082688547
0.0745430572727359
0.0719115310908477
0.0722398513023686
0.0705368101076613
0.0750223925608053
0.0727169448587331
0.0731989252723946
0.0703525876759668
0.074568180623502
0.0719310697684856
0.0715398901699748
0.0700186195908546
0.0707636678991447
0.0705075299395571
0.0730837584211021
0.0694960261921668
0.0716861798773767
0.0672778114438099
0.0712190871831598
0.0701364056571313
0.0711219056817285
0.0700920852548109
0.0727368291219336
0.0674567174617977
0.0710980239202185
0.0679035816635488
0.0710607673817302
0.0666214110667466
0.0677348635765758
0.0665405697770626
0.070182550177996
0.067158395373306
0.070640536358482
0.0660686990233077
0.0669966830888715
0.064543184296848
0.0682744107908229
0.0641856088359148
0.0696082572059187
0.0637958329719824
0.0678654998619708
0.0625513475282652
0.0695171961861665
0.0618342572718015
0.0682790041230761
0.06469681449051
0.0665136495632359
0.0630065942928097
0.0663203943217294
0.0647695473326442
0.0650823191244906
0.0641560209857549
0.0639149245887907
0.061950325096791
0.0653776215369029
0.0612648300657635
0.0623821597995151
0.0604606256093176
0.0641944430772273
0.0607334516510736
0.0621974694963304
0.0591031941860154
0.0618167171149434
0.0600408103446878
0.0613666851802496
0.0582565753896901
0.0612019723678419
0.0606402922541495
0.06102770749031
0.0600606729397057
0.062975799337381
0.0605317890046388
0.0574103567201675
0.059534255136609
0.0653982214167343
0.064903037605725
0.059556711844486
0.0597252632024138
0.0622489944160376
0.0595669775212183
0.0592298078767518
0.0596701583707636
0.060950425505162
0.0578217599365539
0.0589404918384819
0.0560659299423001
0.0600015257653874
0.0577253626878307
0.058425885941631
0.0584930564607055
0.0581787573287126
0.0576921181428063
0.0571609464629886
0.0557230230801214
0.05831820590334
0.0556778536943641
0.0575267733298005
0.0540522430686929
0.0562790525326833
0.0548290641049892
0.0597751015034307
0.063181296215444
0.0608114571681244
0.0553629237576507
0.0586562638547764
0.0545685393402243
0.0591712274758374
0.05349153919057
0.057997885045105
0.0549976370531687
0.0565349812610177
0.0538851768633026
0.0572682326738174
0.0536069445836527
0.0551363138156227
0.0530814395597907
0.0569776314077364
0.0528377779956641
0.0559707280905266
0.0506631827308104
0.0548658635575157
0.0504317667706308
0.0556764776741661
0.0521227925452804
0.0594219118763068
0.0508400074183483
0.0562361215394913
0.0570085005833866
0.0651011669440862
0.0537985713646005
0.0549390994768088
0.0542273080455147
0.0538098980798794
0.0517405169397553
0.0519540605921089
0.0521035406965587
0.0541668733404477
0.0515859022099742
0.0525374381930234
0.0511220400280454
0.0538099342383204
0.0520512715837187
0.0538695117232564
0.0498403090327128
0.0534391421826943
0.0500985957159634
0.0516734649357384
0.0523381416740594
0.0567379195569876
0.0587878704410392
0.0570500824527302
0.0487037307291111
0.0541411459937631
0.0561327161241255
0.0572594002524149
0.0574723901092923
0.0497711309876228
0.0523367134291703
0.050082169601582
0.052622680814946
0.0504853353294633
0.0540301437144439
0.0518275550334996
0.0565056707998928
0.0540283900768654
0.0532362330007086
0.0521894703853089
0.0507333248650335
0.0533437011280974
0.0505531418802122
0.0529453265892295
0.0511339763890386
0.0517192701766166
0.0479440217164228
0.0503454673176982
0.0504441593711274
0.051445273327559
0.0517219648775277
0.0535348484819664
0.0553434175535292
0.0504324681974887
0.0545245484079425
0.0481765743536798
0.0525646055906165
0.0612633543860746
0.0560002720305664
0.052976928793186
0.0490948721841872
0.0553137390456962
0.0483784558188792
0.0533245252155941
0.0469731804605004
0.0504687548601247
0.0492645675565689
0.0538275770248201
0.0503981503522962
0.0523669332840233
0.0492793712902805
0.0519455021215236
0.0468832442222123
0.050770583113203
0.0473259856358634
0.0511277413625499
0.0513991536484624
0.0525000364587899
0.0589046719171664
0.0624225374925877
0.0628741259364471
0.0562531682622905
0.057736135758792
0.0517540193403207
0.0496169628244652
0.0534363946876157
0.0501958679795885
0.0528640740325983
0.0497188160075468
0.0512347741912393
0.0492665138788501
0.0522654231167919
0.0498350528581377
0.0522786892816105
0.0474501297311277
0.0515415663838146
0.0489704290398652
0.0538326803427346
0.0473597212664206
0.0534464875955534
0.0459265804281119
0.0575756564215877
0.0516077077571388
0.0620163967725797
0.0445443769166382
0.0705211100519222
0.0544972543701905
0.0716213462444615
0.051953796703968
0.0531684479507403
0.0518290770098305
0.0527155872730639
0.0491579496540764
0.0561031424663137
0.053542247577645
0.0538390461170914
0.0485539266099155
0.0516870128934798
0.0522979974893478
0.0498152695275621
0.0544012272975554
0.074415114914755
0.068492283193208
0.0627761263966771
0.0479506003334129
0.0572338219963597
0.0654230043117629
0.0659267870433493
0.0549894988066014
0.0501015437904437
0.0565689588481413
0.0529983738304792
0.0530768940349388
0.0522286968574489
0.0583735847738313
0.0562788539486954
0.0520121685641765
0.054810755293341
0.0514081933589526
0.05407450630565
0.051228413305394
0.0595130551331217
0.058666504336722
0.0597955617544917
0.0573635912518442
0.056119537970355
0.0571720263000064
0.0553534212930711
0.056874515422048
0.0550469741512903
0.0580375945116896
0.0656632611829157
0.0620488170218691
0.0649071862941686
0.0637001965390446
0.0596005087275033
0.0572859763153006
0.0568775720867937
0.067502561172486
0.0527981652934209
0.0624490870068981
0.0665917852849256
0.0708392959987652
0.0773720001958455
0.0615026951363011
0.0666831906588425
0.0522481204824715
0.0675403279330589
0.048585658133735
0.0731656163851722
0.0576038907409119
0.0725080032689599
0.0460560207580932
0.0695482180623039
0.0528685769283019
0.0705670321334805
0.0580322424034605
0.0636062112884462
0.056848306184423
0.0704416828673759
0.0643465939263482
0.068355244759659
0.0763573073630703
0.078755776129988
0.0779214813339708
0.0713513044173843
0.0627436194451412
0.080399585811796
0.063046084709615
0.0757285374113956
0.0582690167712598
0.072082171031323
0.057700767017071
0.0692582995580902
0.0790370661340233
0.0859803828046821
0.0715879892991216
0.0685230639279992
0.0656384366512648
0.084946262363145
0.0790300331388246
0.0806422698055402
0.064808152155867
0.079247089110271
0.0633407779249233
0.0999880816251334
0.0759849366940924
0.102829976673925
0.0823373992336454
0.0956306114217855
0.0860735195766873
0.0886904737006322
0.0848429741298783
0.0863700746011339
0.0949790956470722
0.0950038546778016
0.079458934571835
0.090833939622598
0.0953630572008736
0.0855887713016275
0.0918725456084025
0.0804475009752603
0.0897378316119064
0.100116806501005
0.117369836086504
0.113345203142122
0.0963515421428947
0.0928561116347158
0.105973747617813
0.100627538373119
0.10168447653329
0.0924692923531878
0.0957797241117759
0.0961007121802106
0.0948105582250984
0.10471686005583
0.0963853578577361
0.107333468494221
0.0987666949124081
0.107416560899284
0.113499567534206
0.140292155529365
0.138153791443274
0.112838478881703
0.133704321135926
0.101473029287608
0.128588154030593
0.112101239774753
0.116385339841132
0.117317153287736
0.118488537146017
0.122038691049848
0.115600299810484
0.135807562237221
0.128026014552363
0.138905795432457
0.153991251248377
0.133691552500685
0.143530783379875
0.134072152208475
0.212828989136554
0.115998510484366
0.18198914790616
0.133693858313138
0.174386655105791
0.187892859569908
0.172506129715783
0.177343784449469
0.173973367273444
0.176591404141779
0.183386769182433
0.190889489434771
0.200155061008471
0.206920844679681
0.21714476871251
0.204454335180332
0.234713269216843
0.243729164743134
0.275592456719942
0.267331906430294
0.239390510096974
0.249935821684161
0.262002204418294
0.262393146015861
0.270900509813616
0.263829168156686
0.275183234790751
0.312351546885153
0.290748245879503
0.308644072127239
0.286722463309802
0.333966123960802
0.295582014639282
0.354779020573179
0.314343167817847
0.358634465662496
0.334980803778624
0.353544590509162
0.357915796774381
0.358721664631839
0.381491017652016
0.370494322928396
0.389435014098794
0.383920555047859
0.389581602571899
0.401094423141286
0.397200823181947
0.415439175297791
0.409827825537579
0.43332262409779
0.424182129092906
0.544841872186712
0.475274485909678
0.439288067214234
0.421542763550986
0.42029403984456
0.449609865901197
0.445638867898567
0.472051522213488
0.470251837885882
0.446345561371132
0.436504596439202
0.430541249073175
0.450432945993986
0.431974738284819
0.449049009044855
0.420205415175577
0.4519901641849
0.435040267303038
0.471698585004709
0.485998843543732
0.460757748907204
0.447768392654096
0.436281148627554
0.441129021153112
0.436352824207928
0.432931473497229
0.428446671342394
0.452763551025908
0.441833044591612
0.441948147782936
0.407939522484941
0.444260905043578
0.441446481893906
0.421442825270408
0.408633258221861
0.393647437934067
0.406847514244054
0.389581138082715
0.39230705879553
0.417031720784982
0.394762072926781
0.392526597665167
0.366444612530853
0.376467988477031
0.363194810275122
0.362988112050226
0.360434415329718
0.374242088430991
0.361041970363319
0.369143948648801
0.355014042457145
0.356304804589499
0.34503294783909
0.35551911002527
0.348820210095008
0.353641930423753
0.347522817084985
0.347233278390017
0.350938808778659
0.346630698544856
0.343849993870255
0.354554107844639
0.348847862902597
0.349146188208137
0.343051551346022
0.348174972359513
0.342694061833495
0.348789217197403
0.347410165412224
0.346153484982349
0.347989504103959
0.345044615363827
0.347071186104628
0.345113803921982
0.348487770687076
0.347330333844723
0.343063274329631
0.341218890438492
0.34575585401586
0.339404006743889
0.347684173642519
0.332029026251475
0.371607062857158
0.357413009510021
0.347795154025179
0.342705488033595
0.328590702636874
0.349854354820804
0.323358582723634
0.357786645910652
0.34638457725186
0.346851317948579
0.334065561098593
0.325798756170669
0.3249508262225
0.342787655252422
0.318834136368828
0.335258131245677
0.30301363578456
0.345022398439292
0.340571093221751
0.370561925980759
0.418628253625513
0.337632942328047
0.325528349463947
0.314513325302838
0.355159475580007
0.313493896012828
0.335187334478712
0.296902374542854
0.326498531611463
0.316697516606053
0.322914388535994
0.318344712746296
0.30037171060088
0.313331454295193
0.338175516274997
0.321154079169063
0.325127134403701
0.344921372041089
0.311614648380341
0.336153950696048
0.337223851798697
0.357713615570053
0.292101334095274
0.294816253383973
0.291768099378923
0.288243648174952
0.319658734841511
0.28544492398157
0.299600856636038
0.284027837638612
0.275887088471744
0.276726219849265
0.276167457635126
0.291333403968558
0.259939816859043
0.315790253912015
0.253683664180088
0.282128260071014
0.262480439561656
0.290184249680383
0.296575908084933
0.28978244750421
0.259337189807286
0.256922699761609
0.291146163802392
0.266873145828221
0.275004266867897
0.245065913278877
0.241858364421507
0.258635848586132
0.234896625295243
0.240615702446919
0.247491548129518
0.247481713242035
0.277453033537482
0.267436793134152
0.292430277998015
0.244324103789658
0.216850368982192
0.22085530590435
0.212181505496333
0.227809147451372
0.206908703891944
0.227701097504439
0.237181772515605
0.206724249416303
0.247028620165367
0.210271650579613
0.223766896552364
0.212892252734455
0.212068703179154
0.21716570930456
0.226549822198835
0.246015783638388
0.244520213000245
0.223378706925373
0.249789293151738
0.226106716399426
0.240771895385784
0.219745754517474
0.240106857699897
0.227571402149762
0.248542731572032
0.244687181076999
0.249769513350149
0.248244125605492
0.255978438000644
0.251643760806685
0.305812716933826
0.255553250982794
0.298728861810525
0.282414491690885
0.31882979502054
0.304807467831782
0.29518971054575
0.29892964490637
0.294995336934999
0.309799554775143
0.314009978812469
0.311218088180912
0.354325300910511
0.321268016440422
0.338568404591118
0.31894680117926
0.341182973192195
0.32723964690019
0.358916605377573
0.357478840870634
0.371901941593882
0.412661411084149
0.355411253832491
0.382578433120233
0.347069281391122
0.363016635045853
0.358115540974772
0.363057606319623
0.364785615610577
0.358202714554449
0.387017382042393
0.377055653803585
0.366270785896699
0.369003257970614
0.37093145676899
0.373637223502038
0.372364982187032
0.378969573887314
0.379222181260779
0.381328141268611
0.386982471142031
0.374968090994687
0.428824740789533
0.419264155061834
0.404176466134443
0.396191531810784
0.400745106205175
0.414530263972484
0.392262880672468
0.416462303893591
0.420307737423216
0.415500155549008
0.422515064100639
0.416228038971331
0.427242398032097
0.414378785959408
0.444671456428896
0.42373681266779
0.435128460371689
0.430971548226369
0.429457374142382
0.506043734653583
0.433295775963902
0.475834404735462
0.444913195676076
0.456075616633093
0.434532314008474
0.454550763610104
0.438591834589656
0.453815986991861
0.4513444130486
0.456107398894012
0.452292565788608
0.452287464002708
0.457150135038643
0.448320824906092
0.466820674946881
0.472106977217369
0.458199146615142
0.455995195300953
0.453250390871495
0.455979774925016
0.454442231699049
0.479442228622376
0.45542204450923
0.465307152417561
0.444628895628007
0.471726449147067
0.474644479081432
0.455463820331187
0.449520337462418
0.456451585348118
0.452762629349288
0.459650313805094
0.43348249210986
0.478522086842706
0.461302018969009
0.470019636501905
0.447860279988452
0.467161413495013
0.455581571515528
0.462758469664344
0.461653433709969
0.47119734927698
0.460857383654571
0.475128693403023
0.462922727158997
0.471847634733291
0.468845731584047
0.474667576385362
0.493571677454483
0.481090605866098
0.463381653733909
0.471274074853961
0.460745559990247
0.475317048109002
0.461652451967806
0.462126012472175
0.45088713990382
0.46907966850839
0.438705964413328
0.470976305859556
0.451288875951544
0.451218716140415
0.450133247312357
0.430564313807009
0.432022321990113
0.424666497938431
0.432550353458495
0.420589026750469
0.425706996267077
0.422365087360768
0.418907212792726
0.41759139897204
0.411391808599239
0.41435584094706
0.416814009427668
0.414611231212029
0.407637427892291
0.410371083630313
0.411322565505009
0.414574253497419
0.401879452519385
0.410754437630337
0.404269520599643
0.409341580930963
0.423701552395606
0.415856716265123
0.413947250236923
0.408393205794123
0.423037810034321
0.405049800362651
0.40850863550804
0.397362518500299
0.403755045259562
0.396850393715972
0.402747852159414
0.405381623141474
0.400871308240714
0.39917599021693
0.399974205305474
0.40145085501245
0.404558268322324
0.401932958846441
0.402402925251915
0.402922194320627
0.398580039325694
0.401571149648964
0.39950290201409
0.410281124909038
0.40038465057326
0.411505622535772
0.39775061880623
0.404485985602782
0.399198429083089
0.404611171815784
0.402538870596845
0.402753795714758
0.40007055809198
0.399697956744104
0.397749469038252
0.398684080764563
0.401543768950592
0.403555111780441
0.396595276798896
0.396316188924578
0.394647743565059
0.392791183549695
0.384701673041276
0.38676417011511
0.38337371259363
0.384756902496146
0.380121508763292
0.377574399768607
0.371163989127744
0.374058941454406
0.369438782938168
0.363918968710055
0.363945250540046
0.36651381337622
0.358775241568061
0.356333855385355
0.356830396888262
0.35595694277379
0.35316280155648
0.352214581294387
0.349792714342288
0.347226480884297
0.348353377389408
0.3492949957296
0.348222834547972
0.351649575585543
0.348009830141573
0.349474785005001
0.346560300367637
0.351615360571089
0.350750087696713
0.350370874064916
0.349683270037349
0.353763429429398
0.353131717928089
0.355793612506165
0.359167381866962
0.354794628689046
0.358669029180901
0.360958121245337
0.363260827213953
0.362613225220072
0.364500667481323
0.367495295398275
0.364634380994116
0.366998488878228
0.3703506004573
0.366619365393374
0.368251873099121
0.367106477047443
0.370373234267021
0.370975262862699
0.367737744577153
0.36851627513289
0.36624203416294
0.366222404401332
0.365035825396251
0.364326083715018
0.362937356520385
0.365762444713674
0.361714455928633
0.362997002124594
0.360311975003139
0.364303473447306
0.359934683633301
0.357331709789433
0.357149360895813
0.355941952566741
0.352176214420037
0.353287249215406
0.349952308514881
0.352133857128463
0.349761576523842
0.350876180473451
0.346868069941232
0.350441390147882
0.345762460380804
0.346718391384257
0.341918504912774
0.341279722814112
0.339971951820766
0.342825200603655
0.337146935594579
0.339458724599028
0.334650009374254
0.336857644540044
0.334252949864817
0.331790772020262
0.331372652270399
0.332995960174429
0.32680802316149
0.32555991161611
0.323188899069437
0.322598999234006
0.318678140927011
0.317307926024007
0.315514608028872
0.313046369005242
0.313225716919578
0.308733393628972
0.30551320334351
0.304049260205069
0.300495572233726
0.29670646229465
0.300553940292492
0.296694174115412
0.296978322770928
0.297157401249782
0.29634562374026
0.296233660111962
0.292486270315639
0.294587609286951
0.289858637813741
0.290048855278068
0.287296452176391
0.285819326458849
0.286113532131131
0.280827114518043
0.274726330356729
0.276888301537938
0.271407734167147
0.26643628378707
0.267273398621916
0.261919414432282
0.259487368384789
0.260907963419926
0.259822439263812
0.258442639453629
0.264729703888632
0.263397839858981
0.265167172579297
0.272679207335701
0.277415010216388
0.285038155454002
0.289979365714409
0.30037235830769
0.310941069397971
0.321162066002731
0.333681198455175
0.344665427229607
0.355986589303161
0.369069905246625
0.37638782763114
0.389433584701838
0.40110193024382
0.415728114669571
0.42722000133503
0.437434545516424
0.447345397599784
0.461550893327052
0.473037520651066
0.484191476435528
0.492721669890298
0.505308215009385
0.509375071206012
0.521153545768483
0.526684545721377
0.535691312280249
0.541955730909604
0.547414327091599
0.558806144215889
0.560617573548515
0.559714950876298
0.565409041604456
0.572388693599057
0.574737523131795
0.572009987766075
0.572873258812727
0.57397001934748
0.57408013442355
0.570150894629542
0.579331110129437
0.578153451486572
0.580629026276319
0.57393468220041
0.580151492931525
0.579643272530128
0.584365784243884
0.58442300698895
0.581857534897261
0.585857416079356
0.5968413334299
0.59610744948814
0.606898597394749
0.609105423786381
0.609024641526917
0.613926752936013
0.623933106426107
0.625679638192761
0.641559831448129
0.644475708547194
0.652715149647636
0.665202429477702
0.670427691387761
0.68289925377188
0.687043637806458
0.699650903574617
0.709122400044483
0.713929890263798
0.713297857061323
0.722279321991894
0.72778087948378
0.723915887250831
0.728090608065686
0.72400746912035
0.729005616851732
0.72938596667455
0.729163267551292
0.719680555818676
0.714311734659984
0.715279836878865
0.713156056080147
0.71296651978771
0.717807535497621
0.725569380587269
0.734022351479257
0.743633073283676
0.75064198870012
0.758142232879432
0.767681092522184
0.775277985554986
0.788191354788482
0.796359784351673
0.807220161588069
0.825170692833554
0.838357289122725
0.837036509984332
0.860857022272903
0.872754780216786
0.891249810912832
0.89694862529364
0.897801682698371
0.921603900420459
0.939399088186515
0.946444512624881
0.960487101559963
0.979369462047507
0.988226997312478
1.01737841422836
1.00827128258679
1.03711585377014
1.05418917583237
1.07737409394632
1.07656126878302
1.10102507988903
1.119385002465
1.12577834136711
1.13529153544471
1.15258936325991
1.16043296099504
1.15812194301148
1.17474284522878
1.18634579909351
1.17047267724694
1.16780743855544
1.18549733073757
1.18093350237139
1.18490717116958
1.19338198167385
1.16647483462823
1.16737009378434
1.18204201005336
1.14790330326359
1.17221421785721
1.17169973197887
1.1620163989004
1.16586336608896
1.164978324213
1.18268816819909
1.1792834338423
1.21124259347075
1.18281421732775
1.21019885271206
1.21139010464694
1.24692731194115
1.23287025062421
1.2632492502782
1.27984842396908
1.26100051851941
1.27232099529562
1.29451883660844
1.29091918755613
1.29777127114625
1.29974196934384
1.29164977703437
1.33118787490071
1.32116455326131
1.31519307310091
1.31394872522555
1.32492757483429
1.37363264119542
1.35010011790514
1.36588280674479
1.3735088620406
1.36654672680321
1.38195988509769
1.36272841500201
1.35989467621893
1.32424268970913
1.36452637294589
1.38039735439957
1.34166094927127
1.34994643464312
1.40277770268729
1.39272240017884
1.37701947081373
1.40313230461953
1.36508939022105
1.34593605329639
1.32599866739958
1.33532379847965
1.29512128035796
1.29436226765768
1.25472799392402
1.25309510287215
1.20311480380802
1.22136482056114
1.16627114371185
1.12588531156206
1.09383075656507
1.06725378905095
1.03370991795
1.03140142529356
0.996161948371907
0.990321867768567
0.958257528832203
0.964708022380997
0.944637600845027
0.959939586966485
0.938141554272012
0.936691787551828
0.933691477539228
0.909570646565342
0.896960243769443
0.909722729730174
0.88068777004486
0.896389396191731
0.901526733232997
0.884335938963177
0.860051817982372
0.862872822127961
0.835386990639825
0.829471591274746
0.804943297550418
0.779940701698772
0.772069889774464
0.748040353655239
0.722087240164321
0.713106209584668
0.689531470436331
0.658255642703551
0.639351557364597
0.606052866243262
0.580135095690735
0.5656191314406
0.53620666608036
0.515735193631337
0.496768450609029
0.4791702391699
0.455202638410959
0.440843095936738
0.433420902646445
0.415765756373831
0.400761454701824
0.387611044061702
0.381864062989229
0.374317254684914
0.369882653287025
0.36683652544622
0.359664536493605
0.356350326511413
0.353528766267997
0.356980085822535
0.35076301531464
0.343412974330434
0.344041349655587
0.344111949950248
0.342777115598239
0.341991858101497
0.34153960557567
0.344742967813088
0.344185971921459
0.350232370606712
0.347858956793549
0.343202684570458
0.345975947445597
0.343610343994355
0.337709973884113
0.3371116622743
0.33546201215501
0.338382377713163
0.334600176075836
0.332744144324305
0.325382050997077
0.324247812009923
0.319667200779784
0.319481411010607
0.317149483222308
0.316820250935476
0.323196565625696
0.318911824650392
0.324725276587303
0.324349757543155
0.324965965890621
0.32547493155119
0.330558209859117
0.333828855776133
0.328731663679887
0.3351315682976
0.33763500881511
0.338306918116425
0.339432854938481
0.341108676825738
0.347107236868915
0.342605325080376
0.342962636566855
0.350018456372021
0.346753087431181
0.352885719900195
0.350626495232896
0.349117580391665
0.347276558505054
0.347871094565559
0.348873989665511
0.352157118763531
0.350627142828447
0.354023103212616
0.356465009909387
0.36733252209927
0.364617473033872
0.376488258097919
0.381529177748532
0.382765523562023
0.391738696666512
0.405344488650309
0.414887738810503
0.426434026627244
0.428618523636872
0.439763982119288
0.44131491807954
0.450784023899767
0.448135078636329
0.450067955708241
0.443703008836968
0.450756502009816
0.434980435283632
0.437359898086503
0.426567217053772
0.422592580371051
0.418681467923052
0.409901868200067
0.405614004450286
0.410577534608889
0.402791354747443
0.408890231966511
0.403369760804961
0.399981181572515
0.403903557678972
0.406113289981347
0.405845625056167
0.408789018164853
0.400510910660507
0.405586204947554
0.404902850999407
0.390963893030415
0.395809864183063
0.399727111450198
0.385697447314001
0.386685980054928
0.377001667611996
0.388240360737448
0.379870122546655
0.373448296201918
0.374490644483684
0.372570065341227
0.368465311231576
0.362549493377462
0.365022399916577
0.368526775011323
0.368455901284911
0.365399149904855
0.366714456979795
0.364053144930974
0.356804495803573
0.358353031332456
0.350779687256483
0.354004657743037
0.356474521950311
0.357045860017951
0.338875593354209
0.350713731846136
0.346822003379381
0.353305062924746
0.350257676747188
0.340530900729098
0.339111274992019
0.347708122919563
0.332552771884831
0.34904047576574
0.335566903024096
0.342842154530774
0.33419063986552
0.330708467083474
0.325923620539735
0.335028050653063
0.336242564164777
0.334917604411864
0.32812067176916
0.33084341541775
0.334155895815277
0.338584226227466
0.328989526993651
0.325432756416883
0.326958150977853
0.330261742930984
0.335354149506631
0.34148744051517
0.326091729220492
0.335527116068304
0.335272833322444
0.347040804391185
0.330376351848097
0.343048553279169
0.332071972141895
0.348530543507459
0.347473285003653
0.348676159853628
0.343305640297109
0.350220664313651
0.347641309266989
0.369487044913761
0.368398818573826
0.367240946645813
0.352325836842831
0.369166657385494
0.367159977040155
0.383753857481318
0.376791561519498
0.377169802537301
0.388342210408441
0.401474724570011
0.398786291274494
0.416423204313892
0.404544354555333
0.435739777844851
0.436132725607677
0.441149396151633
0.439670399269569
0.456329744426746
0.462843180362823
0.488408008359426
0.501344488129096
0.502583842608582
0.510853539355349
0.537944895628573
0.52267609546576
0.532015345998024
0.552369209081981
0.549108369672151
0.553367039885822
0.562081070935195
0.544881326180013
0.540904049637231
0.550336942374942
0.55724579192872
0.530260189664493
0.543823900892742
0.542276629610143
0.538086698055398
0.530527712033614
0.555980918726919
0.515350300592038
0.546317828432156
0.541051393142817
0.551209841661555
0.526711903582414
0.540218940774849
0.529410440257149
0.531933857349591
0.501997516622676
0.510080374429807
0.518105702621626
0.525458558266438
0.486316455160655
0.510643314643591
0.493961719280944
0.513241540960328
0.48731311620947
0.49731908532979
0.480122159481773
0.49114573517786
0.522179620238023
0.521002828036297
0.484412927508208
0.497904603418165
0.471392557190517
0.478628986744312
0.495969801101789
0.516330519836947
0.50548012468725
0.520892763955931
0.461541350095411
0.488241602572981
0.509900117228599
0.516263422668484
0.508639565474851
0.521835954568746
0.489470810382019
0.506150793547855
0.484850948331812
0.551729660621437
0.516300260730241
0.516614541101064
0.532220328826423
0.521987204968358
0.515167937736926
0.527396160697665
0.506718370607472
0.606227091998784
0.519890880741934
0.559379116718361
0.547980308444948
0.581344400747765
0.517206745864207
0.549863700783419
0.521728535581144
0.57487863265987
0.556013759153774
0.546178411529366
0.544506464291449
0.571036840361383
0.583073135056256
0.629298335232053
0.594105966490463
0.613557973546685
0.565967824719909
0.623500842303336
0.633502107374152
0.61136538621421
0.655219788827756
0.74752028869138
0.671525783966337
0.690950608544426
0.695940877158757
0.662818305830459
0.665097637928273
0.686422781837759
0.642651408506188
0.711151371585849
0.645797921818062
0.659312334342512
0.707763558300159
0.720172378347254
0.697765599399887
0.683163255852242
0.702092565469561
0.720265720594532
0.586765527032688
0.637422519184905
0.581165591707639
0.683197477014545
0.701802070657814
0.67431071086213
0.621388116373033
0.7697644666585
0.575004581783722
0.702710681937936
0.701218879236341
0.861082346039472
0.658985926756771
0.56253450156217
0.641935449630817
0.85637112716889
0.748965811060503
0.690899238880604
0.556274766149819
0.756801178493106
0.616334334104442
0.593292706827517
0.599720116683705
0.724213689407728
0.673956790074701
1.07414688007897
0.657280746454911
0.861761510994467
0.784023244421197
0.718625688176521
0.750348685153322
0.775141312013328
0.518359316017099
0.684397009392597
0.865914224395441
0.749156339416613
0.555672051329814
0.590141204373643
0.617252084008894
0.873750610203198
1.30088448872487
5
0.907382840165253
0.436841532708849
0.611874542957572
