3596
4000,36533379555
650,420452594757
1
2
2
0,0343074063273337
0,0487108264475103
0,0305382131028455
0,0426430244948452
0,0283933890210219
0,0367002493947543
0,0272992053724597
0,0485185540661981
0,0294256630918676
0,042725383554047
0,024030066258322
0,0428666079759117
0,0271947732436291
0,044067386259674
0,0254698645826825
0,0384639957782428
0,033326988690973
0,0434440462935847
0,0251372734270537
0,0382634360282982
0,0231100337596653
0,038822049258298
0,0218597616078134
0,0443183466912452
0,0283601978811043
0,0434220866385452
0,0298527582755071
0,040904135946547
0,02807726331045
0,0433072390549485
0,0232430461109442
0,0438522588877106
0,02456091320373
0,0456944307065025
0,038361294309052
0,0393876718415493
0,0331058344006211
0,0499814132428201
0,0301144738711607
0,0489470583866062
0,0325470625075891
0,0407557823891196
0,029281810264422
0,0410032499621312
0,0253705617191021
0,0433086216187312
0,0329475182860596
0,0456423545245468
0,0313014133415827
0,0398352557999884
0,0303889148461994
0,0357675740804147
0,0341688403445971
0,052196428783677
0,025730013796422
0,0508974890520655
0,0236357942205594
0,045997786620049
0,0335216729484804
0,036892897247407
0,0378245731984261
0,0473132054294608
0,0220003210078994
0,0461210055401169
0,0230517054930443
0,0484884248303152
0,0277902640223495
0,0527290838084032
0,0216016912453865
0,0475360695088338
0,0151674036734768
0,0542741495678166
0,037855565222496
0,0441400443322013
0,028726302172092
0,039145958573541
0,0262165668715212
0,0458787925586682
0,0185265547960548
0,0475271090364281
0,0338947449613063
0,0481828518827731
0,0340572837423453
0,0408774117935431
0,0256994639889649
0,0551030782084279
0,0160173855876225
0,0541822646680308
0,0417114920541016
0,0491377198479502
0,0284013157667673
0,0472734263375186
0,0203413612555834
0,0430175410382038
0,0282955591512399
0,045604413356964
0,0281090006955267
0,0482202580938494
0,0258591266255843
0,0413554952503283
0,0156431594155527
0,0477288845962935
0,0677468132397724
0,0149442316239966
0,0442094652197946
0,0380920629851009
0,014215984999628
0,0753960626006488
0,0325411314036649
0,0472857157528542
0,0302094185876761
0,0459485946802356
0,0202404707905822
0,0491072548503753
0,0127002870987517
0,0467216629994099
0,0445760508228282
0,0495607307923919
0,0301368959124905
0,0445606586520181
0,0129702339018342
0,0555283000427657
0,0511344210736812
0,0371326480265337
0,046837621665072
0,0380434455406396
0,00822997653790754
0,0507802182913168
0,0431191769272272
0,0381341025221616
0,0324979816138612
0,0411812346810571
0,0224998014484751
0,0341546367629754
0,0521945983660065
0,0355797589599663
0,0342771678675622
0,0293382175300547
0,0308610446378992
0,0731415439485311
0,0249308728496899
0,0474985512089651
0,018163490284978
0,0379187770442336
0,043702532916716
0,0447410451260601
0,0252096704316427
0,0652082504494574
0,0336346471959974
0,0362439577507748
0,0310336447327494
0,0347032816077373
0,0258318391482368
0,0507484855871642
-0,00882545007580281
0,0669205783036825
0,0501603845035766
0,0287940002888747
0,0722890613020137
0,0300301638831279
0,0453834200863401
0,0361019021005688
0,0398193949559407
0,0338264020749844
0,0385389496945313
0,0287922977206526
0,0299857393943824
0,0420086096538604
0,0271524207696198
0,0373289675006074
0,0473075974159907
0,0473563992226308
-0,000894860842149518
0,101877484538246
0,0297243552416546
0,0408480283987069
0,048018932776833
0,0470355950575026
0,0263771770125206
0,0414591894107309
0,0499075110227042
0,0333347915760318
0,0308090151751685
0,0391021732721006
0,0345036979908329
0,0531437791214955
0,0299953880855395
0,0403855189782928
0,0337332263268141
0,0255449763915146
0,023290280290438
0,0448013922582895
0,0446337820620659
0,0403339171182155
0,0437414783792016
0,0151595325613074
0,0408452832276477
0,0539182317155043
0,0372101896244839
0,0497633276806334
0,0309638602126418
0,0424112708101749
0,0323359135362411
0,0416052076265696
0,0354490031370516
0,0216274687005189
0,0577585399153525
0,0481510317216102
0,0366105941433057
0,0362193555051797
0,0363972361205344
0,0267384438627723
0,065678886004496
0,0559018162168581
0,0268608702103699
0,0471442009671285
0,0238529270339452
0,0571770839486493
0,0353253642827273
0,0396472917322822
0,0361534172109385
0,0453338153388171
0,0314267827947608
0,0441866263001261
0,0364586119367429
0,0468320651624092
0,031616867807743
0,0417748377207242
0,0313764843613205
0,0419450023541986
0,0380668191151349
0,0508782454205088
0,031523118876892
0,0465576592623653
0,0233646146993379
0,044744554839757
0,0540938997108792
0,0460915572997338
0,0436715518744663
0,0436978188086792
0,0427686274514291
0,0418438122717932
0,0407669571433192
0,0449324147802375
0,0339453885034273
0,0252569613690516
0,0641747312143045
0,0365061948016272
0,0476880168215324
0,0327030694399761
0,0556409423273629
0,0493794879287938
0,0453696768544022
0,0392902748385892
0,0455699025462386
0,0430464922143735
0,0236676892934548
0,0653182845264973
0,0475764283648498
0,0437480676141213
0,0437867848310393
0,0501075171656164
0,0426984057158346
0,0452829037717899
0,00392065268433162
0,0991965874313081
0,0375171281781028
0,0326120816590544
0,0665730319465937
0,0513604107210434
0,0489258812676745
0,043461197173848
-0,011539078239468
0,10486044207049
0,0693405791931007
0,065738716220173
0,0312413943471526
0,0630152476499766
0,0379941948180284
0,0570315510267077
0,0326968578076286
0,056291298091493
0,0649449331968302
0,0486192105122391
0,0818337820445448
0,023168441673396
0,0728380613707454
0,0563358404957647
0,0519425384996493
0,0566258800591169
0,0461354930291938
0,0450826165947441
0,0449325331293565
0,0560218266679442
0,0500735113641182
0,0621359733221145
0,0387073330513275
0,0684587324125631
0,0496732721256475
0,0642915766819928
0,0467602401830674
0,0690083397457169
0,0495352728511279
0,0681170154736383
0,0484030451983153
0,0784421804997174
0,0484555095486429
0,0505461705631019
0,0923581282527764
0,0626272412629758
0,0540330765029877
0,0952412010277686
0,0616286193814573
0,0637122810923731
0,059492204328423
0,0766278376967272
0,0603535173942244
0,0748908841099418
0,0484408657195464
0,0910097658503721
0,0590354597784855
0,0771740496499446
0,0729695557649717
0,0844701588818805
0,0739674103701791
0,0844682932405403
0,0735896725467816
0,0786172978264935
0,078303024484613
0,0794784663363879
0,0778137066352126
0,116566966365977
0,0551357321933455
0,128340173773428
0,111056402983182
0,0998886004739369
0,0963199679035819
0,0957357023543204
0,0981783427924681
0,100212988847204
0,103106082327348
0,111920297584589
0,111253231204247
0,126491517538808
0,11684382526133
0,1188767553979
0,117154776941926
0,140872512703539
0,140542776155414
0,139306862558962
0,133857912711558
0,1162670006598
0,153047967370588
0,150099020666592
0,13465755188776
0,174717961658929
0,132634006393091
0,167148747923364
0,146144969150627
0,171925097031887
0,153112181016609
0,178474551797927
0,165714996974065
0,192097981897398
0,173053439820108
0,196309709365197
0,172659920974662
0,192775232383324
0,208164745488308
0,20936246417789
0,185830104011064
0,215118566991621
0,183432104098849
0,231412093730348
0,208008782183902
0,260481260070584
0,225728827018301
0,22647384914186
0,24244870531633
0,236373286207363
0,228785428829439
0,232622796886628
0,237880819774794
0,239332575168307
0,229870874447826
0,245794445369158
0,243948324836749
0,260021566523481
0,260716460576384
0,256345258043185
0,267749902332405
0,267415758838629
0,275757120104655
0,269774723111699
0,282899166020568
0,271835486597833
0,27505562996535
0,313660258998396
0,300300675368093
0,281698848343313
0,289226551149124
0,304010712069322
0,289428083813872
0,308068850531289
0,299288089867566
0,320814955449181
0,293370627532856
0,339797548655793
0,305543477584181
0,327678297985202
0,320936542848784
0,317994257053349
0,334565284452861
0,343786248213172
0,323161886293099
0,360078120596535
0,338177606967408
0,343430518921119
0,338948791491344
0,361840875068433
0,332566347832646
0,378381816123313
0,340780867822522
0,374230205572866
0,336168446937246
0,380476337602819
0,350339297427348
0,380938072800361
0,364168040616089
0,391848838912967
0,375272842103341
0,384451556167484
0,367465955629963
0,403801437195642
0,376172538853909
0,404818788934645
0,409245352003468
0,409817698012058
0,384325814529407
0,403080005536547
0,405679081012085
0,427461382836206
0,392854580607727
0,447492269843514
0,395338461598718
0,432819148935715
0,396598994013308
0,432953857138272
0,411994075366937
0,452873615116941
0,423176985591424
0,446095876688466
0,413991014171205
0,454352382865572
0,418276980236873
0,470574436116562
0,442253815550432
0,47973804808861
0,446240553411648
0,471435038361662
0,455852098649883
0,482212476830929
0,47052110202234
0,502506629290222
0,452475267366416
0,51938415349881
0,47710407134728
0,518958145504898
0,47676895914728
0,500753964515783
0,480150180043125
0,532191003520944
0,496804661414731
0,521404029358476
0,489142408308511
0,551265773012857
0,50772388129955
0,512859488722218
0,504884101639301
0,554621390069043
0,520246920507796
0,540136752181823
0,516949095593534
0,559708868110792
0,531650978536813
0,573437632129475
0,53170335983278
0,56662933607982
0,546231562497118
0,567958266963219
0,529529448280698
0,581766205147959
0,559777484125153
0,586697118046655
0,582950019150995
0,611135257894259
0,559607648089451
0,622294011148392
0,575108439500145
0,609329897023643
0,577570476505226
0,600651091097497
0,583467724585982
0,631249368180692
0,599892301831315
0,651495044489234
0,602408642928775
0,659860461565563
0,586862094755996
0,622210090781085
0,592740908564763
0,640449437003542
0,624053362282567
0,6729283069742
0,611298039295206
0,669892878786531
0,647031446363175
0,681743561216437
0,665533117218375
0,70707268198742
0,65379290403951
0,680020217758116
0,651466342285759
0,685966318279829
0,649380041408954
0,723759147208617
0,705764635930147
0,705922537196296
0,653620894872628
0,73501117519941
0,673001426521766
0,673907550990017
0,677435879744629
0,703763310921621
0,695243122229347
0,745314335582383
0,672210745545315
0,748859681163128
0,692472091369808
0,770308624463482
0,718073462952702
0,77812133742397
0,760796193190197
0,751878309910705
0,705369983202604
0,792463764841576
0,723528369141454
0,76687919207654
0,739489666251911
0,787645051990882
0,762452804136262
0,814342724869011
0,754103985983626
0,843042541977207
0,738941357973001
0,830084044463807
0,739516261551217
0,820537604175909
0,767959331427222
0,847608805216005
0,782366084410775
0,826859179795781
0,793401096297122
0,852555312141088
0,829266397635463
0,862053001945312
0,812349337605067
0,884034050855904
0,771800154340614
0,870074909415311
0,80524121920923
0,83941656940171
0,901466272861782
0,968302773024925
0,856914346435438
0,914139198474176
0,832758502520521
0,906837496192986
0,845362236184596
0,939828091506049
0,893437412212315
0,917503387122854
0,87516225857818
0,91455385923425
0,897670511915774
0,95852416609387
0,878231750139924
0,931375616158953
0,880538136487596
0,997556279518705
0,914296182839456
0,91993028013542
0,89679901257106
0,973704219850315
0,903768327625621
0,950368271736013
0,900218574650107
0,998215293072355
0,898241968936472
0,98228503592665
0,931085845368106
0,96166937038206
0,910698300713567
1,01109916427377
0,930742417369908
0,952224355591776
0,980486909637169
0,996540727074516
0,920154943982381
0,992343485300009
0,952583436245848
1,01855873394956
0,944020835138413
1,04769884215661
0,953596330065528
1,06168090413569
0,975405913373054
1,02790311820253
1,02197284398949
1,06924800892264
1,04190996658983
1,10337157474285
1,02239919540032
1,05477785522853
0,994606548069108
1,02335894815089
1,07788044772168
1,12996823415051
1,00852435964381
1,07868010646573
1,05218254611808
1,17097795773408
1,02468799587877
1,11846848911462
1,00782702355097
1,09656094130184
1,07391829215772
1,12644269227062
1,01621429904981
1,07499275342939
1,0148655886279
1,14158614377952
1,03514484884234
1,16842691146835
1,05404341620788
1,1653776185046
1,05361765424248
1,1913549368073
1,09567094593737
1,18805514205219
1,05977972476753
1,11685652129649
1,08410148313626
1,25244710372833
1,09485297429465
1,20875177991521
1,12754566163393
1,17085435479881
1,07983598959464
1,18902677437977
1,1419103789716
1,24403179433164
1,10973335210614
1,11214913888409
1,06587451785549
1,23423505965936
1,15432431359977
1,19212646830992
1,16440310930746
1,2111522768367
1,1436060337576
1,19737319688912
1,11005149783144
1,23314271103145
1,15910639245462
1,20422862195739
1,1427134950973
1,16944567668725
1,10154970223315
1,18900581171112
1,15016628182729
1,23873994056974
1,08928028635539
1,16029064841943
1,16576404631501
1,25619326489434
1,23251161911606
1,22953641175859
1,17782555342132
1,30392630026525
1,15393042547049
1,25164144638636
1,2068071400969
1,29584823768275
1,21264271451898
1,16994191015201
1,0683710285144
1,30279265387554
1,18226074615847
1,32224210814072
1,16085799818978
1,22878842772297
1,17025234196902
1,24113394100364
1,16270974193894
1,23563878736454
1,2186608921268
1,29510342318838
1,14903700311168
1,19925792967283
1,11781514117046
1,22885553588381
1,18792902568856
1,26976713922114
1,14808968013796
1,28014484253082
1,25988105219989
1,25111186988293
1,17243743731274
1,27112121046087
1,14869118227018
1,27238698154778
1,12893951137532
1,25213581847474
1,24431399437254
1,28944278605123
1,16309466082898
1,23023460374512
1,16692020526477
1,20549273743131
1,15301784052312
1,21881735583156
1,11657879219771
1,3087879133119
1,21497803540962
1,34573052471132
1,2313621710987
1,21179693558838
1,18899930420671
1,21372104833696
1,17144646524576
1,16640565209324
1,18537265577877
1,23651066469728
1,15910692953374
1,20555637684531
1,12941123731169
1,2428577460887
1,1866778098908
1,26944521560876
1,13444535467468
1,3041064198689
1,19985892749025
1,18985321032976
1,15001758553828
1,25361981394178
1,19006107044531
1,26689759618111
1,21867740752915
1,26124560362996
1,24665786692177
1,21441591441681
1,15957187880916
1,30675344027495
1,21123980948721
1,23682476094602
1,17525429735628
1,23386190215244
1,22081875342079
1,25785253426134
1,20076079414626
1,24846255968405
1,19291926338704
1,25538100585144
1,19109890714937
1,20180765501629
1,1511925063785
1,18581576673168
1,19992888989496
1,2675081458607
1,12794963453588
1,24156907518539
1,13182912507497
1,21971137472795
1,18477112564893
1,25458653532204
1,20399871504757
1,25418227010471
1,17491662282542
1,25851499169343
1,12242866842939
1,24695024126752
1,15722046872568
1,21775091238919
1,14335233639042
1,23229678631412
1,18435198970558
1,28457571483952
1,16888454396153
1,29646216135918
1,17363789511323
1,19873498247829
1,19894064563587
1,22716267206303
1,18574506527028
1,23845131832559
1,15059684407289
1,24840297034338
1,26239999483605
1,27250789473358
1,20910402801072
1,21711492474786
1,13107034862261
1,24738158122267
1,15191175879881
1,25731225026736
1,15843479918895
1,19587949038773
1,16150309090907
1,27242547504987
1,12345198255696
1,21605953015216
1,17120393493078
1,21062013752201
1,15446534838311
1,29249052536671
1,17306278382869
1,17881247544204
1,17743298372667
1,26866821847363
1,16706768401802
1,22332958177922
1,1377689224406
1,16900882488424
1,13737882476806
1,13222999657687
1,12270164157073
1,19204359359526
1,10872268557687
1,19048350625623
1,13310646640419
1,19884933416667
1,12001955503431
1,16996139822962
1,17709770633929
1,1778055720644
1,16192916782103
1,17478734613337
1,13408091378665
1,15004213270084
1,08585871809548
1,13479094597292
1,09280607892718
1,15388256882237
1,06877723231297
1,1351692738773
1,09711086042007
1,12871300439903
1,08855281879583
1,11754265953358
1,08332184943633
1,13081829834168
1,0530822778075
1,11266217529231
1,07974999216108
1,11912718854262
1,04695476009729
1,10547703573061
1,07311852274617
1,08979090778872
1,04444160471514
1,08315890224682
1,02292397759102
1,08049238904799
1,03932787940009
1,07032040098865
1,02593286997399
1,03297158860597
1,03944067748102
1,08630956884841
1,00457949724645
1,01722827725643
0,990554949976923
1,02589893633154
1,00407641506641
1,01866704100612
0,971897017670996
1,04774901131585
0,988688624266694
0,98867982324137
0,953407590429371
0,992163997262601
0,96240146414934
0,990951327697199
0,943752843648769
0,973740234240833
0,914254319190684
0,949829710195362
0,954809151592992
0,964350022698871
0,9291395244696
0,931005367879291
0,898736807919093
0,918039661971738
0,908566888703562
0,923971006298535
0,895552515917409
0,902467271050718
0,86770669387968
0,908702163439716
0,857089051922513
0,8819013835009
0,884163947362502
0,888541112183963
0,823250952074134
0,854694074179146
0,850413130248402
0,873212644866183
0,846706095059719
0,843857421620544
0,804569907206295
0,841330465329429
0,813869950913704
0,833492596829019
0,812401683349197
0,841216608355291
0,814471722659426
0,820556387411227
0,80311038549872
0,801981783013736
0,77604351902845
0,802525994250437
0,764244690754342
0,783044730348846
0,763547535391261
0,773217774160504
0,736172432450355
0,764858840454886
0,737007337752722
0,753251199406419
0,719201219921511
0,734757165547943
0,725596903334555
0,730046530874188
0,717987893469232
0,734429661589696
0,705972611295659
0,720778728780287
0,702582378439116
0,712824923125511
0,688747867239593
0,706877560565088
0,68076555437687
0,688251757337763
0,670423130265268
0,673828287653589
0,655799189051287
0,678398261665695
0,651027690561049
0,674524081748459
0,65138872143865
0,653361235315376
0,628001080034715
0,64934932313739
0,637476974335342
0,637446335085504
0,623910183056096
0,640750147702115
0,619182625059365
0,630486021082771
0,613137174992386
0,619045367112152
0,592281757013701
0,610890683200668
0,587819807898861
0,586566805498103
0,574450312013668
0,58328760134967
0,573523706904863
0,579580238621168
0,56275943423127
0,566556171585682
0,55409953936058
0,560317229261748
0,542929758503206
0,557325360953756
0,544691686549944
0,55466072944468
0,534594933556458
0,54394330351505
0,52334923163281
0,538596762799293
0,526281076900372
0,522414569313813
0,516024696832744
0,520394811281396
0,503694092854597
0,52374005659377
0,502744771869107
0,502374104790047
0,502926691304215
0,492657636320499
0,488811780999757
0,502206243878545
0,474422418934153
0,488617122391187
0,484925164569759
0,48541423934035
0,478236345409849
0,476647572619593
0,459727370099699
0,47227663553682
0,460850492281357
0,46902462232792
0,445846500575829
0,454735648240032
0,443668863985742
0,447925968324978
0,431806240162346
0,443000647253345
0,429355273954286
0,436435416111175
0,423625635029514
0,431812674260245
0,420072478259816
0,425060436418308
0,408290037366207
0,416690905691937
0,406808305148631
0,413631044271958
0,402456996418253
0,412340476962716
0,392874585710889
0,40156716104534
0,387143454157273
0,394524824098815
0,392506871830413
0,391873895726169
0,380720581219208
0,38435538506416
0,370373865507814
0,382747552026155
0,380680473213155
0,379675539741934
0,365179865639803
0,364909562080376
0,35544922505205
0,369455556814115
0,356497794489698
0,358872701135806
0,343431956017757
0,352189248749592
0,343895617019279
0,34569500714697
0,339991457389599
0,342473961475436
0,328440415456407
0,338183272891743
0,33087917597969
0,336686533225528
0,324778490911357
0,327649848593197
0,324916820619347
0,331165520265891
0,318194698655665
0,321813377485465
0,31153304209483
0,317059077065196
0,313712487050455
0,315442369215264
0,300389704577799
0,306043472307772
0,297371671244498
0,302945974806872
0,294160601859079
0,294654151875409
0,291213094150438
0,298787522660121
0,282972724656093
0,297663866269235
0,282867854740517
0,286350748706507
0,283107761798177
0,286531841777169
0,282057692772459
0,282907337393209
0,27373841666826
0,272539678986049
0,270288285714702
0,276609191670307
0,267260358288586
0,272917336318102
0,260851924744946
0,264934763098031
0,261222534020701
0,263730904804947
0,25697614564198
0,26499688260849
0,250949072298897
0,250065656235245
0,251966548542165
0,25729976872088
0,243936665045007
0,248574466811823
0,240266763737354
0,242786480482233
0,240762566347554
0,250245473860877
0,240741795504854
0,245518611582716
0,234718087477109
0,239455006463207
0,230284676667834
0,235325498043277
0,229608909893293
0,231112177175122
0,225853461039566
0,228746180323596
0,224533342772858
0,224370542347631
0,218348538925583
0,224366367711365
0,218401961540538
0,224020513520093
0,217446611771007
0,224223877533102
0,211703043792499
0,221403813774418
0,205623428648769
0,209918644878853
0,209695636601832
0,218392614681669
0,206774167010824
0,211002760593615
0,207669650319724
0,21304863427531
0,200046881913033
0,206394725758031
0,20127023898709
0,199854262613617
0,197996614392092
0,206584594754566
0,19894807313686
0,20404187361557
0,193841144241079
0,198091273733472
0,19230829037697
0,20009339610344
0,189184353328174
0,195248900000379
0,187574728604487
0,196028248341618
0,195436690922168
0,195143404734579
0,181848530501096
0,191214716841764
0,180251662064185
0,18953159145692
0,18216483901422
0,182204730520603
0,178925777404119
0,183681136266405
0,174623032906042
0,179853983627994
0,171904929014401
0,177324940471761
0,173085383101709
0,176821023324504
0,168808481420815
0,168852934084269
0,166932423525825
0,164197018164542
0,164265613577135
0,171403979327766
0,159229117629947
0,165738544536217
0,153678195566863
0,159687419478988
0,154079141323642
0,158621997860478
0,159073799439444
0,156431917245474
0,154960542289276
0,161003447995875
0,150385027182027
0,157155547715286
0,150806176826378
0,15525266822061
0,146897944247206
0,149694538119603
0,144864452333571
0,14663355353086
0,142884208678044
0,15168523765745
0,142730122783014
0,147622115713545
0,138353998234517
0,144799359454341
0,139330786798428
0,142498894552753
0,137802428560683
0,143279311553068
0,140232061632626
0,146734539639879
0,134497102476214
0,135408671939874
0,129788569849803
0,139255448879237
0,136885618043211
0,132814698597895
0,13089221034306
0,138321336315822
0,127859353039747
0,134571368814837
0,126704333510058
0,131068149559456
0,12564065376708
0,126772899449705
0,126791745560628
0,131999021172261
0,125847424005832
0,128036116058981
0,120985417131747
0,129477023730189
0,126121612727558
0,125945445052413
0,121349954744088
0,123730775330995
0,121551907744452
0,130728254139503
0,117393326874653
0,123045016021524
0,116350967179399
0,123875893956984
0,115890052237958
0,123922732203168
0,11047686044432
0,120582640590102
0,111524518014246
0,115271115551324
0,112715294644668
0,115929575120298
0,107516610462861
0,114671710119252
0,109244272377734
0,112681697751749
0,106284556161669
0,110222023265875
0,104103249042747
0,11123149168589
0,103060001523387
0,106820916221081
0,101841976662245
0,105900337134902
0,0990844055489087
0,106995778930185
0,105182371083799
0,110770203894785
0,0972259476381023
0,101360401034089
0,100990453374645
0,103380089788104
0,0974423179502578
0,103157965041697
0,095591335682423
0,102761687745512
0,0979904406899939
0,0969583373550675
0,0949559065514156
0,101813590241181
0,0942395705794148
0,0982908763717952
0,0950231565747905
0,0960522315983839
0,0920852536354063
0,0978407859291157
0,094194981417024
0,0982547111439021
0,0898896045030927
0,0980275898277293
0,0901096653036332
0,0919412416685375
0,0896347994241396
0,0915957813775708
0,0864763921071781
0,0915280571365243
0,0858998996082964
0,0945015792298454
0,083564624312171
0,0900158688566094
0,0876639174176711
0,0886957686079014
0,0833631968322501
0,0896431315577141
0,0878035430458447
0,0875793840715231
0,0825705026810839
0,08835963858593
0,0828997202955973
0,0832594030911781
0,0837651781066531
0,0879802207378899
0,0792107658214016
0,0831101069280487
0,0800786119124042
0,0889929780900286
0,083660655580435
0,0855700638025287
0,0809068740663096
0,0877680593223816
0,0840146043610596
0,0842546340422096
0,0821729636773805
0,0813957811940887
0,0758396298991467
0,0797046259907723
0,0761924710838859
0,0843647131464957
0,0786013002963975
0,0842786987142173
0,0779623822377285
0,0816402173128758
0,0766159779240252
0,0820580619157458
0,0750744302988688
0,0809319898505532
0,0774134266935653
0,0802762123000333
0,0782814199478035
0,0775859120444078
0,0771710217776375
0,0804275191106207
0,0743058689584504
0,0800127813623384
0,0756020245862312
0,0788312298629954
0,0723779203596393
0,0757242832573869
0,0724519730422912
0,0774001584785285
0,0717197512144657
0,0762701878971937
0,0716206588262466
0,0738353780888129
0,0707935378358364
0,0760973899099351
0,0742696117562446
0,0759066321630732
0,0729967958748591
0,0752635681748977
0,0698441680657273
0,074298504034423
0,0710970374091934
0,0743104684283315
0,0720672878522633
0,0739177990783835
0,0660344132540644
0,0735879960227072
0,0683647994184402
0,0752609669030001
0,0701416025830931
0,0706007275084025
0,069625349280176
0,0726198582087817
0,0663903751830494
0,0688103738849005
0,0666578340743345
0,0721680268631404
0,0683711535261322
0,0732137513714975
0,0691974354519949
0,071728098541849
0,0652823863432112
0,0670877014214812
0,0671726184445817
0,0713491233414292
0,0652388484034574
0,0712327633116821
0,0669053713562794
0,0707217989290027
0,0652842401885497
0,0670780279839402
0,0675000035110614
0,0680278207242154
0,0657170445441963
0,0690657693486867
0,0649406923798483
0,0696064180123469
0,0655964366961837
0,0681692330344057
0,064048802294566
0,0707058460561319
0,0666554541153189
0,0674614697972106
0,0647584517648196
0,0677283650610997
0,0620208694297558
0,0663163746336011
0,0648071469093247
0,069453222776237
0,0602086648291746
0,0634670349453761
0,0653725022748127
0,0664786632436902
0,0627276163420389
0,0639468231445922
0,0607074771931963
0,0669199777171516
0,0636612994437856
0,0668045022459152
0,062909299159994
0,0635109722461677
0,0583943668405181
0,0618978745055464
0,0627979324766875
0,0666671183507249
0,0630784049606172
0,0663748720951379
0,0607004725708862
0,0649326480268215
0,0594816238006101
0,0659156134367374
0,0633809281667699
0,0604795356896961
0,0599604134416645
0,0655037709789107
0,0602855249458243
0,0674199954415771
0,0602019333280071
0,0623553205241399
0,0610220307940723
0,0639717966336813
0,0595853246207537
0,0644425073566169
0,0597718630575036
0,0661878583231882
0,0616567837430851
0,0641695893601337
0,05873793426507
0,0640728692512797
0,0596816197971809
0,0620564578140267
0,0584320140473491
0,0623545259440093
0,0579740485325349
0,0600303211928757
0,0565089699700266
0,0609198140723344
0,0582006645033078
0,0620452296698301
0,0575581119627412
0,0633615268365063
0,0606003846792609
0,0652973501209526
0,0604306299176793
0,0603726465227362
0,059880209764275
0,0621715632335667
0,0581825575830234
0,0584017789389867
0,0554151958736124
0,0608642274711284
0,0586233372855167
0,0621527500518374
0,0562466821988909
0,0578994693454116
0,0562840865303434
0,0606279426087236
0,0564331228255527
0,060598986955017
0,0580671844496437
0,0605835375229467
0,056878751503886
0,063926605481473
0,0584409448649574
0,0606028437699556
0,0600700420960759
0,0611438403768396
0,0542336253017728
0,0602807148019844
0,0588759351652313
0,0609004440479649
0,0579340220386345
0,0602432838844105
0,0555133471110967
0,0589474869992926
0,0562524477851931
0,0589258322487093
0,0552169314654514
0,0592984764701092
0,0578499516489609
0,0610935238238669
0,0584907424763145
0,0613984265832643
0,0557632398202257
0,0606189879710893
0,0559629544679752
0,059674854845499
0,056670678818681
0,0606431618990265
0,0573626823974083
0,0593288511904253
0,0567838247746103
0,0597791816990301
0,0579017151505436
0,0641921319168532
0,057345200665332
0,0629881273891603
0,057976585840511
0,0619174365502819
0,0558753747459322
0,0628193731592029
0,0573174726887439
0,0604884829976061
0,0581830289063554
0,0611916368611003
0,0553558038448647
0,0607719199219875
0,0568184675209127
0,0596678381496385
0,0594438005761518
0,0624198587720844
0,0580586159305531
0,063781726122693
0,0561352485695884
0,0594327046297561
0,056169691400526
0,0580897843362103
0,0558550951567975
0,0606457002946551
0,0573897598105239
0,0606510385428447
0,0596016760216924
0,0622116778012976
0,0597636899861826
0,0600915791085504
0,0554229558248704
0,0618029491421335
0,0570300096732069
0,0620066882278088
0,0582449026976926
0,0621619712511583
0,0563450413250024
0,0579124519442514
0,0564378537477795
0,0585694310977182
0,0548471054044887
0,0615567673701688
0,0575141604428284
0,0608653852035159
0,056761967072936
0,0598659677204923
0,0562585887859345
0,0618880056817864
0,0593505708946319
0,0622289745610719
0,0590784265980782
0,0614826495763702
0,0580134170069227
0,064182193446093
0,0581004436181572
0,0597382321558676
0,0586377827876141
0,0600623973078246
0,0572490523299099
0,0612249211960813
0,0586326935976794
0,0641179839249512
0,0583041347574524
0,0592421864537551
0,0587433486794489
0,0628780375093434
0,05819370159282
0,061140067135301
0,0596626798440583
0,0616958698524247
0,0566887064313307
0,0609634160856829
0,0578622634348051
0,0602603827353165
0,0576283139363593
0,0642106128120851
0,0587785867177115
0,063240901350739
0,0614656302369324
0,0609871145345812
0,0573602712976885
0,0604453157097392
0,0572063202342573
0,0610304746136542
0,0583125950003395
0,0622850908360401
0,0587519154040103
0,0618661338510109
0,0596716506770999
0,0620681599961067
0,0581320397316319
0,0619003662748233
0,0588887021213935
0,0609243283831505
0,0580735899648141
0,0626440048119078
0,0615741546913564
0,0655427311560548
0,0604793008525661
0,0643034960862218
0,0602337846594293
0,0628332827474364
0,0606943500452958
0,064325790492242
0,0614184228924554
0,062211922230407
0,0605254184178029
0,0627996774483428
0,0609017197683021
0,0657706484149588
0,0642088402286368
0,0650137282200325
0,0600931296274243
0,0646904968898579
0,0597056828500162
0,0618089990691809
0,060649097904162
0,0667954823600023
0,0617341212291628
0,0626719472071498
0,0640912629622741
0,0660047762887745
0,0618612825718003
0,0653192263686219
0,0638169849737284
0,0645630612024994
0,0635188282181571
0,0651863443705979
0,0623587836436798
0,0641129511528401
0,0638428969598545
0,0640568522625938
0,061021957891668
0,0652241420328483
0,0619844811946099
0,0657562584674853
0,0634670157010789
0,0668723074607422
0,0639946024866113
0,0646316719040147
0,0622101433999758
0,0670989880671122
0,0594818545883666
0,066114093451063
0,0624655412467547
0,0648570505049757
0,0618391895156884
0,0649903116237613
0,0629577859173974
0,0672685005940272
0,0645147447708932
0,0651632058639923
0,0622310657204261
0,0673250419953594
0,0629663564637451
0,0643227677820145
0,065460295235579
0,0680961093669483
0,0628044705590571
0,0665238351325611
0,0639577150819136
0,0680521847137634
0,0630246476810912
0,0695827779281752
0,0656177346207347
0,0684933451993109
0,0634071819494585
0,0665312902692538
0,0635333265036009
0,0663639972871821
0,0641572984506444
0,0689199486801981
0,0668841799582588
0,0694029420867204
0,0655193564248444
0,0665638089634141
0,0653294631950744
0,0713479011723224
0,0649957983175607
0,070830413671802
0,0664893808855739
0,0685173472331567
0,0659257029367752
0,0714528704796296
0,0695478607566415
0,0718817814654317
0,0661939029159365
0,0692990907245475
0,0646265136004822
0,0692799610896329
0,0683340029524128
0,0698116764975223
0,0692819267578718
0,0717290295007839
0,0646644641834393
0,0694793308934974
0,0688416753101105
0,0718660562656424
0,0687098785488343
0,0706562994431043
0,0676184025430821
0,0724139493654546
0,0658541096960231
0,0698029516180232
0,0669473497807638
0,0730895706493517
0,0686752594128181
0,0698487610254441
0,0682979700440902
0,0706035965703588
0,067302587234744
0,0706035073336167
0,0678459496118425
0,0727681626033632
0,0687480222779804
0,0726656668967876
0,0681794098880318
0,0714624777851611
0,0711176972213362
0,0712963782153377
0,0687186601836802
0,0728760455901027
0,0698149908871962
0,0721177031797228
0,0704914308147864
0,0728251830881533
0,0692615607746427
0,0749058546644055
0,0714375997082635
0,0725094765743641
0,0708650467198417
0,0768870390441371
0,0705548480991278
0,0758028650332619
0,0728818311634358
0,0767671103906569
0,0732017467312667
0,0778793508209473
0,074879773670119
0,0772793755142293
0,0740489667836237
0,0774522387129584
0,0708687358156709
0,075319619073841
0,0644790176789097
0,0729433344187055
0,0718804706360038
0,0831938304168743
0,0719769607583733
0,0719568106360063
0,0693586683812879
0,077798622463773
0,0722825242040307
0,0774722736443536
0,0703459381146703
0,0763140741210237
0,0755115211559897
0,0785794330423385
0,069712605362227
0,0805970585973938
0,0728295484193863
0,0871541770845295
0,0736127037191426
0,0849601365560285
0,0757948915322611
0,0766754211542858
0,0663892089516725
0,0809861853151601
0,0691298801101922
0,079716991569855
0,0730670827524944
0,0778604696152806
0,0717384653537182
0,0802826522684327
0,0743094640248178
0,0786779732369035
0,0752034528353607
0,0790860102090678
0,0771620634772312
0,0796152570241168
0,0795642208522485
0,075820142996708
0,0789395279575744
0,0718715751991047
0,0822648830731467
0,0747955852041082
0,0914059336654302
0,0674637213866868
0,0864777435230369
0,063533750218117
0,0980167810693471
0,0643262099590724
0,0992795536068413
0,0488265445474871
0,109046492115251
0,0582714514524373
0,105920521955712
0,0487448188161101
0,109773002762362
0,0612104632360758
0,10070194446527
0,0621064436536909
0,100538863742293
0,0695125513455971
0,090021344285189
0,0837731187939861
0,0823550317726647
0,0880911081273974
0,0795948223947316
0,0895221386772143
0,0782075185581927
0,0885825968522625
0,0791439715573997
0,0857316554615392
0,083430301048199
0,0794258570370979
0,0888174022693561
0,0817159445460704
0,0863049104274187
0,0822071315402671
0,0860534265998043
0,0844925686606792
0,0832062479085837
0,0858940601337165
0,0852557454022415
0,0852696488372593
0,0852815430232404
0,0855459922217579
0,0865601222808633
0,0859270706523695
0,0873852342519145
0,0856075735646842
0,086837006602091
0,0871231390272592
0,0873541085987531
0,0865526271027318
0,0863162779796438
0,0858580224521844
0,0863325359396617
0,089415841054206
0,0907744579770708
0,0893165509631503
0,0866512770004479
0,0897258830132423
0,0885209911701809
0,0883371379561188
0,089523657573307
0,0909524763171159
0,0891140525807592
0,0899884088729082
0,0890464326352401
0,0901093329862802
0,0910707563144345
0,0887199202720691
0,088627521511847
0,0916349560923995
0,0912040180897813
0,0898947216102035
0,0901420090643474
0,0931681379275257
0,0932699473457718
0,0925914111713305
0,0913519920312704
0,0923230831843687
0,0912769937598163
0,0932492595731527
0,0929179039262556
0,0936178784629127
0,0952303165626605
0,0964695442594554
0,094580745705564
0,0952905963770257
0,0926144830251583
0,0962429158249166
0,0930684696707692
0,0965404126817763
0,094682060608281
0,0965180868628592
0,0952357080052323
0,0967157785937452
0,0962381083399843
0,0963881736807802
0,0963321579298624
0,0944322406834628
0,0974381176348106
0,099248778169907
0,0954115229081652
0,0964135221889036
0,0960845775703773
0,0978251123593262
0,0967677398870179
0,100066717736211
0,097738266415877
0,0999509390606965
0,100157936525583
0,10046407647102
0,0991038418173032
0,100779290893383
0,0990170751412752
0,101497840741663
0,0991335030525189
0,100501324391499
0,0985932431652041
0,102117916517771
0,102328344905559
0,102660306480149
0,100929592374346
0,101476636161178
0,099794642499454
0,101886755010403
0,103936089078566
0,103498264270235
0,101664190680173
0,103951795642281
0,102661846795439
0,104221118131933
0,103974319734805
0,104623207697329
0,102486292468694
0,105099335750687
0,101685993901454
0,105874783968364
0,105407184601734
0,106897511327454
0,102563841350489
0,104727217839644
0,106008244750003
0,105916009689782
0,106305510818441
0,107857050748614
0,105797549268375
0,109318707988343
0,106356209441448
0,108020657485792
0,105669022745818
0,107125712123951
0,107436073624981
0,109367700766265
0,106808060565718
0,108584641002682
0,107455605223392
0,10895751521104
0,108583902000679
0,109884222330877
0,108358713496915
0,110036234008979
0,109006845592388
0,109062323411859
0,108565748183102
0,111529017993047
0,109811041421077
0,110356539995765
0,108069272393947
0,111000566651618
0,111041864837414
0,112221973271029
0,110560570533804
0,112563193044783
0,111494769787471
0,111936502165064
0,109908397310547
0,112758857528526
0,112256153808578
0,111791576514632
0,11119354755856
0,113036172384893
0,111552678823161
0,113476268569842
0,112765534908175
0,11356066912783
0,112783611021531
0,114090492978753
0,114325621643904
0,114025318760363
0,113117277092128
0,116467882093435
0,114885487925917
0,115270525636132
0,113146242083406
0,115334381405903
0,113563152421791
0,116354703115473
0,114409155975777
0,114878216547593
0,112702428165905
0,115559251651406
0,116698841635908
0,115137142336235
0,113869746017034
0,114382409622584
0,112557220109344
0,117327275394211
0,115814438972243
0,115294183570881
0,116327618155762
0,115634240862062
0,114700508956899
0,117440381249566
0,114355178952866
0,114571761064678
0,115938383145148
0,117237942502406
0,115307753624946
0,116961666943011
0,113284112229525
0,11549311024967
0,115772724251967
0,11682374849196
0,115881612289179
0,116468989132853
0,114640499186493
0,114976119567883
0,11687772366221
0,118503460155327
0,112511768881897
0,115186017757792
0,115841810229116
0,117598363185936
0,11517921742544
0,117689653115752
0,115331436380163
0,116919608450603
0,114286379301384
0,116743717400717
0,113542174476579
0,115030100323053
0,116944125272025
0,118323424647489
0,113596240694908
0,114275687972246
0,113319859914864
0,115567194478197
0,115098216472158
0,115947381277391
0,114794397946324
0,115360939736439
0,116705490956585
0,116431870302332
0,115028127586281
0,116359772574117
0,113547703583697
0,115986337028824
0,113759299282315
0,11477082906373
0,113541398905907
0,115232425389793
0,114296476071475
0,11658523830571
0,112776281548123
0,113424559949714
0,111131128314667
0,113226496788546
0,114741394931768
0,113852051451906
0,11427088548848
0,111850863705648
0,111542281509133
0,114450789395926
0,111758205785749
0,11397713406615
0,113136925829646
0,112110889548764
0,110845364372649
0,111172575392405
0,109783620067311
0,113026111404559
0,110366479549952
0,111381665985128
0,110262714516212
0,112296823748149
0,110019844440092
0,113018749565449
0,108895733678444
0,108921474808712
0,109635662334897
0,111265129715541
0,108204063532451
0,109244724729057
0,109071596977918
0,112126205613369
0,106740315264934
0,109452126007732
0,109591774261036
0,108533279513115
0,109944612226308
0,107477231768691
0,106011956190376
0,105904704660998
0,104607765060621
0,108693726497698
0,105621861670707
0,105006488695723
0,105967807247624
0,108027565661865
0,105313617232293
0,10645858261279
0,106044083877189
0,105165600312356
0,104011561939249
0,105800270746044
0,103230531846632
0,106624112580343
0,103260959139472
0,104271701923124
0,103177275312343
0,103436899951996
0,10121004457595
0,105043360964239
0,102320601153735
0,102906254306196
0,102800737519374
0,102072463264216
0,101417806670212
0,100684765159012
0,100356134495139
0,101966245966833
0,103844840284971
0,103834171551979
0,0989622022159347
0,0981305233229697
0,0958992427647445
0,0991328580521355
0,0977164959947395
0,10123568162031
0,0968247289125023
0,0986339191431074
0,0951265218219254
0,0980513484192993
0,0952706724040565
0,0993501887944868
0,0951041323276679
0,0966422783253079
0,0949497263638289
0,0970480232583077
0,0939785505667544
0,0966170828440754
0,0949761074996524
0,0972041762330935
0,0931607372119319
0,0953287065647169
0,0919435760334527
0,0961524057372567
0,0949630014636941
0,0959485845244141
0,0895044529026904
0,0927359778162362
0,0915853587713882
0,0932784709827734
0,0887791853915454
0,094463721676532
0,0924071577227944
0,092596391471178
0,0913453796868985
0,0941379585682475
0,0905007530914381
0,0913579431515458
0,0896141790394168
0,0885475674027102
0,0887176518098225
0,0893540896453252
0,0879543311968782
0,0904505944914414
0,0880460081002973
0,0880607112722522
0,0870448436911158
0,0899171694998253
0,0877263432250083
0,0881849897890601
0,087722608169747
0,0891631220559986
0,0874351673400858
0,0894192165715567
0,0856161586832145
0,0868945492303663
0,0877683644582175
0,0867052547302416
0,0868612379002875
0,0880970908572775
0,0833453579741462
0,0830877239965063
0,0844340962290224
0,0841097733843357
0,0828129192499633
0,0828256095047767
0,0848253375764418
0,0849867040840987
0,0822269080996235
0,0829625555746284
0,0834620603277055
0,0847923454836353
0,0845367410504002
0,0823102011957031
0,0802422056533427
0,0814667165154393
0,0820399008162997
0,0801063498099523
0,0812350257566309
0,0800216094356373
0,0828740023040872
0,0801413554006431
0,0819606336806303
0,0811149498047481
0,0827858883253915
0,0834190033263105
0,0791096794731761
0,0830725609905202
0,0793559674432048
0,0806955826653055
0,077722423076182
0,080580455510771
0,0766840300503375
0,0805031917514775
0,0784192142386996
0,0800106363634268
0,0786062854332117
0,0787756830500202
0,0782894056629986
0,0783823275169315
0,076654961966642
0,0807809923501161
0,0755635001637717
0,0772717226460762
0,0766541766568464
0,0794263357207839
0,0789596464044962
0,0756471603811573
0,0763236990926922
0,0768980147499313
0,0720903547481906
0,08720293191721
0,0709912515891137
0,0828906011884615
0,0727411932220279
0,0774727811156397
0,0719503102050267
0,0789856477383042
0,0745792717508199
0,0794396406157536
0,0736473686262498
0,0769957715759762
0,0747410401786624
0,0753961003770628
0,073970208789364
0,0758973059096708
0,0728257130672579
0,0749000472470394
0,0742202074010633
0,0750497741299803
0,072360306563426
0,0778763878973308
0,0711077177108863
0,0739185809802524
0,0731807707091544
0,0804455884792768
0,0707829117716879
0,0750273964620695
0,0722889759867679
0,0754865150178306
0,0722327824990124
0,0807147319732455
0,0743714060557066
0,0733795655330272
0,0745570883928375
0,0706764015698993
0,0734183799253085
0,0718789255652546
0,0726429591481167
0,0746502931774152
0,0754685274331664
0,0712811627410879
0,0750626636376027
0,074739401924941
0,073753692899922
0,0738785023911296
0,0725623197534433
0,07277437748306
0,0729577391163188
0,0720566882890398
0,0721452854525897
0,0750850257286239
0,0707786238062608
0,0828051242528811
0,0722895538504722
0,078759240342735
0,070061585595099
0,0726269518908621
0,0692391754912468
0,0743909567334577
0,071809658131024
0,0769491567269338
0,0753738922312147
0,0735030725792139
0,071533860306523
0,075342071017486
0,0732991765614098
0,0731314058137211
0,0739686757108246
0,0733599626934056
0,072035657042481
0,0729245911276595
0,0719471363934301
0,0721047700464625
0,0751007686301735
0,0709367807625526
0,0784320137113866
0,0716227371507106
0,0769238051240635
0,0621140153282737
0,0917213426054043
0,071572990175355
0,0752218023421506
0,0747602489074842
0,0743479490728346
0,0747453249419085
0,071628102273767
0,0746577037868444
0,0739114070582832
0,0728521481495041
0,0759619575010329
0,0776337010201274
0,0710592425868981
0,0742929660360822
0,0715198797435109
0,0792357506444793
0,0818797851337448
0,0729951555763853
0,0754156632543132
0,0697047356972492
0,0801533697514527
0,0810785027154161
0,0710770474956866
0,0806662560635537
0,0730356626202742
0,0773564427954011
0,0724978137327821
0,0784418180715993
0,0772302682227096
0,0834343298442991
0,0747502134602372
0,0788386748617255
0,0782494727372823
0,0788087570806442
0,0781176808755093
0,0790732780317517
0,0818752534920148
0,0819030565521381
0,0776963001400267
0,0840287626020912
0,077765431496909
0,0830590008569407
0,0776086599754438
0,0820611046591058
0,0784091156196207
0,0845527301434853
0,0807180858177316
0,0805427478935429
0,0841159032378058
0,083267584138743
0,0792737399098582
0,0871674145721201
0,077238561353758
0,0890254121217581
0,0709455608690642
0,0949831020033349
0,0857750414708526
0,0872166588761332
0,089157298023156
0,0815325863746703
0,0882643999962113
0,0819267296819551
0,0873876923080286
0,0821623295312589
0,0963193207306416
0,0776228424363423
0,0948744054553043
0,0793433627524038
0,0960895235491924
0,0866720017734899
0,0930409811992596
0,0894061275422771
0,091626926870117
0,0866915781711796
0,0980314926061967
0,0842560126338623
0,0934286146909604
0,105961083242764
0,0896151181098928
0,101442491977019
0,0942799740955686
0,100422670690563
0,105482659799905
0,0927143238756331
0,102652919670181
0,0966712181567526
0,104717550170018
0,0942195932255232
0,10758960624371
0,111119724908544
0,0995604994320148
0,108135144233886
0,105247468682545
0,103002630337381
0,120539222067446
0,108507504838872
0,116407610409753
0,109275035819662
0,116979554205702
0,0989784238610529
0,139202102039579
0,109210058890164
0,128301907639588
0,122763275836509
0,128319857774679
0,127455549103511
0,128043310838653
0,125082511006022
0,134502291372971
0,132427865191747
0,131295280995937
0,128871010308438
0,140845006423312
0,137188932600146
0,131357023781218
0,140631845586335
0,126916699993301
0,136998516782857
0,162502067647458
0,148795278360172
0,144912083763845
0,144778092403243
0,151125111906513
0,154830901708312
0,147309556643023
0,154629457026741
0,153131255383718
0,157457480329674
0,158333693368218
0,158351463276945
0,167408146837364
0,160880002635054
0,169988708747837
0,16419219156287
0,173421186431828
0,18114552404765
0,190293082634615
0,185310993610877
0,176089193862581
0,201149472572766
0,189703535022824
0,198698258020124
0,193308904376309
0,20391336237424
0,203798852339467
0,203854673944009
0,209494741362241
0,213406024812079
0,228675763686461
0,217645090573626
0,234568999719143
0,225477820510662
0,226732686178464
0,235559668521305
0,24557292820087
0,285386553556058
0,233563964488592
0,271728071987387
0,234682561080596
0,300315103800306
0,280417058334266
0,274946913873556
0,281858182795443
0,282950931117979
0,27936740310559
0,30045763663988
0,298436379858117
0,314544828106931
0,310957429138292
0,315185698721944
0,295810233700582
0,370397011945074
0,34503023879356
0,356128635525735
0,340553556086152
0,352373108839418
0,359860907082181
0,370680196755799
0,363104549481237
0,377379393620819
0,353733337459161
0,415498070232884
0,403157057863405
0,395360437427154
0,409677687146062
0,410293204568391
0,422089129579325
0,407886771708946
0,45418552058135
0,423303821126372
0,439781799486125
0,438839772230257
0,456989221338543
0,446052431395993
0,466969623491436
0,473359760925337
0,468045618828024
0,481711188959641
0,483461079123263
0,494468247852805
0,493964894237754
0,498078966176047
0,505527095006788
0,521887175690951
0,53859988066455
0,543100138441823
0,559596267841713
0,523854219601008
0,539573930711145
0,529794713103624
0,553677980940949
0,55682069728139
0,556174438001737
0,5873439510319
0,562317983261941
0,575048336642636
0,566944726748273
0,577138694489021
0,570775192722731
0,572092872450308
0,57933600313661
0,57548760055615
0,59459977668526
0,54189528026889
0,643791292917559
0,596901278604213
0,580032514719825
0,573353224705926
0,571409418902692
0,570388705677473
0,571218489060395
0,555081922273582
0,574214558438979
0,561297619015577
0,549171011836403
0,553472150174659
0,539106227637693
0,563684494649206
0,539964559306888
0,524103326960534
0,527776748712545
0,520929344881497
0,516309987560787
0,504297428292049
0,534790812380856
0,500929945180697
0,478196868569043
0,480794664205808
0,473612031622001
0,473973116913487
0,460480060181277
0,45856467011283
0,452418776584432
0,441971948420337
0,434449468057138
0,433303047918534
0,418331336275054
0,41982956670649
0,407222991175503
0,407464993174154
0,397272453164053
0,393590156817946
0,38545909599527
0,382494030982061
0,379750713056697
0,373767482529272
0,366315771124621
0,366499253796987
0,36395117705541
0,35700319946737
0,35068847605879
0,347129712140883
0,338766055922108
0,340606362468158
0,336633124332264
0,331506045978229
0,327562507886631
0,327015029710264
0,315872598539992
0,318815558747902
0,316116917288919
0,312239334876395
0,306607224352837
0,308575087237946
0,306633311310239
0,295594433158879
0,297440145501538
0,287016611074757
0,315888763116873
0,286909952017523
0,291809249341881
0,282233381002138
0,279927445368716
0,283694667865841
0,284308783855721
0,300034338297618
0,272938814796038
0,274942343615835
0,268711452378436
0,27091158700843
0,272712032164254
0,269915533069341
0,261284361226194
0,264970699053826
0,237990291805606
0,311390506305746
0,246789731161582
0,302819862211354
0,261914862869738
0,259198660139224
0,247721780113897
0,270960914558391
0,25753287644719
0,246665292226119
0,256563772276938
0,242845764955504
0,254513942406248
0,244781439767988
0,244476213106998
0,241822535491144
0,234641988631479
0,247554992903913
0,241689660137102
0,228203528378482
0,245050905806265
0,234364393260713
0,240404962621712
0,271607210877123
0,246810450983036
0,231302131867365
0,225933077422048
0,226335164269017
0,219942396910703
0,236792221694652
0,238339655919963
0,223071871377401
0,229389996392279
0,21884322639063
0,22858122341329
0,227292600456391
0,226940153354817
0,224166951428746
0,219809478551229
0,226130261342811
0,202294348780086
0,236391606082043
0,212731264081157
0,238839863233648
0,213397941045888
0,216644453661197
0,210008615333696
0,228854972641017
0,218958460645433
0,217986587902493
0,213542272215773
0,205384058928174
0,214265336908506
0,217115282407157
0,20186368914733
0,215358899942754
0,205638614663245
0,206854664656764
0,219333035333259
0,227093777571184
0,210198443436367
0,20236809765433
0,201461742226845
0,20506844740028
0,194182918151665
0,204356892159416
0,185398377768901
0,213233607849919
0,193104163944096
0,212475891684561
0,207410826345299
0,196011307407471
0,199790342079791
0,197141258050381
0,196613648724531
0,21034598602025
0,209306664654153
0,203549468687437
0,190835067775504
0,207801887320844
0,197482449717918
0,197067085262493
0,195272651328717
0,194886002008955
0,196222217238078
0,193703369203474
0,197072422967065
0,198213477315028
0,190054631772461
0,196971709372323
0,195453318128692
0,200260987776482
0,197195958247858
0,186816650535906
0,209101622754661
0,195975566241076
0,209994627730057
0,194980331079256
0,200154741943249
0,195745327384494
0,193225844160052
0,20026839095603
0,192569846621969
0,20584743503654
0,204554570560605
0,191055985074743
0,201746675498309
0,188777660829897
0,203472644444016
0,19171502753428
0,215531771894904
0,181831463566418
0,220653722436092
0,198129560828382
0,20251440541513
0,196542185828389
0,195054329376861
0,201130315160799
0,193437892741992
0,19304283263394
0,193253145873829
0,196617187582244
0,198007403349479
0,18980255500132
0,196487958583638
0,193597498091719
0,194233135922244
0,195311702405812
0,190932946524983
0,192335512686005
0,192168614966845
0,190267437808765
0,188937627585907
0,194507633251577
0,209223822271131
0,182021709989132
0,197924327114621
0,189026432532329
0,1953129726699
0,195021849435171
0,190274368078988
0,198758644429531
0,192378250657311
0,195108264835922
0,195384576330223
0,188165471216103
0,196203621682992
0,192144607160357
0,2004730837742
0,182963770243712
0,200736502042918
0,175367030218849
0,215960650347583
0,191213978596407
0,194410486890694
0,198298213208359
0,190239782399043
0,195267748228684
0,188078879212226
0,190095297977411
0,189363296859862
0,19375774037384
0,191581344024209
0,189889891113334
0,189466203851075
0,193424491088715
0,189416604760044
0,194638480210511
0,196086915899533
0,190692855148973
0,194175450889823
0,187598900396437
0,196865253132406
0,18978979966432
0,197430531907948
0,191190032014074
0,192410021690211
0,192454744359862
0,198013497434494
0,195540157180774
0,189831005083223
0,186931597055502
0,194894049435061
0,186675831553489
0,190169902107426
0,184185987869005
0,192170456627614
0,192489165687458
0,189259349607036
0,192840278929806
0,190049648409309
0,192002336567955
0,191333775138225
0,192946726279947
0,192222454770651
0,193093395002579
0,191319388387916
0,195444189610765
0,192504625974517
0,195455323653875
0,193579819929097
0,194062523315366
0,193122701101664
0,193172563066947
0,189799082722302
0,188700156831682
0,192311425402916
0,188330688615174
0,190261638199555
0,191140178408809
0,188386308787984
0,188968898539342
0,187197217499219
0,193900481034196
0,183601947490562
0,195799025165433
0,185137862820019
0,190444782684261
0,187296397326646
0,186115414415591
0,186396738382956
0,187027936924351
0,186180760891624
0,189012778281344
0,184782478435858
0,184797695808452
0,1878835525419
0,186875196514528
0,185918375141607
0,186801360392802
0,185913123778098
0,188000069009973
0,186128474547102
0,185712149871265
0,18401021370899
0,189842679778042
0,18543127206648
0,192078807955108
0,187265012863568
0,187455095788819
0,188441835978055
0,189704583142437
0,185322256722096
0,185590709607011
0,184971910678308
0,184089867595606
0,185552633244503
0,184609844164833
0,184054606319368
0,18108654397832
0,181913047065423
0,183831084451275
0,182669171169088
0,183801990848385
0,1843944878375
0,182156462413738
0,185569333563027
0,17997489676835
0,186134328166206
0,18530005519703
0,185850253779717
0,185209285465515
0,183094452017811
0,183639746908482
0,180674375762939
0,18657529516644
0,185101021403985
0,186051171699257
0,182230535448026
0,183526637328944
0,18233171226121
0,186973903345559
0,185218748747095
0,183627145072316
0,182884102450381
0,182307050921603
0,183057912700173
0,182467732284525
0,182261975287083
0,184592593884526
0,18021844034757
0,182594989945082
0,182657698694488
0,183566269641649
0,183997933998675
0,183186634394317
0,182601052963406
0,183845335659396
0,182590087201725
0,1833606026953
0,181599050214078
0,181313575492362
0,182235610871279
0,181981061480767
0,182134441706496
0,181898139737182
0,180811477225306
0,179249886351329
0,183781120316842
0,181674147339715
0,182901242505328
0,182880326658407
0,180099395117184
0,18356207539529
0,181886400742839
0,180914032276652
0,179691010903543
0,179154512074468
0,18022478573847
0,181677511402386
0,182537078310011
0,183719575203668
0,179784396029549
0,180426597008663
0,181242671438448
0,184170400211238
0,182059917983982
0,183780138566692
0,182017646692507
0,184836455656552
0,182647212348877
0,181983815452178
0,180283441692698
0,183965542277134
0,181926042245486
0,181714979831986
0,182387133164061
0,182859082683235
0,180479676935132
0,183067138246272
0,182367337831127
0,179780243451673
0,181087335105825
0,182218159506031
0,180698653109711
0,179733361364277
0,180128048335685
0,182074102377514
0,181302960110822
0,180891062369541
0,181536918742928
0,180599157186995
0,18115598122571
0,18337114397383
0,180406785811223
0,180505784911815
0,182107544646676
0,18163445818398
0,178669607880181
0,180346231094873
0,181083562704877
0,181402196895803
0,182036509897457
0,181300487149878
0,178745886852119
0,18075888143876
0,181046592234104
0,180110696413338
0,180703355290994
0,180029722713856
0,180396633054769
0,178967769044809
0,178874239741454
0,17926388280113
0,178552609622105
0,180400287799446
0,178141938014648
0,176029784607945
0,176920837102284
0,17681445404957
0,178190577078067
0,178772790319019
0,177161929860963
0,175638221822714
0,176624627436
0,175782363635269
0,175994832860616
0,176515192995332
0,176627699896454
0,176456898892599
0,174364705952233
0,176351428655395
0,178148176160017
0,176130323061094
0,177108607691628
0,176626593276434
0,176703975019762
0,176432490088356
0,177352707752225
0,175890311395095
0,176065925302159
0,174330692077554
0,174561057164474
0,174749432939353
0,176685244518606
0,176940769925773
0,173294470219341
0,174706410665086
0,17567393178579
0,17396451949812
0,174767162882821
0,174577576472878
0,173400231865916
0,174011992358525
0,173617857575017
0,172836463908338
0,172861155857514
0,173545205822483
0,172781884689079
0,17246889945905
0,174488675427903
0,17345553089454
0,17585294773562
0,176307359015791
0,177857586179177
0,179060781488817
0,180682543993382
0,180114252076272
0,181753479803881
0,182328947194491
0,184731090445671
0,184671353573733
0,186243230025998
0,187556258363418
0,188134094702855
0,189022349289717
0,18895020919224
0,19095324726742
0,191173696289423
0,191078643974696
0,189058195919123
0,190866241887593
0,191115832764204
0,189557503000995
0,190163882908831
0,19007232441761
0,192758955654824
0,190695169777513
0,188434399715115
0,190824042111804
0,193316231815778
0,191098645749157
0,189646218638241
0,189167733064628
0,188411867467357
0,190181561242944
0,190299364454159
0,189158865963436
0,189050899718648
0,189712048154048
0,189629461609238
0,18867575369324
0,188226151071855
0,189436346027482
0,189512396588355
0,188505198225119
0,187081525710019
0,188493218320969
0,189843472641354
0,187393525713232
0,188417775498143
0,187982548345451
0,187476936573478
0,190552366656346
0,190470118568561
0,19070072093834
0,192700171827701
0,193739113892303
0,194193576995751
0,194276556383128
0,196828096673926
0,197696590986746
0,198068691591345
0,196247572709665
0,197057520726293
0,198073472998375
0,196347137022018
0,196126733499809
0,196454585550376
0,197911033896723
0,193754058585752
0,194624124284915
0,196414544296725
0,195556442143906
0,194145694913992
0,196103011154618
0,194298614082912
0,192447027262813
0,194735792149632
0,195323604059395
0,198092876347432
0,197776162501226
0,199420026007184
0,198902037847664
0,200890732999453
0,203183480164575
0,20111467291847
0,203045390384932
0,203668624893032
0,20629833370028
0,208284932109374
0,206557945798843
0,208864720412016
0,207832676330666
0,210506608329684
0,211746372951707
0,210273183060105
0,212758331118834
0,215716007457276
0,215578345535496
0,219287113246735
0,218231651649434
0,219460886882108
0,22233581805068
0,225767455733785
0,224693355006764
0,224567162421256
0,228039708182077
0,226740698378762
0,228920083821896
0,228161080256818
0,229312096963389
0,229486461533822
0,229387973226602
0,229597237705537
0,226284715471079
0,22460633001214
0,220707365576243
0,221892864962228
0,220140462477069
0,21910752473562
0,218108679449116
0,21614853108975
0,216161607130333
0,214372118389907
0,217432429695099
0,21781498732473
0,215601076617094
0,216907129148676
0,217723762409924
0,216477269530169
0,21711230927324
0,220389901698499
0,221669699897823
0,219238429258746
0,22211251705591
0,221470790983891
0,223361395614352
0,222149913812923
0,225681823493364
0,221830875696994
0,225535032913709
0,220897877104446
0,224011838326491
0,224292965185966
0,222878770043119
0,223151936393187
0,223806079978124
0,224529257443067
0,224522365765879
0,221152185739652
0,223168411288839
0,222888321425722
0,225726051867316
0,225961066517152
0,225271121277647
0,222645319129684
0,22723818755145
0,223999792695802
0,221592864267017
0,222105867840151
0,222726078717216
0,219963704601238
0,218936826479462
0,220908779326158
0,222003653042274
0,217521020213629
0,221681039013091
0,219447680598258
0,217761647640539
0,216353538177687
0,216928491848481
0,213119645869111
0,213070911217598
0,211487290891538
0,208641385057062
0,207639058963341
0,208440010075417
0,209041004429313
0,208924431620029
0,206332690756022
0,204256926119004
0,204445972478256
0,201587265750509
0,202788909153927
0,201410892035346
0,197794319704707
0,20011734888384
0,20209686759181
0,203669615229085
0,202476839846362
0,207310347602217
0,20497066293189
0,20822963445489
0,204390252421852
0,207965011465403
0,208454501690035
0,208274871607769
0,212507623514592
0,208341962922517
0,212109192300084
0,209965420972506
0,210698097729009
0,210852556705097
0,209964849942806
0,213256024737041
0,211038783695787
0,210591060925077
0,213604165162528
0,213712539774408
0,212529701809258
0,211711280918029
0,210933299496464
0,212636105154381
0,212074697104607
0,211684088114812
0,214029215794016
0,215791457235733
0,21500844415368
0,215645151960823
0,219774960503287
0,218327333116357
0,218598373964456
0,219040565896977
0,216344360261393
0,21915363798687
0,222109756190893
0,219017418231391
0,218058565110134
0,221716215062238
0,220029000467354
0,221308259061952
0,22365546042951
0,226125320639933
0,225261113347956
0,22460614191617
0,226985696493481
0,229474956913475
0,22904975196752
0,230582129474783
0,234267628332214
0,23555053625871
0,234543433491986
0,234645554050462
0,236493936315985
0,235558578761864
0,240204518851204
0,243574309444468
0,244042941602784
0,242568407685261
0,246192072217249
0,244982993404736
0,241954660364886
0,246187280312648
0,245107285488551
0,247307004657685
0,248904075091648
0,253686438820354
0,252951920496497
0,249073682896951
0,25210482083412
0,255385758727808
0,255589821431545
0,260691239266261
0,25750651529752
0,261413396163907
0,265831480304844
0,264596365234369
0,263699373834159
0,267582626186213
0,27010314197964
0,274638968821443
0,273155274114781
0,273554242644261
0,273176480615113
0,278628129605602
0,278555698882296
0,281184563302312
0,281702086132091
0,286006993142656
0,288257445727929
0,293444995360938
0,291713093615144
0,290635510313391
0,296121236357338
0,301158007274417
0,298552418004362
0,296765483205579
0,301314610259155
0,306994796165551
0,304356587115494
0,304596601970587
0,313829165040048
0,31264344211165
0,313366194579826
0,321798537222563
0,317784415437889
0,318161052531459
0,322707949235222
0,32650678440828
0,332111157270138
0,329322276193081
0,332672897866812
0,334275525251455
0,340261287628399
0,343838008371125
0,342141635163214
0,33874420369906
0,342371759251343
0,343687609816776
0,339772780932216
0,357846797145434
0,350776622388582
0,35852187510926
0,360383533470587
0,367459824928933
0,369749714655573
0,368936661222423
0,365076655360123
0,382336965239437
0,374054714487332
0,379809141768402
0,380598329095893
0,382524776704526
0,384604464769578
0,394034577342
0,3912698218461
0,396686393607589
0,397017513266212
0,401376321024949
0,401739336697132
0,401753869796128
0,407690150639153
0,413558008500497
0,408344505820783
0,413702319325305
0,422258009427486
0,423239700428696
0,43373468293838
0,42769684155154
0,42807706139496
0,430082390048034
0,436107020761122
0,44491365313629
0,449722857845242
0,452729682055715
0,451215208523698
0,452858768287201
0,45244811339993
0,47855558614117
0,456855613553739
0,456142957716433
0,470096562769585
0,473223115057608
0,480388985901708
0,491406642025278
0,474628220660839
0,484428482620601
0,47962716548851
0,499519594060665
0,497323325150729
0,506361989588383
0,496900461458721
0,501640446489854
0,509009673233396
0,511274698500604
0,516899993231965
0,525440266381667
0,505821038079156
0,537042106045379
0,527591929581277
0,526347550457503
0,527527186350187
0,530731165311574
0,529390485805345
0,565081282439446
0,541110893403119
0,536312050514255
0,547378307230569
0,552455844797228
0,547078684314401
0,572387244680761
0,569957712514054
0,582838710307176
0,560646414064802
0,556370219019724
0,566295584548866
0,592691772051795
0,589138481884858
0,589186235261882
0,588591326657045
0,604647308479247
0,591421546998319
0,622542408791836
0,59600010255011
0,618040564675596
0,601556397335181
0,638812205634987
0,619048217184266
0,618910988514218
0,627316248218572
0,654054873359106
0,63808258921936
0,633888031082633
0,635440568875405
0,633600868935101
0,625529576563671
0,669745239348874
0,635109206720817
0,696852189633032
0,667994795816047
0,692141022935764
0,656461378348788
0,660268217177372
0,684554968967781
0,691788275084732
0,656589718152842
0,679476124832852
0,692135565140908
0,727910045610267
0,668181597252822
0,719460947518539
0,689360034783553
0,709137287295742
0,716485513088598
0,73137379950025
0,716255740538261
0,725704869181747
0,709731843895682
0,730919131331673
0,739483910151219
0,757995158380932
0,7203393965733
0,786179649977815
0,774322961779871
0,743466256601936
0,741766704109009
0,796719705297026
0,740390697907809
0,780222101916344
0,746374404259972
0,758012700435954
0,765024417541221
0,793839735465169
0,789774136520242
0,789452793983753
0,771821117686293
0,818831016631287
0,747963760846852
0,8292932680704
0,841398473113187
0,800246584404323
0,781733945403311
0,846614731751963
0,80729103936012
0,842074257946621
0,824214095059667
0,840784376094434
0,77428867774188
0,883905198352327
0,805855924113438
0,860081031464271
0,812090125626283
0,856305087075308
0,889192601657757
0,900394519728386
0,78789432378091
0,851329112966256
0,843490953623415
0,876319065688161
0,811440188701903
0,936684004882228
0,848529519035671
0,963500963880143
0,877884885310311
0,898198812191309
0,861471158110002
0,989258237823798
0,865660264345793
0,864037277949523
0,861421104424652
1,02950097884066
0,922440006469737
0,937784053515092
0,897793887966464
0,915710040134772
0,885740049682536
1,05161606140255
0,903251750339964
0,902231100504039
0,857646526236582
0,988492167278276
0,888504629421642
1,04651630977586
0,89683584252455
1,09302182893237
0,880093176976926
1,06556191628835
0,93917577005812
0,91119561165805
0,928850193292872
1,12507481851417
0,999948181192195
1,04557054213758
0,860002821148785
1,31305513436274
0,904660556279952
1,12269988240306
1,05662488232344
1,18610127236299
0,968272782130618
1,0385239650215
0,980607144794282
1,16341219412463
0,98679148095786
1,13019809699608
1,10972264417058
1,06040703765895
0,869408653467928
0,989250046127267
1,10869378976869
1,20651441667371
0,996153814902524
1,33120597694812
0,821803990259476
1,05494597204098
1,00479863712434
1,0459143377104
1,1021971791805
1,22801203932829
1,11057722431008
1,62723215391727
0,940054963673208
0,853690690955638
1,94989452993988
1,30493777083154
0,731225093075858
5
1,1117392588324
1,2271878780317
0,886653530869721
5
1,52744433257077
2,82436846846636
1,36640574028827
1,78158914827954
1,59517118432439
1,44022286333806
0,881427730661162
1,33904716591112
0,802587500747892
5
0,861820538048569
1,50644629691915
0,999921099931935
5
1,0818926812329
0,821310014025329
0,853751203926554
0,99801195715028
0,915453289821986
0,9964808179831
0,751406507615296
5
1,4129268857643
5
5
1,42787571999082
