3596
4000,36533379555
650,420452594757
1
2
2
0,0142679802628078
0,0274485457412529
0,0262605769594669
0,0190137963964068
0,0212977820406746
0,0295783824487235
0,0242867632233869
0,0281144231251195
0,0111722949395395
0,0203649844076624
0,0181402471477536
0,0298463319489271
0,017041731751909
0,0216363174274344
0,016399349134084
0,0160091139150848
0,0155476117683877
0,0209132578514808
0,0158339409682936
0,02365205060708
0,0160909188560764
0,0260355751248487
0,0178269416090551
0,0204190533787135
0,0125830556647995
0,0159354245452396
0,0238101730159823
0,0221332541834317
0,0173024395591348
0,029883964288795
0,0221713446630034
0,0232123389827985
0,0270141715170025
0,034607862267924
0,0226659576486629
0,0265623108292035
0,0171256513154651
0,0234156915940475
0,0279625565945656
0,0252201024566717
0,0230893372852775
0,0210138202715489
0,0226196452458863
0,024979893464009
0,0151471391617469
0,0220228212862797
0,0158174834870784
0,0229219035028278
0,0142875575088447
0,0210761835301327
0,0205015104522586
0,0307764775965943
0,0249467001979131
0,0228636707761573
0,0117207678456465
0,0282673701369065
0,0199126868633208
0,0238870249780602
0,0241143798242473
0,0221641250400757
0,0226556125641986
0,0323048327038359
0,0206729550268675
0,0293247895942332
0,0179901140086868
0,0250002106304289
0,0205118264233367
0,0292296545785065
0,0195150146608461
0,0211317779491716
0,024155571616546
0,0336078558354974
0,0241167274275267
0,0239174693635425
0,019853655923157
0,0259631690593626
0,0123126479423927
0,0277251914817498
0,0214439782321621
0,02848871149711
0,0132544425219484
0,018811204202807
0,0253281798684054
0,0298882408402908
0,0114383120216695
0,0200045298583587
0,0199737075645092
0,0213963869052329
0,0213421650282144
0,022291941486667
0,0146897461444486
0,0238810276764654
0,015587759679618
0,019795886008359
0,0210361743304441
0,0239016260227286
0,0162225245959474
0,0265272330668323
0,0221953529366658
0,02184199241818
0,0315632067891472
0,013912366187494
0,0274440728648146
0,0209916789353531
0,0344394167131065
0,0248903787676041
0,0194644765766037
0,0376096445550321
0,014383807334623
0,0279324145471113
0,0123005060796295
0,0252837259420798
0,0137394944884964
0,0359624906304931
0,0128708616645746
0,0226934376107253
0,0280063008140781
0,0199346911083605
0,0204321578053645
0,0230554297807992
0,0181802038489634
0,0310478603493199
0,0368514647995418
0,0225979104426167
0,0224006054843947
0,0268746841407335
0,0274205940279129
0,0294169612004762
0,0206791558799653
0,0206897703369347
0,0243901973336405
0,0178215924032349
0,0266931801696059
0,0102479907240772
0,022088309026182
0,0244031599716215
0,0232917568259082
0,0269660867789365
0,0144252477364248
0,0372654679440891
0,0195661285764899
0,0189660380129112
0,0187921855624452
0,0225610620136082
0,0288423582605703
0,0249955881173498
0,01963790817556
0,0265527454563619
0,023846818857003
0,0189045019266899
0,0215974105669452
0,0239755825403681
0,0147374674086217
0,0214676543198863
0,0228546850085175
0,0204021477523891
0,0400482199002247
0,0116696409111838
0,0421170454977174
0,0179330554932244
0,0275916096269155
0,0195109832940654
0,0193294315242881
0,0253594752932023
0,0221844803511129
0,0231254411029231
0,0154568325162858
0,0271707322386887
0,0193030955281895
0,0278887988616433
0,019938641761159
0,0277499738697296
0,0191204344910959
0,024343479067726
0,0257018873679046
0,0171072955041393
0,0242247708207204
0,027440561936722
0,0237822839862714
0,0212444924566118
0,0263324479015645
0,0233177983035665
0,0290632752209884
0,0217738060569803
0,0285835977154907
0,0249972186879456
0,0220592966967502
0,0290308167689023
0,0310231384582242
0,027813667148057
0,0301290536457409
0,0214825724412292
0,0261169176425554
0,0202689739405226
0,0305705499003459
0,0268284887765026
0,0266845842438914
0,0345493418596435
0,0224958100383207
0,0236289356925953
0,023448883597975
0,0279446037189957
0,0282945782813453
0,0243243956982318
0,0294593271381545
0,0232594137664598
0,0317426643353385
0,0231460661291037
0,0190899679736821
0,0275600684312811
0,0268911986191338
0,0267086055279735
0,0137954805483478
0,0295778721462318
0,0180798947405482
0,0334880908169299
0,0193487279599021
0,0255002102222027
0,0302843607801535
0,021259544860865
0,024689884303092
0,030439972915208
0,0186792452577595
0,0294465837838816
0,0338707598203645
0,0279942167644634
0,0249439718815665
0,02796730803067
0,0272567449967745
0,0346474952258497
0,0304315434492948
0,0290588276969077
0,0264031938896803
0,0310850498725614
0,0279595499289309
0,0266905490543015
0,0330311307825442
0,0262361112079738
0,037299717733165
0,0336155672596566
0,0275575014674794
0,0328256204301538
0,0344575546226157
0,0292386217225446
0,0314484550864572
0,0249992149612232
0,0416478128745967
0,0344343593125101
0,0319804409897865
0,0290763241278266
0,0285317011116784
0,0344575024309426
0,0248633983680187
0,0320123312297662
0,0246599545634421
0,0330050346412456
0,0285050400455954
0,0386959396763395
0,0267091583814833
0,0447284786570455
0,0322797468394509
0,0362722784523641
0,028317684310872
0,0423769278382284
0,0182498879291074
0,0430914618019901
0,0367758641828648
0,0322376728218912
0,0392565662438178
0,0355840219966615
0,0301302285243924
0,0449948040194377
0,0398733010721771
0,05946188686475
0,0302961809570284
0,0420517850578586
0,0378322207236607
0,0414162953898378
0,035483730481636
0,0411007694705888
0,041786669875801
0,0359436765325768
0,0470258065903682
0,039450372350461
0,0527528568759028
0,0403980931203498
0,0416034001122284
0,0498613597446074
0,0351208514167357
0,0523275069315611
0,0377380616291577
0,0484196871037755
0,0421697542699627
0,0580393110020209
0,0364060981729681
0,0568715191290944
0,0401322053767324
0,0528379957035073
0,0448279843915268
0,0507049946008986
0,0383927882873203
0,0573204976720634
0,0546519856434903
0,057534285418835
0,0513987286531178
0,0509551183813136
0,048537556503342
0,0513172859896788
0,0487537026297524
0,0602005167427741
0,0508822141645839
0,0708446600850353
0,0565597697512878
0,0685863760348674
0,0614929407382211
0,0655308271879637
0,0537896705556428
0,0729732144775928
0,0590055723075285
0,0623872553943391
0,0733555497030741
0,0759074334378887
0,0736251498408119
0,0858609246793811
0,0770142075677271
0,0782733890112126
0,0818489469660137
0,0801170301595226
0,085670454949043
0,0931878877244732
0,0813015962386059
0,1004957568005
0,0877452240643155
0,0948174562381616
0,102164747406093
0,096046282076591
0,0995709214639321
0,0975905115251142
0,109497788865795
0,108922761685684
0,113012094947408
0,120183430187815
0,124888062672589
0,124099449590012
0,131026969363993
0,133703529157178
0,138457846304604
0,147611110229775
0,129065829218738
0,130464634399626
0,140395062792845
0,160610737708438
0,142943742754055
0,174463115222551
0,146784750954215
0,166573532465749
0,161708375685116
0,173020958301734
0,168603372481922
0,179466868456594
0,182347871199069
0,202645947839689
0,198923907493233
0,192343573891732
0,203311135562624
0,200738466787668
0,210475193917545
0,223937219142617
0,222380249387399
0,226045942838126
0,221189875195501
0,232946101145207
0,24248012840081
0,2418487653553
0,258309410598196
0,238080396592773
0,259150881831679
0,252430710360355
0,263810834767114
0,252869592413675
0,260671331471402
0,272509002167108
0,280053350373312
0,282019374957047
0,287388599699442
0,29087493739856
0,288830451531332
0,291312400131903
0,29733178942556
0,298666138179562
0,30895035843446
0,321556574529131
0,319751581955572
0,324684548753976
0,313539227097885
0,335331089441085
0,350391559962448
0,353515121040083
0,332245138659706
0,33958502347933
0,324754051644982
0,353903760788512
0,335896910424289
0,348053955927419
0,351199046380583
0,366087193904155
0,383061551046857
0,386466421148788
0,37176701694959
0,375045973822389
0,3729867415554
0,38459729699747
0,406668815002989
0,413152752084002
0,383721629687674
0,399463553063359
0,379304288834699
0,408377806338768
0,423791204346922
0,416320492208491
0,406978902817045
0,405370758031525
0,402078775932617
0,424105036323594
0,434100553516205
0,440651618887104
0,43889996083366
0,421684722755235
0,439063564389129
0,436531123310673
0,442265067112663
0,450900955897743
0,467103155622938
0,482156509065023
0,474521213301919
0,465856252418521
0,462579434929106
0,465843032804409
0,470727511239172
0,495178782251464
0,487828580406977
0,486674575654837
0,458937754655129
0,494007043293073
0,504039013917932
0,49906915829242
0,502713506482189
0,503835996697211
0,479943460888718
0,519647528124498
0,530153768795592
0,526022292971219
0,525181707746539
0,521804337471869
0,543929799984378
0,533263812529955
0,53994304703969
0,536612669630086
0,533426668005662
0,553128988729446
0,540450792643088
0,546284764607987
0,625321370521879
0,588900595803389
0,564103369949783
0,612788869124935
0,579903144081237
0,573433143957837
0,575222288659555
0,578481211467536
0,584810165304072
0,601763566020561
0,61067241536588
0,5817018919572
0,622348654401508
0,627286257917939
0,612136389872308
0,622553556610807
0,642921328423581
0,643912354790669
0,626986892961229
0,620659217281905
0,649341443795239
0,644747442684695
0,639976629068594
0,637252592572123
0,623826938291047
0,654944911691342
0,673080341038631
0,660369175900819
0,667748952521222
0,657133293289416
0,67649032924674
0,670357919489498
0,689011178213599
0,722841840314068
0,70209031397044
0,709529025240468
0,724400036084956
0,68756182273858
0,709041071585276
0,70690938466704
0,73927821004097
0,711312695290902
0,728379330077012
0,716008596531869
0,710984766900172
0,745533078049025
0,740439569587035
0,715550315859595
0,767580671288286
0,77847060532002
0,772847990959482
0,790787791095252
0,801725755277932
0,763091405913389
0,781573928661949
0,802078541843137
0,83424965193687
0,784817037282903
0,766659048234735
0,795728849586583
0,854804191796326
0,813716891344668
0,822292480601769
0,820551279699986
0,835340242732395
0,791439271051769
0,814267643856437
0,793025378286554
0,826329394766174
0,80059101970563
0,812251492648627
0,781111129326057
0,828100833349454
0,826523941019095
0,924011128072919
0,891295765549509
0,897812080612472
0,903652338268288
0,925612090599617
0,871798075751311
0,853873329411015
0,880649815361187
0,937979057430001
0,921909164492695
0,893596849021262
0,89074523122259
0,946842580333162
0,924420007044473
0,93462794459817
0,906356549085033
0,966235449686965
0,923163625255513
0,938207047787637
0,915974229887879
0,896545365832644
0,922408007597447
1,02287303905008
0,976147040071609
1,00893174055842
1,00052434545601
1,02543828893862
0,947506148926214
0,956129664057601
0,980611187899032
1,02782722926279
0,980139845310089
0,975570409136406
1,00169155862357
1,06272491506913
1,01584953089774
1,03994345228948
1,01766729890273
1,05813441750586
1,08184231473384
1,08528652394165
1,04291026743556
1,08559420712432
1,02484848727812
1,08620716789717
1,06303076788753
1,11693054756664
1,08537908039382
1,04997064657216
1,04169919471229
1,12132918696199
1,06376977176139
1,19711091612616
1,0204832066899
1,13454194122169
1,10914202599066
1,10804221581486
1,06089560335432
1,23174302674806
1,15077752279008
1,05234892199319
1,11774090927832
1,25005670123159
1,12318829726559
1,08727171870947
1,09254635159264
1,11908723180219
1,12835207457892
1,13980137910534
1,0979074296307
1,31367065621934
1,22654390945151
1,25296604144568
1,12741896537397
1,14852877125331
1,21102098995296
1,22322665510626
1,20149735829579
1,24962218298005
1,17813272699908
1,26248262449996
1,1957330627574
1,29648912027666
1,20198107833464
1,28172624064145
1,25039516033213
1,26023823419778
1,2963126310935
1,30517622483741
1,2698293030111
1,29968698569961
1,16203099035011
1,33586458068762
1,25188582278757
1,2615415138726
1,30207019914404
1,20067571463775
1,19165205730787
1,42961383466502
1,2999139916102
1,29634651507429
1,21176743003232
1,40229375647783
1,22699359738562
1,23873683409006
1,30306618353574
1,34996665448084
1,44208948061775
1,60349988327546
1,32902417919245
1,27214341363233
1,2588905994523
1,30150579940192
1,33983606464275
1,38963340866611
1,32637269348553
1,3999415550127
1,29264303259782
1,39360488686931
1,4358366801205
1,56555673542682
1,39316722568813
1,38088444815591
1,32852570009479
1,4182731662148
1,30385605267703
1,49711364322544
1,32005373827691
1,41115458255953
1,35552353884188
1,30959644670504
1,34553037057685
1,47043546940609
1,36879239857001
1,51927889088331
1,33567316511064
1,3625503070913
1,31286262054552
1,31883547527586
1,27704580143252
1,38049003297725
1,38616306620805
1,37193365048382
1,40157436512625
1,54352379152074
1,36619523229874
1,50749120972974
1,48593527684796
1,47289409210472
1,47764704547901
1,49018228552573
1,50661820505396
1,51568510118246
1,40320207231566
1,55772289580223
1,39270777535283
1,48420962680842
1,28862287021424
1,47215016638371
1,28131982214195
1,4228688523509
1,3804365592707
1,43845337210455
1,28487317090192
1,48168768633369
1,35449881039426
1,53787831961857
1,3457824637399
1,38012942587719
1,37689494234962
1,49313405664404
1,34642019332141
1,44722921715181
1,39484299389597
1,48255437643553
1,40320426342334
1,56432782564602
1,36101710537072
1,36876962260278
1,37667171098085
1,44510484458176
1,47811103609929
1,59335989060984
1,39579595078917
1,44368301320894
1,44580497086123
1,50268774233759
1,33969282251919
1,43412618969162
1,38416741182718
1,43196761780308
1,38332824890173
1,33700880992842
1,29754132536051
1,42732548632088
1,30415634710997
1,56728057155256
1,42951376480047
1,47253987504793
1,39216476317823
1,3361604157672
1,31578289724256
1,39413258643245
1,44767521042308
1,4493979471862
1,47289660978125
1,45984051663252
1,29692533578901
1,46868928132786
1,44421845477521
1,49288596891254
1,40036082037049
1,38346364751905
1,40133949073647
1,45488519738036
1,44761092202814
1,36258414184186
1,32294642618953
1,40261688122372
1,41879893638097
1,61209225851482
1,39991551804665
1,49103045108881
1,31514637418472
1,45052980237787
1,39885952389498
1,45368669867777
1,37643011466202
1,46674293203932
1,50041487480551
1,38523950680312
1,29378275596424
1,35330927178839
1,36200707001799
1,4728692126379
1,34647903401099
1,40258079474864
1,44805441227005
1,38418062564767
1,33295160358651
1,53858848867163
1,35482675952043
1,43491648858039
1,48929492896683
1,48415452793313
1,30191610636847
1,44489611542035
1,35619392284828
1,44315594045358
1,50356212863359
1,46968994910641
1,44309798855463
1,39931352427628
1,33365081405845
1,34793241744724
1,31367943378557
1,37051584967712
1,32225746230433
1,49296026348357
1,37325398072152
1,41470763618532
1,39521488672086
1,38776288704688
1,38695668814107
1,43247743294945
1,39205111240424
1,43569916728846
1,41019468924811
1,45580486670221
1,36228200015197
1,34456873470213
1,34970642162066
1,4941418251727
1,38436174196763
1,39424926980475
1,39030474503716
1,35114057482865
1,36498499689291
1,38899202997344
1,38636860444717
1,38193938674
1,39618554030662
1,32488328020955
1,3087168531623
1,47344452631636
1,37864685321757
1,39801679807508
1,38516234705526
1,31333856061646
1,34772180570649
1,38968726772491
1,32689783204903
1,45799125577558
1,33633298439708
1,43767955435673
1,38248486414274
1,33550896180887
1,28602823826344
1,48672126893258
1,29892458366557
1,33467499581494
1,293844743269
1,29981629658063
1,30745909010312
1,36425218816402
1,25825314011869
1,37300843173624
1,28330069675267
1,32953740895129
1,26592000984891
1,34319750216863
1,30127097009857
1,38269178546498
1,34260409040348
1,255991273584
1,25850591565153
1,31611578071322
1,24939544137399
1,28681907381708
1,2165293028706
1,33666894323462
1,21774965350435
1,22889494760427
1,25820022842303
1,30245453981332
1,24698865237871
1,26825308019966
1,22924862672337
1,24315268142039
1,18144542407642
1,24407528785422
1,18090210107685
1,19069368822162
1,19474938695236
1,29118140517259
1,20083497716186
1,23850581579063
1,2357569143988
1,26927549811199
1,16950439323544
1,26101431057928
1,13234235341423
1,18187606593158
1,1242369632732
1,14853942656572
1,13387311955193
1,16399627013276
1,11411879000462
1,15312962684347
1,13001599094703
1,183583644836
1,11719066352562
1,1128672983706
1,11270911069398
1,07259037071591
1,08386350725449
1,11614993933997
1,1050100168102
1,11945520590541
1,05893157775341
1,11009315553325
1,05800640572796
1,07501258551336
1,09541455979459
1,0852944129875
1,03331885999527
1,00100848585642
1,00656515462551
1,03065506177428
1,00034112488816
1,02062254956076
0,994580153222531
1,00804298267378
0,990886501885723
1,04412219218732
0,98811439712273
0,982232549903256
0,983428053409878
1,00942588759247
0,948439268457094
1,00057971247095
0,947656235942548
0,963574752482817
0,944288125370383
0,973542834096203
0,93214027037393
0,935209998425057
0,909076254543524
0,916821422606174
0,884670186561241
0,946501520428534
0,91163673407744
0,91542085861171
0,875212655916305
0,892268989764441
0,871416562879301
0,885777994721149
0,854889742909721
0,898768639292786
0,86572966464929
0,876845258359125
0,860619564256457
0,83418620030344
0,836613773710098
0,859485955436332
0,826568334621802
0,836680775715373
0,795398248149985
0,812633142799166
0,793842931514962
0,805405972264612
0,771940787252337
0,790673010209604
0,778813358925208
0,787137096046892
0,769803288512714
0,785946637134126
0,758986490929817
0,786219331141836
0,767411136586721
0,75586995023159
0,757974451977886
0,750251284758775
0,742782824693964
0,75052908753628
0,71966872133154
0,722791578629388
0,734111378383048
0,737475597602614
0,697449124866814
0,723211218563424
0,710997494274683
0,706586091759362
0,697498085449712
0,696960949499355
0,681930014358878
0,670266799559835
0,677475825483985
0,669572943806315
0,658283042590953
0,672347866708756
0,65197711046038
0,664384329406502
0,655761688320953
0,636431270863239
0,625320242222148
0,649253306705711
0,628724928958422
0,617781785866663
0,62840435780635
0,622195733217485
0,618273995370422
0,607483428646875
0,602062155010648
0,603572115731432
0,607189241623199
0,595356831415461
0,586855635752523
0,593870567111463
0,579049819934539
0,585947862519465
0,569042051326234
0,559734186753604
0,567428331526356
0,569387438605162
0,565158628453325
0,566142616292824
0,542150160135609
0,55083396353902
0,543893437286308
0,545778506689212
0,531160185118214
0,538869578447306
0,53381483945793
0,530776402323778
0,517095871276446
0,517117418381909
0,512027894784592
0,514787834153638
0,48836691482917
0,509530850861451
0,483697786100535
0,497863653106842
0,484931394223571
0,497164984789028
0,494136648627315
0,486691700538879
0,471736054989409
0,483620013768896
0,474914720029719
0,481513067376666
0,46995884626467
0,467728836748284
0,450903716357685
0,463928020847051
0,451027014559734
0,449139773342426
0,444925301392522
0,447634174361593
0,436607383219654
0,446032394832142
0,430583412612479
0,425654462892657
0,425484443625079
0,427009242719403
0,418738895786505
0,425670870008221
0,415558577094727
0,420434763611906
0,410617648550649
0,406892466891526
0,404619369824084
0,401338083938664
0,400949197276907
0,397019899968004
0,392931132092073
0,39271548676479
0,393407886604541
0,394896697980356
0,378168906631046
0,376878935762857
0,384931722466868
0,370826907156646
0,370986570154063
0,374176697322763
0,366379977010159
0,362458774575404
0,368588861322733
0,360033858581487
0,360783372880432
0,359121368550529
0,348534593026998
0,351966907814949
0,348585241956408
0,349868790405815
0,339426774818755
0,347656373725033
0,331330047472605
0,339850707796073
0,327455399767114
0,329603188555961
0,324189516206999
0,328115065655464
0,322960552182262
0,319090429320506
0,317587234128693
0,320373599393681
0,311806763124053
0,310168073788581
0,312418861587496
0,309742678555103
0,303861574100508
0,313410639937137
0,302834483710985
0,305644727287631
0,2994623511862
0,304895364639144
0,295524708263412
0,302096030322533
0,293277922145948
0,295893957526656
0,288304320741123
0,286194949500766
0,281729349645355
0,2829515774801
0,279747912254937
0,282021606168883
0,277893984914757
0,276857325070486
0,275579531712486
0,270745655009355
0,276136091123147
0,270757158422483
0,264147143839503
0,271301538157664
0,265381164961826
0,263316585906999
0,258482486129944
0,259238296286436
0,259407792872443
0,261475652621018
0,259318777656633
0,249839008349205
0,251320568091398
0,250850049073173
0,251412847892903
0,244726052893516
0,247188190177116
0,24409530938939
0,24557410096407
0,246298501054452
0,240016378710165
0,241476696654177
0,236752553151367
0,240692587478825
0,239260289465865
0,237208124819285
0,231568209795607
0,234375288790948
0,228174762081141
0,230381924627663
0,228864970873145
0,227472188862288
0,227234901394011
0,219837907026567
0,221369827991405
0,228462879598167
0,224353689356381
0,220140719089196
0,224314363923576
0,217948039671238
0,214587894896926
0,22110846295179
0,215407786821279
0,214776807839544
0,213254569742221
0,210654394741843
0,201634706783662
0,209984114775292
0,204988807632823
0,203603295503543
0,200344670976011
0,206737839974985
0,205243918438427
0,210091156752321
0,200434026781018
0,190033443052426
0,190866092793429
0,194145407063176
0,194216884369443
0,192677397546477
0,185472018833037
0,190319001823373
0,185783945724706
0,185889451512971
0,184864969473136
0,185049193717851
0,183190014431684
0,183044157620776
0,18271980790447
0,184260660242133
0,179139578479718
0,185833158183662
0,175572810880207
0,177270501851702
0,172630167489563
0,169152889741477
0,17544121229531
0,179217860213683
0,168504692461295
0,174908342906587
0,174682987333497
0,172656081535657
0,170156184463268
0,170890069791997
0,167084289381542
0,167444097188984
0,166063791971058
0,165519814964867
0,16073805689577
0,160108885419697
0,161284731728649
0,156709520296555
0,158880865744967
0,154851708182463
0,160858931733378
0,159188215879285
0,159685444195095
0,157710865309661
0,151450776970135
0,159394771609981
0,153923390917764
0,150209581114203
0,150942686293866
0,151728910531776
0,146034511379573
0,148117799496693
0,148902705234507
0,14771903953719
0,144551631280605
0,14951729956459
0,141551797193225
0,144186096326242
0,143115736348767
0,140171343118378
0,140736776415038
0,143776903352767
0,137593110622605
0,137379511231766
0,139552727385811
0,141213352403374
0,141958492684022
0,139892794933388
0,137575318246749
0,132629353176102
0,130802050677821
0,129431690535857
0,127714476360937
0,127906429188179
0,129612917977608
0,131074182038844
0,126052450374226
0,133832560071724
0,129462622549575
0,119821217162212
0,118171677782
0,125812104017185
0,120406420105461
0,123209285186287
0,122732081972922
0,123819672397662
0,124540687147373
0,11531589896597
0,117817654688202
0,122623386937345
0,115768108435086
0,115585396664518
0,116073262700077
0,119992692957919
0,114170692699977
0,113639299657208
0,114709999599019
0,113612274409517
0,110417765926166
0,109460275644109
0,112368521328437
0,108527116026973
0,109064500503022
0,110434730986092
0,109971305231077
0,107965329176324
0,108719611987573
0,10697366973977
0,108471328326315
0,10822078410647
0,10584018089116
0,106183907108118
0,105255785730862
0,106510095751275
0,106718979572746
0,103261906505369
0,100614687918238
0,10650561406297
0,101121244911779
0,102033273471685
0,101794595164935
0,102779651751647
0,0986127731181601
0,101820680373817
0,100222790175463
0,0989386888234801
0,0970778643899835
0,0983436700624216
0,098254671004904
0,0981050567946195
0,0924805048608835
0,0959567690963692
0,0976439020279745
0,0946617068318264
0,0925140969149201
0,0978638978285417
0,0900958550730202
0,0947085036024184
0,0943921752659296
0,093590604813891
0,0895326683754726
0,0910545331267737
0,0944631020333475
0,096419496061815
0,0886885657584106
0,0912529171654763
0,090989018791963
0,0904345202229364
0,090270684649517
0,0930371399931883
0,0915841253586907
0,087675401040326
0,0886109998643287
0,0880797693284496
0,0862165248458785
0,0888264037879874
0,0880255055050978
0,0892163226669039
0,0861494298164208
0,0868762704929101
0,0877259874437397
0,0880066365474001
0,0861249864160483
0,0854413550503737
0,083272125205482
0,0837857751726632
0,0823396486310609
0,0837906668940497
0,084919428714627
0,0868517623038409
0,0841085275254512
0,0858051117840573
0,0866927225165784
0,083816540160458
0,0852692782420595
0,0840255231079523
0,0817126831987969
0,0793645586406976
0,081264968544393
0,0793903906688938
0,0813869830388985
0,0828242606784016
0,0795693510068322
0,0766002055079037
0,0762582417030703
0,080512130850791
0,0788445425924044
0,081480799762155
0,0808854702424303
0,0762244825593139
0,0772046662461719
0,0771536377624274
0,076202618437422
0,0796105478739009
0,0767572261626015
0,0785654198959109
0,0770718286042837
0,0747687589586951
0,0731691195156024
0,0772001254265246
0,0760042288418149
0,0756732827128991
0,0783162625914352
0,0777256762233167
0,0768433707930577
0,0763603010745837
0,0749785761251859
0,0744514082033266
0,0721546432917749
0,0776360757008191
0,0737572129329785
0,0741670668978883
0,0742338017099906
0,0754062592277191
0,0758067521536142
0,0751504638755381
0,0750953378071908
0,0736258319216709
0,0727175202260951
0,0716850667942859
0,073120907776889
0,0713120810608709
0,0732394524096831
0,0706919607046824
0,069209010974247
0,0732354869663792
0,0737465887437345
0,075149916937126
0,0706220765582698
0,072217730345951
0,069604123272888
0,0702574243826169
0,0699627419811706
0,0685469242206619
0,070356777164624
0,070257737050709
0,0687794735588289
0,0711159706964486
0,0678054287319267
0,0701525809744972
0,0716531171545599
0,0697804073662928
0,0686033450439411
0,0703076542271975
0,0672845413829611
0,0679717131054283
0,0660556020291812
0,0659220597036176
0,0670945793541816
0,0688928262054619
0,0677910334727669
0,0681711228992243
0,0680806534612385
0,0699169635201306
0,0654902198838471
0,0676247836263486
0,0664040475795043
0,0667909212025028
0,0648103581781598
0,0672449127130222
0,0654965886663754
0,0665700045601036
0,0651619841216219
0,0684366225914815
0,0647098919961776
0,0650773704795503
0,0665973694807341
0,0649467867398206
0,0641674097081843
0,0666933568688296
0,0639400718521614
0,0645497561875009
0,0621784257814878
0,0663062389229992
0,0659142487539442
0,0630335731431005
0,0635434286141348
0,065359250317227
0,0640118419702781
0,0665017093344232
0,0662718859880484
0,0644614354666918
0,0631401367840064
0,0644144221983131
0,0628396115942233
0,0674870011196819
0,0653106476351693
0,0647336793489578
0,0645770946800135
0,0631302880587693
0,0629221581068492
0,0615209782139524
0,0616839160421401
0,0680103813128676
0,0611222897456525
0,0609501498910427
0,0666826149350247
0,0637736574867306
0,0623356213515829
0,0648917747817645
0,0640568086377375
0,0642199139741356
0,0613498695512293
0,0617790304255685
0,0623774875720892
0,0670405810570229
0,0615246577083586
0,0580341846578005
0,0622197322853448
0,060921769740646
0,0609940162477408
0,0653365075118563
0,0622605549594649
0,0615873918554428
0,0608744602605906
0,0635325039229982
0,0597681855334061
0,0655924519773012
0,0595688590016165
0,0614700497633085
0,0635917992377105
0,0617951766201122
0,0607807702508073
0,0624052682904927
0,0614975342751522
0,0615855700879621
0,0631674646346659
0,0616235839091916
0,0582326089706376
0,0587524477912644
0,0609464411182855
0,061803595214779
0,0593702325391111
0,0608104534844027
0,0608506630656564
0,0605126610602751
0,0614529853336586
0,0606570498016376
0,0620373277800212
0,0643020666886196
0,0620573556537068
0,0601700976341575
0,061784221938581
0,0605031458496922
0,0593422531017523
0,0618349405960449
0,0587265626616748
0,0604587583883631
0,0616932960849553
0,0618540090932537
0,0621683712489988
0,0590034836047939
0,0618932180837911
0,0640773272345738
0,060160569282105
0,0613356075405688
0,0587220777338438
0,063041368813792
0,0614265755040425
0,0625435748913517
0,0592307103302339
0,0603573546165226
0,0605461162486898
0,0620726862510738
0,0633922965827535
0,0617875346179206
0,0611502755016505
0,0603388541491944
0,0625114081015679
0,0605307141818476
0,0607648499581973
0,0602658923487822
0,0595293209375337
0,0633552472699387
0,0596559221838818
0,0591051941042563
0,0619829983987305
0,0628340587273254
0,0611990703559108
0,0615921122738709
0,0615153758449228
0,0603735607367763
0,0620643274108555
0,0618790690924444
0,0599401713000662
0,0607215727616241
0,0621382418471726
0,0624551634424694
0,0610241460679103
0,0623334672139844
0,0614574901005985
0,0620768045413578
0,0598008793357896
0,0621540585185722
0,0637454362705213
0,0623861321809317
0,061143581975658
0,0608463476706478
0,059026000258343
0,0633513273787999
0,0618897469351377
0,0643394963920967
0,062608277845907
0,0621397150263991
0,0620082488768922
0,0614441620055379
0,0622564895097027
0,0626892131115393
0,0610928697024493
0,06390837666257
0,0615065089865089
0,0621829861427731
0,0627644383241944
0,0621565101411689
0,0645442247777569
0,0645412449502244
0,0606632062766703
0,0625823252656572
0,0629375855278772
0,0640195367726938
0,0643336757836694
0,0637861019031598
0,0634231890803497
0,0648967754699492
0,0653166831695076
0,0657567879313078
0,0624446322945094
0,0616951585504135
0,0630152131445483
0,065696632967655
0,0642928962715672
0,0631277685959275
0,0613781896150084
0,0635236096750905
0,0626115038764589
0,0662379221622161
0,0644241089949112
0,0631678825244322
0,0632356044189716
0,06577449724599
0,065459362041987
0,0623765268798305
0,0646089161628998
0,0641175271374219
0,0639608456513862
0,0632201565482062
0,0626309281108279
0,0651948472161263
0,0654454434545566
0,06256908248941
0,0640141353454214
0,0648642372849699
0,0643653851542947
0,0645780983797165
0,0652681240948976
0,0666995046647324
0,0664511561808144
0,0665626351674854
0,0651234147917448
0,0650016421715109
0,0644663955687349
0,0657729261338508
0,0672151631346908
0,0669342370908165
0,0664048566790961
0,0635717404967704
0,0641076171554752
0,0670733771594855
0,0664645218048671
0,0655395481570652
0,0657311145883734
0,0667980694376089
0,0676311161453246
0,064443846137367
0,0656422364495274
0,0696849013751642
0,0675723803241415
0,0662207094600547
0,066342858035818
0,0672161085278797
0,0677150292754241
0,0669745671893247
0,0665996771056151
0,0681946190345633
0,0650711053567599
0,067102500044152
0,0671758169436597
0,0657767035948589
0,0658802543217555
0,0671471314713357
0,0696386457396436
0,0693559702826557
0,0678522694263566
0,0687346998563115
0,0682126681978468
0,0652661938323041
0,0688704825250605
0,0690225983963007
0,0674109266406665
0,0700413745028393
0,0693070383746509
0,0698282709044277
0,0671913103554361
0,0676853122781065
0,0702889197950885
0,0704746330895239
0,0675848825226087
0,0674448141694405
0,0704208657242374
0,0707488814603172
0,069177772956631
0,0677578753715175
0,0723966772887545
0,0712079016369028
0,0681082941923292
0,0699609113547699
0,0698759515531183
0,0718113901689451
0,0714329140392469
0,0704269984366314
0,0713231568629661
0,069558408159803
0,0702668561804151
0,0751744815965455
0,0746082415412125
0,0716985387657412
0,0714246330612659
0,0708363864366309
0,0722663135573326
0,0700541714528848
0,0719315540442441
0,072873646131267
0,0710800702708299
0,0712262620978876
0,0697981180088146
0,0712874312242716
0,0749891349462805
0,0729606817210188
0,0716322723874518
0,0734875853784673
0,0744660964085923
0,0712920784811771
0,0715357781902947
0,0738036226457287
0,0725696877727535
0,0736361979031229
0,0736662154576705
0,0723203404610063
0,0723063468558506
0,0739260158974836
0,0754292658518509
0,0743939368711323
0,0732517417111583
0,0720891340133623
0,0738768705430889
0,0741932199586162
0,0714609344658618
0,0731737396949736
0,0752775054387083
0,0744853789507743
0,0737957133728896
0,0747543676473051
0,0786127490661553
0,0784803909371408
0,0741546667278743
0,0735176723969367
0,0759155360919402
0,0758545046559397
0,0771121946720601
0,0758404953533528
0,0767901785301716
0,0762829076168663
0,0765872008480403
0,0777873876448499
0,077917176627576
0,0772708561344857
0,0791146529965709
0,0791594551840286
0,0788962162839258
0,0807823866244541
0,0832603120028606
0,0820511442948574
0,0833469729297768
0,0843067611480397
0,0851467616656591
0,0851442985079418
0,0857839438491293
0,0861478586946686
0,0869957129266606
0,0822982009940878
0,0868723639588573
0,0834748524040413
0,0842137538752863
0,0905687860718512
0,0881105433668585
0,0877765239713594
0,0941164881322507
0,0877946511022092
0,087718250208147
0,0855379429557545
0,089876654294657
0,0895357164580841
0,0889175477299958
0,0879868746507488
0,0891558525193036
0,0874140898384467
0,0908847241322198
0,0858829540553186
0,0913047063313666
0,0829979593772564
0,0870933777045894
0,0826768873221896
0,0890619186714117
0,0832902570485372
0,0895906032575857
0,0841314141533989
0,0917532684583543
0,0909599124093964
0,0948722659898686
0,0887224189650151
0,0949561948814745
0,0850986327317075
0,0908287053867626
0,0863409053903011
0,0907650906461707
0,0847011638924351
0,0928452032792046
0,0885389787031022
0,0946962573358633
0,091997596609073
0,0961465353092795
0,0891698963874495
0,0915828077279111
0,090925138665349
0,0897832659011348
0,0956727517628099
0,0882386618749054
0,0923914042667567
0,0876871358327779
0,100440377775599
0,0840363155315505
0,0991898767014825
0,0799452439045556
0,102714355636953
0,0794532742733503
0,0996098654495539
0,0800915054049287
0,104057373823152
0,0804994694062087
0,0997886167746941
0,0887041051162138
0,0981110683044435
0,0901672297207808
0,0953926426071299
0,0897635981490724
0,0913646699917854
0,0929015796548211
0,0924812189720427
0,0912315057226703
0,0955927647776793
0,0901802929947426
0,0922835958355204
0,0887076243239375
0,0947115463022848
0,0915050165510012
0,0949912381392798
0,0889925732518848
0,0934175232026048
0,0932590919189706
0,094137027390386
0,0927658070214373
0,0946525223733433
0,0914097359891769
0,0929819177511823
0,0918153477406425
0,0959904462371833
0,0943767741939385
0,0974601716717555
0,0928597043214325
0,0943036242365694
0,0939207292801341
0,0955641919804853
0,0941775334885467
0,0950170045698152
0,0933347886004709
0,098524233204163
0,0949634805536372
0,0991080772555907
0,0976328054597807
0,0984694598363889
0,0977124856738746
0,0991398124393836
0,0963807545868421
0,0976441761471129
0,0964294641484797
0,0981863913691244
0,0971501410796961
0,100451037056863
0,0972926382261718
0,101306549819004
0,100638721416522
0,0994348941181616
0,0999125281666759
0,101221525302752
0,0995020455875273
0,101454254564907
0,101598099902524
0,103640084335509
0,098868648140296
0,101398782165543
0,100502716542711
0,101335982885041
0,10051110557391
0,103285731280342
0,102759400589215
0,102896835837974
0,102807661193431
0,105831246716188
0,102923827585964
0,104395833986182
0,104347788886425
0,105012770286536
0,102377005235664
0,105127176062989
0,106980340068661
0,106206097204251
0,10554077717435
0,105501450123019
0,105846739465318
0,108319750903552
0,105025857305037
0,107692424158775
0,10735763838971
0,106517437658264
0,106475110025294
0,109861376223168
0,107419495934898
0,107700420101035
0,109773377077552
0,110766373458025
0,108646835252666
0,111100311680375
0,108145686379512
0,111556957223327
0,10989204349489
0,108269137670123
0,109197911360825
0,112551734780645
0,111481885372778
0,110549579657072
0,111045875042568
0,111860399569256
0,111714997984672
0,113101593686318
0,110895886931457
0,11163076347829
0,111673240232644
0,112781714074308
0,111852112973919
0,112304750687554
0,113844047282513
0,115375478223323
0,113454433382873
0,114900085328973
0,116995659407769
0,117120197446334
0,114578904480568
0,11680848754534
0,116339912898063
0,118416043105181
0,117730926396765
0,11690835918068
0,117642385707555
0,117018916792194
0,116698773091192
0,118579136088944
0,117037764799672
0,11922458566923
0,118961199005796
0,118616372193155
0,117753270350198
0,119389912969147
0,119624329798995
0,121441193858157
0,119682906856447
0,120391044810984
0,121176782257914
0,121399694382124
0,123425150455609
0,122114767572184
0,120211754091997
0,12313908517342
0,123694522302611
0,123864073389265
0,122063845680099
0,124332413787603
0,123018022033927
0,122492697802507
0,123766989993835
0,123503454271293
0,121406824417822
0,123560604302607
0,124022164826943
0,123745657845454
0,126197801625168
0,124841762649083
0,12471670185681
0,127774346597712
0,123842581059758
0,124114212962613
0,124886276012007
0,126481386105772
0,126544890518902
0,125857142654067
0,127971971795533
0,127427545107632
0,125471426448109
0,127595976435373
0,12573669595838
0,127341811356178
0,130012843564495
0,127295118189066
0,127386526377967
0,130259611166153
0,12814665019832
0,12823911065565
0,13086057974753
0,128278489885772
0,126763476300215
0,128819296128912
0,128820434030918
0,128875650642345
0,127134763001291
0,128440123321578
0,130294137109776
0,128723849098446
0,130296504661528
0,130001438817433
0,128935583303263
0,131485159778502
0,131216821686994
0,130114666066941
0,128552497026303
0,128958148899082
0,129116214923413
0,130921446296117
0,130822485561643
0,13150004665418
0,129962838107122
0,130855897045655
0,130132204457844
0,131372797616992
0,128836510786731
0,128692386645739
0,129073216967909
0,130476336556556
0,129483664683941
0,128823450949524
0,129818792213919
0,129363607178397
0,131513738569022
0,130595020509723
0,129258876484355
0,130167570224911
0,128705012620248
0,13050388727075
0,131083734830495
0,129170393301303
0,130374175472106
0,132399894032882
0,131772459168405
0,130427851049992
0,130828101214017
0,129510618412072
0,130464619374258
0,129993597237274
0,129857024277626
0,131554481276944
0,128515924466818
0,126747561507447
0,129339479622748
0,130958569690176
0,129243284235665
0,129263837024769
0,130421053777114
0,130295334487029
0,129893672031264
0,129359872510718
0,126714461866
0,126959101761497
0,127005962083033
0,128204980928083
0,128397178113788
0,129908654938056
0,129423892184934
0,126673465808208
0,125150604076324
0,126156021294007
0,128465146797975
0,128589807134778
0,129285667032592
0,127358699054548
0,125436960787546
0,126313742252909
0,127958330193211
0,127997582936273
0,126902480234638
0,123409542388134
0,126741455046646
0,126163004077692
0,125508900343533
0,126607672299093
0,12480073638859
0,127625610753549
0,125099820317277
0,124566098568421
0,123842448047848
0,125062460174044
0,123775140751286
0,123777292125938
0,124631495046132
0,125558109475121
0,121059259920984
0,122184036515975
0,122862868940626
0,120207020382736
0,119952474360376
0,121710359620837
0,121919319686011
0,121388984340917
0,120386671770267
0,120357005373877
0,120601843594691
0,119595010755662
0,121999360750783
0,122007793136678
0,119879232160473
0,118901116538462
0,118338663126983
0,117826053637901
0,119487393145568
0,118258606180046
0,119152857090475
0,11873193542215
0,118222071193269
0,11913906496746
0,117223993609871
0,116367317024012
0,116277816550157
0,118422727430888
0,115344951509492
0,114785977934157
0,114183338032431
0,115693838574519
0,116570137555583
0,115624039119068
0,113123028985568
0,114052334240641
0,113467527422868
0,115287744561583
0,114377859585218
0,114171001337508
0,112746443875079
0,112474061020741
0,113105534212752
0,11321266329347
0,114151889324071
0,110176505219359
0,110621937300839
0,108693650967116
0,110423215485308
0,109237697871796
0,110283567014162
0,110544984980447
0,110263269782154
0,110005019681038
0,107893962036572
0,106733148353389
0,108078479849505
0,108964250496424
0,10760242006051
0,106297642555366
0,10735341827417
0,106899325291594
0,104235274129992
0,107004267748829
0,108949533755025
0,104328715875925
0,106295462932473
0,10423445337451
0,103979276909531
0,103752869800738
0,105238040865686
0,106092906354472
0,105004896641952
0,103072239749332
0,104933905378352
0,102110725816548
0,104142299977924
0,102099873108525
0,100992712192578
0,10289315355704
0,101837528834988
0,102749777811819
0,101326029151602
0,0999223707057584
0,098476643663904
0,100574123088331
0,10144719175107
0,100075797819261
0,100899593330796
0,0983727140671044
0,0963761273208782
0,100027189353431
0,100504761819954
0,0983181844913902
0,0976564692614135
0,0988837344820284
0,0966355818840354
0,0967603429596389
0,0983016690594009
0,0960399955267573
0,0968134690596845
0,0959960157983727
0,0962039650741742
0,0986412960604321
0,0955881501515479
0,0955051385404058
0,0949773184101875
0,0942200221972488
0,09463284311457
0,0966724275838639
0,0957039038014602
0,0928722975049421
0,0906082363416459
0,0938248611760377
0,0934393723362986
0,093700097834033
0,090023781328935
0,0904250455833726
0,0916407260484924
0,0929272848163153
0,0916606873343988
0,0924825005092828
0,088470365417493
0,0917038243463424
0,0926734003292639
0,0902377254211262
0,0923954467523991
0,0903047750136168
0,0906720420588108
0,0890931698705877
0,0905786351710704
0,089221632958334
0,0901435694969352
0,0893273123181661
0,0915759985084714
0,0890589242978371
0,0876400070438804
0,0870776305373386
0,0902747391437327
0,0900776772836573
0,0904205435686172
0,0879655379445645
0,088596043288902
0,0889394620191389
0,0864839678795114
0,0890528215668948
0,0890881795887348
0,0862622024128915
0,088735198473535
0,0846105205866016
0,0907081297703886
0,0864002129431958
0,0886891861501833
0,0824183462547362
0,0890672884185698
0,0850151830763883
0,0861178000308906
0,0855858262631741
0,0845543583608656
0,0858683846138006
0,0865243638864449
0,0885625372991317
0,0830302887553992
0,0859167538132369
0,0845189641185079
0,0851613492789097
0,0841536984470957
0,0846510858021085
0,0843546799795663
0,0838926554253158
0,0863463543191926
0,0836899540892431
0,0863774740828819
0,0838661552587915
0,0849436157873049
0,085134545529267
0,0839259832764098
0,0835326923496786
0,0836280938059161
0,082773456010089
0,082475724377644
0,0861509483119283
0,0824782275339329
0,083316652413968
0,0809295900914015
0,0849059725040031
0,0828165291365958
0,0843029129271728
0,0840552888891713
0,0829792628916173
0,0838555593917185
0,0850356786478092
0,0825235002424453
0,0830893696136805
0,0796880874023364
0,0822499134509345
0,083096381997242
0,0814896433411749
0,080854874288364
0,0824997878504596
0,0827534685282482
0,0823290203090882
0,0863022631760701
0,0847157606436524
0,0830666914479066
0,0830977643957678
0,0825299904058075
0,0837646038835309
0,083692465252248
0,0831480763733494
0,0802509754348513
0,0831336424601806
0,0837320798432404
0,0858626017299024
0,0837632252703866
0,0863243042041257
0,0817595362818491
0,0837691041402659
0,0806999155814331
0,0827193325130138
0,0838082101008281
0,0832833896891571
0,080941607280702
0,0847631392646609
0,0809912069458903
0,0850370054046348
0,0779924767746138
0,0839322335091638
0,0793130170516507
0,0874858798940899
0,0867366143370941
0,08616176371014
0,0854061407949154
0,084265745261288
0,0859670137168715
0,0822360203350659
0,0836958381062064
0,0821245410757681
0,0844241538737207
0,0842859940049568
0,0839631712374811
0,0853412685276666
0,0857710513823729
0,0825585911733081
0,088234221182798
0,0903047336439257
0,0891682015637033
0,0858992496917661
0,083314975973791
0,0862749586399058
0,0910226013424534
0,08616177624844
0,0878978697792908
0,0838233457633093
0,0879727378812497
0,0866716995075974
0,0878194044306584
0,0835262431454512
0,0866376022143666
0,0867921914522208
0,0883650057561789
0,0876911554564872
0,0877764638910237
0,0901766893145407
0,0890039410156616
0,0889562339550572
0,088350282660014
0,0871823854694897
0,0915237975720511
0,0895897149659537
0,0898914196827725
0,0895490616261125
0,0918119939773428
0,0897586429325559
0,0931560494902658
0,0930824715974577
0,0898350986434309
0,0937281877352365
0,0953225918068534
0,0922912131268428
0,093867831406077
0,0921199249987306
0,0966683481821099
0,0924853286947961
0,0961776869463662
0,0985514117100078
0,0948101754643465
0,097802089571292
0,0943934877023762
0,0993359550930736
0,0959208720657711
0,0997252520646986
0,0936976255453371
0,104608580759139
0,0955179929627312
0,103580330618879
0,0991898965209941
0,102800304137516
0,102895453587246
0,0998819354916113
0,102465814032208
0,106146642741014
0,102364517379715
0,105321215031777
0,108317563542312
0,103196172160515
0,108937583295053
0,109228618943753
0,109289229473027
0,108198629955107
0,109401513410847
0,11546875909688
0,105712672776206
0,114228234385269
0,112161210380038
0,113864342961046
0,112640624564597
0,113873019691285
0,121677546913133
0,117921983404211
0,119968333843828
0,118474906464584
0,117547189764371
0,123164043044241
0,12337008761172
0,124343064149134
0,122704124227073
0,129001194302726
0,128036916078493
0,132478001696706
0,13397262547547
0,135951922502816
0,135738204892497
0,136582230472318
0,145197850116381
0,139555516022349
0,14462976052214
0,143793495352255
0,149215388128227
0,1457822540106
0,146670765361717
0,145375613676677
0,152155270148221
0,148106479654677
0,157367297021202
0,148717197229659
0,156987810634052
0,155705085314516
0,168644276621469
0,162544496988781
0,162156965236347
0,162069050277064
0,168473574043765
0,166548109202402
0,178778501790256
0,173586936030506
0,174872559857303
0,179038388624798
0,180769205119259
0,182479873401671
0,185071141058951
0,189829513121929
0,192431048655419
0,19242412427992
0,198212923904344
0,199030559760923
0,209625721595682
0,20184273522185
0,216030189683284
0,209507556756245
0,221052989258644
0,221504135740081
0,226327511075207
0,228411928106999
0,229954354608156
0,235939956446594
0,241475086697618
0,245337626786574
0,25155418908271
0,249611193622782
0,260388476429454
0,258921286474823
0,268882236235147
0,265850601555208
0,289162489153651
0,272051571256776
0,301266600662636
0,28851148699863
0,298270459106896
0,306811844045058
0,322255807483335
0,315517595661092
0,320723790598145
0,322854274008133
0,331551955178273
0,33727107838031
0,346506149123206
0,348797837876774
0,36224674522031
0,361851210674404
0,369493528075301
0,384064391721192
0,393951644446161
0,395478375114084
0,397256482789746
0,401147751003671
0,40836320038236
0,413421028016353
0,428651722617192
0,428950110078187
0,435859083992958
0,446220662499051
0,465208540709154
0,464398981700536
0,461513101333765
0,475454577843848
0,474580018725223
0,489609826719805
0,493801095960541
0,509950513042063
0,513403664131913
0,511711904406997
0,531890724451787
0,52986309104685
0,534499991909817
0,550587461255101
0,561339574041988
0,557576275396338
0,563748812303364
0,569951189376888
0,586844805427478
0,589766864137084
0,582201185230668
0,588345562842974
0,610197603842062
0,610457925098595
0,698553151995464
0,638493124157977
0,623604607759848
0,628975652141687
0,639519543518975
0,652063647610294
0,664808860788518
0,668726058160187
0,670495857081704
0,658179173677285
0,652269765906759
0,668262518838076
0,668145390263288
0,678471018362415
0,681259078117991
0,670441380725993
0,687583508911824
0,681242712056174
0,682975237896157
0,712916165799174
0,684647003922944
0,678013512610076
0,685611382731163
0,676211567816632
0,68729285103386
0,67666783968044
0,677103760212899
0,668219423872035
0,661984957629009
0,660496441044988
0,663968518823697
0,667565207140416
0,653410921389394
0,635844675244811
0,632824014258942
0,618059142859652
0,621553996662869
0,595953666436146
0,600772139090082
0,595598352050899
0,592880135060394
0,574634153480599
0,57085403972917
0,560705066872561
0,554449741627462
0,53551123799539
0,547290388389562
0,52721431843377
0,529543541034007
0,513008369099448
0,514446047438678
0,499455701619059
0,498750855045414
0,487125089662194
0,483899083576614
0,47699332025224
0,47120865127463
0,45675633317278
0,458949246047853
0,445317928051821
0,438410327352021
0,4318988366687
0,43111493993918
0,426869930557954
0,428388166239761
0,414841469342832
0,409550316974945
0,403102918528457
0,404893834327451
0,396444775851383
0,39278509287894
0,389743529070111
0,38233156088138
0,376766927958464
0,37175758752528
0,363681239391503
0,365762925386031
0,366340106723258
0,362192136273529
0,36006509574443
0,352126368381602
0,35212009238105
0,360043132415366
0,354137265814261
0,348745219833028
0,335863223341864
0,338622022753406
0,335376732297822
0,337508702606017
0,337858002623581
0,335223033844229
0,329957368778391
0,325886768645638
0,324506679067566
0,325694972821139
0,319254544866616
0,318745531455045
0,309416711087162
0,311910007025651
0,321610349422397
0,319876436596497
0,334332360769086
0,319097925480022
0,314349329092775
0,298025192146846
0,305152833934022
0,30489625366175
0,302678751181019
0,297284595823684
0,297618391072767
0,296991598275758
0,293419958363104
0,290243084912267
0,287908690251429
0,287635481631297
0,290251608709152
0,29018360166001
0,286801511192947
0,291005890873779
0,288510561682282
0,287894805176912
0,279597968388004
0,298528054010815
0,279034316135468
0,277171183426207
0,273023216291047
0,271087542442948
0,273623431975284
0,274022535131492
0,276191193901584
0,271648556952348
0,262178689311846
0,267999754003412
0,263224970814486
0,268769054838957
0,260090896898915
0,271245753686351
0,257001925077502
0,263547072864921
0,260382049122549
0,262363590568852
0,275888318492894
0,256430585531418
0,258255664553706
0,250559640757821
0,268041723820366
0,25782749354893
0,256021456701497
0,256914591720354
0,249835961496722
0,25477610740075
0,247254849872468
0,247973800081204
0,253321966266739
0,244133931333354
0,250878032391797
0,250246028219811
0,254818245801237
0,24953435427309
0,243029501752861
0,2400732877994
0,236896611309877
0,239210949064875
0,24041497245195
0,237262206512678
0,246000330009358
0,232391532644923
0,245855648477554
0,235981244875636
0,237878728027406
0,235566079032109
0,238015059683079
0,23290055012338
0,231759921679928
0,239806758435175
0,238166106389866
0,228763815952638
0,237364608925391
0,233416115254951
0,231286261160473
0,231794623543183
0,233609073717981
0,229100668431512
0,23268754248159
0,233993236586115
0,228892525807496
0,230339268566517
0,231443305479296
0,229520506008189
0,24124459591625
0,229295129087325
0,236258755273092
0,23973852531385
0,232716995120768
0,247819157419806
0,23027399218066
0,2367119119832
0,229696804574018
0,236087513260814
0,236465356532389
0,23090004632754
0,242091124513505
0,236765518788379
0,237840752164143
0,234445815412263
0,236848930579999
0,234334768898225
0,237133337908256
0,238677956064072
0,234755271831835
0,257462126101992
0,238018227938927
0,244606486261712
0,238488155827515
0,239188872673783
0,230116325104411
0,232335929143503
0,238143232693951
0,230628648655369
0,232381784929981
0,23883622738945
0,23384771065129
0,2378050406325
0,233666524742534
0,234454596567677
0,232117642928234
0,23294803713016
0,235895241640377
0,233381017095963
0,234394375685807
0,231600131464607
0,242224324146798
0,242449583964479
0,234658487262219
0,235554666310387
0,233268952515397
0,234768959023083
0,230907508688959
0,238058747508757
0,237717607915927
0,237499095871854
0,236412562544959
0,233639589916842
0,231358257095141
0,231791574681258
0,236607211215588
0,233276200013766
0,231736765394253
0,236765223338849
0,232113505795363
0,245633105702181
0,228579328684895
0,243655125720379
0,234499762088674
0,235038295937789
0,234660190403599
0,235039463812658
0,231222902014621
0,236865990972167
0,23311806590705
0,233870725330719
0,233398929193191
0,23613043548067
0,236270797560525
0,233462756958339
0,235213864257139
0,230135658708823
0,234022912493218
0,237772314251444
0,235742064395086
0,2326680653494
0,23083758265641
0,236105617278917
0,232625439173714
0,237158947605963
0,229967858871012
0,233831809073395
0,235124123351575
0,230364631437194
0,230173276591102
0,233159098685481
0,227669436422445
0,236561947974208
0,230583974094686
0,240006747821977
0,234670515154117
0,234703775716223
0,231752834720227
0,232208762111012
0,22916089660802
0,232386268197144
0,230828074386134
0,235256075137039
0,230309258404361
0,233248833427417
0,23408859740998
0,232219588598435
0,234136065131944
0,234931009531658
0,233125262334421
0,234083217758287
0,231909929850473
0,23530016873049
0,229939730489089
0,234108640680571
0,228903738728978
0,22961719812218
0,22618260321538
0,231039555167388
0,226551922323432
0,233097126690425
0,230189305402461
0,231893501707204
0,234084388768907
0,226365136078563
0,231463312845103
0,227676466723517
0,226381807610899
0,229043055856162
0,229539332013923
0,229153514992969
0,230534668900359
0,227469475065295
0,225355578291707
0,228948876516419
0,226340390290496
0,22553262745942
0,225966619787554
0,225303024592727
0,225794501916769
0,226935616816548
0,227450001201141
0,228661396068147
0,225456278663753
0,223443944388427
0,227537404185379
0,223182285766663
0,231544376443848
0,224388818574122
0,229082736610142
0,22551337965818
0,225936635601902
0,222415702174692
0,224795219066818
0,226754386700556
0,224307967320322
0,226983346726659
0,224556530847006
0,22277281056515
0,224553579214288
0,225828293714096
0,222498493825939
0,223343392693346
0,222322608579654
0,224486427829087
0,222498745734389
0,221402853085089
0,223276673000694
0,225416325464531
0,22235405503699
0,225799823672828
0,22347197583883
0,223370035902176
0,223757831616014
0,226661672447269
0,221553461818578
0,224820119215182
0,224756537303004
0,223304190960824
0,224586750173783
0,221954950704656
0,22449831208503
0,22031076512853
0,222365658026675
0,223003004659503
0,219844908668161
0,218772592740909
0,224664717457637
0,217535693035151
0,220359090441136
0,220406019024256
0,219241570062188
0,222353316697544
0,221227922833959
0,21990132494202
0,221021994447655
0,222036961252554
0,219933561585807
0,219069760497416
0,21997270667368
0,218839332331367
0,218273210317218
0,220918542373554
0,219547581935112
0,218250046455395
0,220712221612161
0,220238393704145
0,216960499200408
0,218682320247016
0,219335515912353
0,217880285106115
0,220128720070033
0,221679855144402
0,217046755068018
0,218519176105832
0,218807101602391
0,221574468266768
0,217464170695295
0,218920655105754
0,221454393923199
0,219145280927373
0,220311420087724
0,220727680762649
0,222211389729517
0,222804284632643
0,221392711515788
0,219555458708308
0,219067807232453
0,221687112039604
0,219991339432196
0,220848751535776
0,2210411119619
0,221084014748737
0,221698968499646
0,221722152434331
0,222855096385763
0,221516774379583
0,218872567032199
0,221954359813795
0,219561644207114
0,219636247971198
0,221860037806651
0,219052543984836
0,218969229121223
0,219929975719602
0,222338157280406
0,220345240811898
0,220218997295453
0,22109446406855
0,219783660851039
0,22141690858031
0,218928963966694
0,217737900197683
0,220256179556868
0,219405623036851
0,219546997701015
0,219248732339746
0,216615422595795
0,21851395007669
0,216351882987954
0,217621316331418
0,21845421086884
0,218926884360958
0,218918907937556
0,217500323973807
0,21853743507727
0,215589754120888
0,216132158239846
0,215776581913973
0,215986267747558
0,216226495639774
0,216503868352092
0,216376924914593
0,215215558390656
0,215035907056477
0,215718598019531
0,213590794961052
0,215340930921095
0,216441586728584
0,215889531248392
0,216848495636647
0,215578340926569
0,213070484115955
0,215014396003646
0,214870378168334
0,21252756565689
0,212843952648408
0,212306431799965
0,211563903054712
0,211257910666938
0,212069741778558
0,212859510482671
0,213331932696912
0,212494020484606
0,212211429103461
0,210816141856091
0,212043634190841
0,211946711099405
0,212604926883403
0,210278646130268
0,209968260695005
0,212748811167651
0,20915816097186
0,209817632472496
0,211364748813703
0,208591721730957
0,210261371222966
0,209408591752151
0,208041471241229
0,209005929465756
0,210072163584819
0,209243234932341
0,209682642253123
0,213059570305474
0,210355705195205
0,211099842145162
0,212440106849268
0,211056877939017
0,212609665032471
0,21271219093781
0,213587253471767
0,213241801010708
0,215304838455728
0,216358362738743
0,21934613476575
0,219526950245598
0,219777642971328
0,222079888490438
0,222073785737082
0,2241068142259
0,226920385075245
0,225521636205255
0,227499470057174
0,229324384296337
0,232363966708306
0,235778379773947
0,234249297221343
0,233848011253201
0,23540276661003
0,235028883923321
0,23527577203801
0,236884372466622
0,240124343987969
0,236145053942035
0,238350315638711
0,24049715272323
0,237784154794154
0,236877649884527
0,237100448233568
0,23701983570208
0,237679745288298
0,237060637861235
0,236488325123308
0,236991648500875
0,235994806956606
0,233279125353655
0,235489789925785
0,23520540602084
0,235117815056274
0,23638642525064
0,233826974343348
0,234624209862625
0,237379411459395
0,23702404549596
0,235200671693359
0,235430439839799
0,239329175504265
0,237512701374075
0,237613337810775
0,23893327333489
0,24080217552177
0,241465684178923
0,241857929642311
0,240577860864049
0,244058383944789
0,24466991668462
0,246200290008097
0,249016375870484
0,251839649087566
0,251304507266529
0,251708208639733
0,250592219601601
0,252395432535854
0,253535950057406
0,253935293087945
0,253286834603566
0,256393915106313
0,252903002972501
0,255138990585674
0,253324417009232
0,250932077284209
0,250296483090106
0,250444219356638
0,249244200712737
0,251017957039185
0,249007454528791
0,251770534511274
0,252148022943018
0,251158784495188
0,253523597193372
0,254917361782298
0,256257049958657
0,258748184505842
0,262000391433116
0,263522832522225
0,26221838291239
0,262584016110853
0,268093948745452
0,26880833705213
0,271939769842398
0,268575332056581
0,273214111492035
0,273320495917347
0,273877115888417
0,276416291393362
0,276518509954695
0,277565224351044
0,278675376042603
0,281434725082788
0,284006467179844
0,287600306677511
0,28927467057029
0,291283376233997
0,293054438745494
0,294694230734601
0,297595832710338
0,297819763787639
0,29984725097754
0,298629383023044
0,300278050751092
0,304021312528204
0,301345338358827
0,301148866010951
0,302990234613802
0,303358479916933
0,30048150056862
0,297739580338283
0,296537359753488
0,29320573935423
0,293784298235959
0,291745224809499
0,289962442800084
0,290227653089829
0,288292214097719
0,28794260078852
0,287790469088157
0,287358359558528
0,289183831907101
0,288546803773982
0,285687633467922
0,286719986269948
0,287001487402256
0,288779852387871
0,289908066800119
0,289572908077932
0,291706518217052
0,291704693963622
0,293004275103494
0,294756469609063
0,294843306805584
0,294701368749273
0,295239254191948
0,296384051526058
0,297738716986592
0,300961833161236
0,300309938765478
0,300536297578395
0,299631532950721
0,30049557463087
0,300806858259439
0,298215266469563
0,295126877147342
0,299929775273833
0,298178707276952
0,296174177424569
0,297708977297492
0,296962430958823
0,296490156436958
0,294000051458336
0,294140313906837
0,293885153243879
0,293082237094999
0,289629127099248
0,289478729126124
0,291100484836765
0,289477130950003
0,290081197945465
0,292063412499466
0,290405915730796
0,289700774973774
0,28313474202546
0,283597654494741
0,282705641107781
0,280397943476878
0,27834615846908
0,273747447987787
0,271733565569244
0,270115146836147
0,26724527911517
0,265287589078941
0,262040074263548
0,26241494776583
0,260230008978633
0,261340444953613
0,259415408538864
0,256248024450722
0,259159214544144
0,260682815950508
0,257397840293477
0,260037485772226
0,261791633809077
0,261715457827298
0,264758031254274
0,265371741724541
0,262720009065821
0,263252852353817
0,262371667817333
0,26214821099367
0,262505934614588
0,264013109977596
0,265513243382509
0,264855459699469
0,26476653607927
0,261688936803115
0,262647604268215
0,262796669283884
0,262783624249193
0,261911324505886
0,258183456653763
0,257276011699286
0,262449754170854
0,259162407662584
0,261945822450726
0,260271968958511
0,260877737297259
0,260748518660136
0,260474941140053
0,261989378661017
0,25934322197736
0,261888855440616
0,264061837344109
0,26227740723965
0,259408097959313
0,260445910935638
0,26159846438794
0,261326626017365
0,263941994589511
0,26366301354892
0,261752600944509
0,262456259326965
0,264180572396921
0,267027662661003
0,268123991776811
0,267882752002391
0,27230407391901
0,268230130039548
0,270871489020962
0,272597090001892
0,271782329231028
0,277207707445924
0,275633118811179
0,276809892091578
0,277404464497778
0,279431124478808
0,283590986837736
0,283945190523661
0,279740491029919
0,283916711120911
0,284447259782121
0,286639107890249
0,28806221544774
0,28802637936533
0,289777502872323
0,291868228066806
0,289888830282588
0,296154350814536
0,297454437071242
0,297087557398923
0,296070440136481
0,295918074903285
0,30191554146105
0,30382382278716
0,304710649465487
0,309938601176277
0,308978732435628
0,309520746154021
0,30821288504181
0,310779241431087
0,317291429301711
0,319660750268498
0,31950222423323
0,323334259732003
0,322085412429647
0,324610063409643
0,323381327252752
0,327679977702832
0,330655464514544
0,333313470391697
0,329464480415867
0,338763864385159
0,34584590225006
0,347852483016641
0,341203872213372
0,344166123839521
0,351058654222112
0,344753069080287
0,350252178847358
0,354231938452779
0,356397531048825
0,357772171372124
0,357329834847268
0,36199709885183
0,366051946878033
0,370893270916667
0,369363730022674
0,370852348584044
0,375999288983736
0,377473314915701
0,380256472750132
0,385440580750838
0,389616325659274
0,396169845868726
0,395172546424545
0,398262123963937
0,399566679916468
0,399352553003438
0,404232819690531
0,406492875253805
0,406094296255087
0,409574674454285
0,413933806562301
0,415051157356156
0,414951465706002
0,415132228846546
0,417326960736974
0,432212868288888
0,431123203618391
0,427740077236366
0,434647580196877
0,436429473240627
0,438627177726499
0,441838312895311
0,44328308593546
0,443164156445562
0,449741223311467
0,461819157501067
0,458214758329349
0,467109720431366
0,472533624213758
0,470124442258259
0,469137121859859
0,469765205199456
0,47740656200731
0,481058631831808
0,476713723465714
0,486548854405393
0,49500110069781
0,496887738561192
0,494259534634562
0,495197425730899
0,495031878100085
0,500073131332713
0,504193836915036
0,509712702890258
0,510680588506925
0,519365807797196
0,523042843236656
0,522514905912659
0,522432891380867
0,534399365424995
0,543538164121631
0,538167174735117
0,533338398510134
0,536433428351202
0,552936148538
0,556804194043409
0,565979107346412
0,574206150831214
0,555972064137842
0,559130498869502
0,570709642629142
0,570023824444467
0,56569627271789
0,572292842601346
0,584324362973964
0,597871605804739
0,594651973717766
0,584509139790367
0,581054277999144
0,594118219548883
0,612193867661453
0,612608794807663
0,605933828329034
0,608573725047298
0,606314879613122
0,597725820098148
0,608138502641264
0,648049085558702
0,643281650186424
0,627692959707259
0,627477700680169
0,632475232601419
0,653169043975316
0,660313593201021
0,654005330924777
0,676937664354596
0,674432104198783
0,674561539849832
0,68450567360996
0,671008047849338
0,691635814376802
0,704824692624024
0,674674858402641
0,687812495762217
0,696843085514199
0,684712230435564
0,7024413785812
0,712176530455503
0,707787576384515
0,712151617087144
0,702134978442862
0,713253618031003
0,739139388803651
0,745657989152688
0,724599818386275
0,735598676715269
0,750769800539216
0,743389344630896
0,737947192624865
0,72774272187397
0,757403729442037
0,775325811521604
0,761418790949633
0,785434771442369
0,740820921054289
0,761784061195048
0,799546731530054
0,757466325868014
0,760040801745969
0,821253745555513
0,811078460830947
0,767939565371099
0,806764165889596
0,826837360208578
0,782944832397662
0,818017257268435
0,811921793487524
0,795956217780934
0,802895176356564
0,791819652271053
0,831385829383346
0,859326630041641
0,867113689274101
0,842097492442635
0,857958371771431
0,872731551288792
0,809081899757615
0,870830432021386
0,925463244947667
0,875710318111567
0,85118076757136
0,834284881799881
0,866879289346619
0,919609927585195
0,908422889945275
0,877753269976132
0,868949708239136
0,902857004255165
0,872157952474813
0,879318163869331
0,905774049743002
0,995699490967182
0,96950610320875
0,926959241049113
0,923045701025292
0,923446012541201
0,898077676553369
0,910915514254011
0,946590915875661
0,928805861978624
0,912447292362342
0,895881571927136
0,968825473389775
0,981074774342244
0,9961332275407
0,964563805249583
0,928575940669737
0,900443848287525
0,998634644409131
1,00170214992304
0,96478020673187
1,05082587602847
0,983549709653518
0,993629534742211
1,07626665692114
1,00934057206564
1,02206435509748
1,11478347496681
1,02330067369151
1,06122659137575
1,09493418865661
1,00124191021724
1,06155751709485
1,0485301799076
0,948326567326642
1,088876574975
1,1227043150339
1,13522381789933
1,12403417478492
1,03022013463701
1,05481542343635
1,05194650887077
1,09415683576862
1,03835795557371
0,961706025673952
1,09902827062266
1,20584399126295
1,10795239176661
1,10846722441882
1,2250963371511
1,24085291163665
1,16618472480437
1,21890875817649
1,04568089583982
1,17413654497247
1,27841760815922
1,0500179725116
1,28100367329605
1,24520362596349
1,04486996783993
1,1992134136979
1,1144657774071
1,05822784762245
1,10995262488965
1,08601246268962
1,25654745846252
1,45167557677271
1,34444184860199
1,16096567528883
1,08458887542277
1,13444208041519
1,07550964962497
1,16298318853295
1,95142887714829
2,14606898552245
1,30603073581152
1,32069433420292
1,20994733570585
1,34249437881912
1,4514983413731
1,18668804456901
0,974764327662934
1,05610052284653
1,17191758818569
2,06429293779085
1,91824510833852
1,58658870726175
5
1,34864096837274
0,937647559708764
1,30536424978022
1,62241076003999
1,02223342990448
1,20322201079178
1,16269897396802
1,52484575642208
5
0,898420207290696
5
5
1,30621631077761
5
5
1,26107911011657
1,15973330399354
1,50572026271295
0,924058656473729
0,935863486277127
1,17059603951692
1,00268037799516
1,8889714823918
5
1,7547210185598
2,33063615716323
0,891751372750786
0,962459161636997
0,939447377494959
