3596
4000,36533379555
650,420452594757
1
2
2
0,0122568865250908
0,0298033042054601
0,0205572473970797
0,0150755113039968
0,0193572323130877
0,0303190134359264
0,0112610263284924
0,0225280592286173
0,0114057394472903
0,024516842472381
0,0162371619426462
0,0281406046472165
0,0160522443342714
0,0208780196199279
0,0165951636495091
0,0246481112407412
0,0102809998366888
0,022890376709012
0,0173552744831818
0,0246545912951506
0,013789075809945
0,0252140303858873
0,0154666311354216
0,0257143346196171
0,0190873301314947
0,0202016929103979
0,0208834083077207
0,0155107070416327
0,0159214782012369
0,0261223801605061
0,0181719919086438
0,0261251372888596
0,0186105299316631
0,0318681508643572
0,0250780957803882
0,0311724710315687
0,0131558191588409
0,0257886455375765
0,021007921792204
0,036209309676602
0,0201928282199416
0,0216858440837924
0,0197981217925292
0,0254263628121507
0,0174768518752641
0,0211363288279384
0,0166037379321667
0,0260752351305314
0,0132940854570103
0,0170095148585481
0,0161838977311229
0,026157848018298
0,0189419127345968
0,0261020757605943
0,0111205665970386
0,0272798662829001
0,0148956005264111
0,0253513469222024
0,0232481740391781
0,0232355817081953
0,0280238193249265
0,029982129433746
0,0152069516700595
0,0275510612388408
0,00970026284622263
0,0274516687909295
0,0168765053320733
0,0344773450811776
0,0144159217776343
0,0349156463853383
0,0165487603295432
0,0350549518853124
0,0222131655830787
0,0307986287386426
0,017782912162618
0,0245667468225926
0,00907579507134567
0,0258160198242835
0,0252903781161605
0,0280661217487335
0,00785859485497368
0,0246442838435032
0,0206293296631486
0,0331042863732919
0,0124020576042843
0,026988997352574
0,0186464149466044
0,0306947169754424
0,0142969515762416
0,0225422739215962
0,0114490930084763
0,0329568600287404
0,0136763113629574
0,0259061082416155
0,018144095088035
0,0274503065530214
0,00904693723089816
0,0307310291401613
0,018672616313681
0,030878218703553
0,0281263025425925
0,0196600506111358
0,0364151029059479
0,00926758877206823
0,03688216019842
0,0258032010804498
0,0170354044645516
0,0392089046523281
0,00633156608034749
0,0304158746799698
0,011127274351136
0,0367898963109592
0,0123879387917004
0,0405444847061162
0,0117622392885223
0,038976711298351
0,0158004789204702
0,0314962800527349
0,0165452158295308
0,0281968163950501
0,0132747263487886
0,0289277957930834
0,0309987493302941
0,0214525095895208
0,0206409110227435
0,0241763005366567
0,0153734169011954
0,0267164823905705
0,0190432361683642
0,016201973068451
0,0235057796105074
0,0284109404759357
0,02502076769221
0,0175247246628889
0,0273410056520159
0,0192708682811162
0,0253672479034422
0,0232105035816928
0,0175401370793981
0,0328077852173587
0,0162281316731835
0,0272709730426031
0,0153148412160341
0,0233879284324123
0,0263809976554771
0,0290061527956636
0,0203009200425663
0,0269780019398736
0,0205061645541601
0,0237184121871396
0,0210933061853636
0,0218295343025376
0,0167141370796239
0,02980792043175
0,020254610236435
0,0592807484271693
0,0423836324896113
-4,54779858359593E-05
0,0420421506304227
0,0125476968878625
0,0369204883239463
0,0151343144230421
0,0241390195025842
0,0194819813090525
0,0240522145466819
0,0234182259021757
0,0154885220188407
0,0304266031356344
0,0155044191646238
0,0316203239656804
0,0160389800409214
0,031447184235896
0,00292833462318484
0,0374088223313448
0,0170144254597311
0,0270704912334993
0,024990347355746
0,0273631307988013
0,0229933511350455
0,0193976498471331
0,0274854978187707
0,022926673928556
0,0263602197312734
0,0199963873940855
0,025134091080219
0,0288482320921238
0,023062997895715
0,0263501470117403
0,0301911199219979
0,0161080800172465
0,0304691965320761
0,026304423629985
0,023555202155123
0,0199313918631933
0,0342740851580174
0,026455974009632
0,0378586564189195
0,0235182642043724
0,0194469385968223
0,0280902297320938
0,0218098157767076
0,0273015633754707
0,0233738788060451
0,0242205633501259
0,0336632704397858
0,0197820614180012
0,0436081554578925
0,020011492651362
0,0150652726786633
0,0210459560084378
0,0252727155514489
0,0272929079897522
0,0232607573566612
0,033165077410168
0,0127786354336593
0,0336564007436669
0,0166020344761817
0,0242500714212638
0,0291730103608092
0,0233658693060361
0,0230889416681248
0,0309600729621539
0,0176563171615884
0,0259209496842501
0,0232906142008528
0,0254287146307543
0,0228024467367644
0,0309728357912401
0,0321550555071333
0,0356950295729384
0,0238141238205038
0,0276377992383383
0,0239116975607749
0,0326483579992798
0,025670164907924
0,0241962951624294
0,0323431424916516
0,0257873551630015
0,0336570583896076
0,0259772262792428
0,0250202404328504
0,028706000442754
0,0311526131327542
0,0255338580324419
0,0383024802404808
0,0250580913130491
0,0465050733306783
0,0279469396382822
0,0367135744290854
0,0286151081267794
0,0304425542450225
0,0292485714056737
0,0274690358390599
0,0239507211024553
0,0215127803933064
0,0341127009419874
0,0301405281321425
0,0401997185725802
0,0222539335275363
0,0339219710125971
0,0310174645549824
0,040048645507825
0,0254392515846181
0,0487973446000901
0,00925122058465483
0,048268655948065
0,0317624364648378
0,0321765365368265
0,0441048619324049
0,0301401787576829
0,0279056768727782
0,0480273179770718
0,0342273635547651
0,0787203988972304
0,0194167099032319
0,038946684146749
0,0334170453000304
0,0462972810808461
0,0264087629095128
0,041240291463819
0,0291524437723277
0,0324878894298671
0,036891354291845
0,029439737038778
0,0691526909129999
0,0339586646093081
0,0473697306633943
0,0500814049518057
0,0314451989526633
0,044525750815805
0,0351872717294309
0,0384701632630318
0,0473341322999344
0,0570821946157121
0,032694529811514
0,0576268169076906
0,0278409841656836
0,0536816287361221
0,0360022341655005
0,0481155459291305
0,0346834647307416
0,0613633197954442
0,0419693038306874
0,0498892525434866
0,0389309670766512
0,0575286497708556
0,048438010679781
0,0489545548162819
0,0535502596487921
0,0599755098828059
0,043041443464173
0,07849378813469
0,0414240451658366
0,0543914709328684
0,0451685943242988
0,0586229565309917
0,0520431196656999
0,0700997152861389
0,0423351344085834
0,0639430573589404
0,0594685567674849
0,0687748182660968
0,0600313018134553
0,0720413498166
0,0677172007405481
0,0712579688263825
0,0726814087754251
0,0769088961306736
0,0756049544918428
0,0821669702284293
0,0710434157699417
0,0931536841175803
0,0702301295414848
0,101537206457463
0,0849580933921866
0,084009103817619
0,0923182996047323
0,0884102168760673
0,0936378815467031
0,0907466661428666
0,0982375530832918
0,0982830314154275
0,10063402069983
0,108563787528653
0,111484741247845
0,114530023760104
0,122650233958379
0,127001413637669
0,136887704781475
0,121354507574951
0,116110257107635
0,132526894129674
0,126769005195857
0,163930723376896
0,123280639997066
0,14931170175988
0,124747349776482
0,15681121886281
0,137284891532614
0,161805856108133
0,150003586793207
0,16766139126716
0,162159453767428
0,166800513632934
0,166721357012865
0,178053707186233
0,184530083653791
0,192061289293012
0,183632006042375
0,197603060675571
0,189358367325736
0,205264714196435
0,200927447627528
0,223112477275299
0,22275324792191
0,217538832927968
0,227993230821116
0,217261204193343
0,233338802569311
0,218048930742551
0,228242975536485
0,226895327532639
0,230337976801072
0,235032727204216
0,243046985263571
0,245249126790029
0,243588503323121
0,253250579430793
0,259171407872008
0,25357804202593
0,263547187883291
0,270699512032049
0,278372143773419
0,278047136684006
0,265985548794033
0,290636804544558
0,294006220407319
0,296286898594146
0,289838250007353
0,303508620407507
0,279256418445513
0,295962054159587
0,286564658254982
0,323096458311923
0,297204001485368
0,317232259662274
0,321727791009922
0,332196917922104
0,328234045000207
0,317908921803227
0,32041464294456
0,330252115249529
0,323323143625326
0,344133704456831
0,336731370239687
0,366291513059596
0,335316060274307
0,354684751871455
0,337698533182409
0,36274369810729
0,342317880720231
0,377713796922744
0,349830581390711
0,352603058449394
0,353709971439177
0,361560379446705
0,360405715118818
0,378486204592737
0,387502042824225
0,383669728987406
0,380952714138569
0,397543517966899
0,386121645386927
0,415004370774902
0,407818591473764
0,3974011091657
0,38619294506798
0,396736229822916
0,400668423212606
0,432496886979441
0,417874685319903
0,420462988230285
0,394299093104073
0,442022551369555
0,409609720806119
0,433887692967608
0,433978145251821
0,441267294962295
0,42999562925953
0,454470510075244
0,43922035268785
0,454433086924053
0,448221124220737
0,459232161006679
0,442928522851563
0,456958657201711
0,468515474477793
0,482625537934155
0,467954418891375
0,477981362091184
0,48914341860063
0,486528646151384
0,492717601116057
0,520179207491721
0,472558470537082
0,51688696470653
0,495597585411614
0,500998486608011
0,488149808842548
0,49246197474833
0,493099592826527
0,52212669128375
0,512624757940297
0,519708869989055
0,513535913758561
0,536177395772186
0,535215500428999
0,549917942926928
0,539506788963371
0,555214481485496
0,526867567416256
0,542012185930555
0,541882641754014
0,5801126392223
0,574830317096085
0,54771381346718
0,554703366698389
0,591141060780068
0,585558081159552
0,577615754982712
0,592175085546809
0,602225109246009
0,597256781968958
0,609024171401532
0,5979589810002
0,621694694062168
0,590666937130628
0,613452677694511
0,622469677587844
0,610396179434753
0,601016274495968
0,616559280247352
0,628666624026679
0,640671044518525
0,640360527731253
0,647509451198252
0,639558565051396
0,647929737979461
0,637489817359227
0,658308320682082
0,649078354152024
0,65397873337627
0,662124061461614
0,681969383633524
0,668095545312881
0,678955254429113
0,667179169813217
0,704641531099576
0,731294028903991
0,72998825961877
0,700494695780672
0,701190098451527
0,697555875253815
0,705368865366919
0,69794646163827
0,735574718103803
0,728160336160808
0,721533210690782
0,709538140580649
0,71470540712446
0,749318265462698
0,769058247474456
0,732284860107974
0,707319248631417
0,739474262528338
0,761564810191579
0,74143956201157
0,745003497440287
0,775503454380409
0,76740982571088
0,769770223028406
0,793244492167164
0,759311356639727
0,780869315514464
0,792510317372946
0,823069972435954
0,791560622736755
0,793638847761237
0,802159149560359
0,783340632001097
0,785449214344875
0,830307204246577
0,800687793468346
0,831636074884553
0,818280677101117
0,804704082210147
0,80573515816967
0,825835978247613
0,853862675780976
0,855531231134387
0,863359633629992
0,891522803009204
0,869543839905993
0,863337016865221
0,867762927426
0,901669237781982
0,86071299227676
0,830418436048744
0,847463952004073
0,884860035011218
0,906678373807334
0,901583732913666
0,909462329695715
0,953845420132112
0,951642232794682
0,889578450078541
0,916968203056658
0,95755349235381
0,948536290347294
0,961097075441103
0,919884624078637
0,93043639069095
0,938000826585073
0,937773804856452
1,01910293166921
0,947183757476899
0,889942701696018
0,952547106547125
0,971018949920569
0,900522674221668
0,955307499951982
1,00392753472582
1,00600109115122
1,04226369919296
0,949540128568086
0,932504992543364
1,00909267938263
1,00485138893119
1,02448895774581
0,994463213966072
0,966665074344842
0,953704695434114
0,936533892650656
1,0010177377089
1,0779771449392
0,994648506595301
0,985833475914221
1,03890572880182
1,00298808866657
0,997316888323264
1,06157196684852
1,01311733653564
1,0309435286822
1,11723393359975
1,04853486856257
1,02609385114948
1,04828919287853
1,06630233894881
1,10240370065946
1,04867996665138
1,10787032241747
1,12621402898317
1,04934875744206
1,07124056915344
1,09537585999692
1,04357737547261
1,06930687406098
1,1439648563717
1,12739923977665
1,06293932752257
1,17477644276958
1,22933526242503
1,10570007563757
1,10302808895876
1,1364361624507
1,12077138073685
1,19079512859516
1,18419887626422
1,15439294902929
1,12891201029374
1,14676260299409
1,08876536565997
1,17392469871027
1,21669463308489
1,20426276166764
1,2030256478715
1,1734228880621
1,13363296343582
1,20819784087343
1,17003680077622
1,18526943936738
1,18666546015393
1,19899575745302
1,16092149816568
1,28363260756334
1,29080356872065
1,17991084517836
1,20612318571947
1,26418285395839
1,18648444378729
1,20170834530907
1,21055745812489
1,29987203641046
1,21942475307235
1,17971610205066
1,25605732118559
1,2145530324166
1,14866718112341
1,23718765721596
1,19706996452319
1,18864972192012
1,23907964391873
1,16110621765567
1,16930019103702
1,19444324204163
1,20332341975223
1,23792889138561
1,21425987668236
1,25441925814614
1,21531025889376
1,26098441560541
1,25685175172526
1,265934999861
1,24222879459331
1,28387587738311
1,20158252284281
1,26686366506157
1,2775980008915
1,22413165444033
1,34161862631887
1,3258444060444
1,22629394424863
1,27083775662548
1,26554047186489
1,25229554417776
1,19100943779313
1,27501572504054
1,31254700064116
1,25490568587296
1,21791453016857
1,29678473319691
1,27824987937835
1,20910614547563
1,23662546910355
1,31415260841191
1,22670521409411
1,20312847495169
1,20386074797005
1,25267911594532
1,23990191824051
1,28371446282919
1,19936524233613
1,26275323771351
1,22763730300274
1,21674889938183
1,26358277416651
1,31678090779
1,28314322398648
1,29427465600109
1,27497834516674
1,28441401548252
1,2121454017225
1,24790039888924
1,23289102636757
1,2692532957102
1,30682430482453
1,31340834401674
1,27091473719336
1,30107711894751
1,27240500724585
1,24908652010802
1,26378808320353
1,34430632192537
1,24461861580841
1,21583784750153
1,30166155836957
1,32940031730121
1,24752670901502
1,27323094088495
1,19969155865906
1,22500981666033
1,18841126820308
1,26144112528363
1,25882449928325
1,20777403474957
1,22813641120375
1,27620917121792
1,27857559158566
1,25778520047562
1,25770447532028
1,26158417273321
1,22500075003021
1,28617723828566
1,24289054579023
1,25376626269573
1,22608172208505
1,26814345524789
1,23237639401343
1,33784022169456
1,32397019463416
1,28491448139504
1,23282381619288
1,29509831314212
1,23610039271781
1,27261570878917
1,28290698731154
1,24847669260948
1,20561080769199
1,23501885620866
1,2753033443108
1,25724251729582
1,23372816609174
1,25694147266422
1,20386258381548
1,28251970047095
1,24270043445621
1,23196984376322
1,18380762769734
1,21143309084063
1,20696384419737
1,2348242749209
1,24069277308983
1,25824890160214
1,32345533072919
1,32885719708731
1,26842505186342
1,25752485585787
1,17510609143467
1,25016964007712
1,26772921508178
1,29202627934753
1,23940803108841
1,31655684675251
1,32747956927712
1,21488773520403
1,19936851352036
1,25409953923679
1,21843591578257
1,21520408466897
1,31404847478814
1,26597868435978
1,23450731384969
1,29800735804614
1,23325047273205
1,29978803799434
1,21669974775615
1,23948203732151
1,2077251777414
1,25555943772415
1,21285651763496
1,26802503093893
1,21998839160616
1,25546128553585
1,20893353981485
1,19555217143055
1,20895539791951
1,21770043806182
1,13333262911592
1,20540491409481
1,21207751389305
1,22200900120432
1,20209142004444
1,20881623064488
1,23017728098095
1,24385351796033
1,14881920178646
1,22762984857992
1,19151759893491
1,30097886835114
1,23811362806056
1,22688646669176
1,17445259744123
1,20019737656279
1,17184161142769
1,23970308703632
1,20294002466863
1,2260226573364
1,17730165271379
1,1964735579604
1,1044001412163
1,18995142798116
1,17733172610229
1,23533738185776
1,1453839405791
1,19417909627604
1,16949636163887
1,151655547511
1,15598937479714
1,15579010295983
1,1113668846778
1,15917817817627
1,15173408381314
1,21105432871189
1,09641606238945
1,16511916339482
1,13793109170701
1,10735030341474
1,11547898003663
1,18526264137215
1,0974040757605
1,1300209368443
1,09509205403625
1,13776035479611
1,07831325246375
1,16402957708085
1,07946963990671
1,12046729665864
1,0625366762559
1,05606750937487
1,05455254809812
1,09523842542408
1,02035252550817
1,08693723916948
1,03641307794609
1,0187444657571
1,04530836796343
1,04058597476423
1,03381869181708
1,05943746976043
1,0254874640478
1,01898275316248
1,02264819242833
1,0385370281425
1,01636256957188
0,992148621286615
0,992229529843312
0,996200300382522
0,984971051143418
0,970353113429703
0,967447435780587
1,03324762217248
0,960753101308612
0,945394915255369
0,924175479498922
0,986893669364953
0,965074800613015
0,966067491988673
0,963256779806934
0,934202142231541
0,925388472697482
0,915667577095007
0,928293737403501
0,917375373039156
0,937538001438625
0,926456216614196
0,902761859613358
0,93085278922225
0,897795179506906
0,885686271503598
0,842168744987301
0,884325524432688
0,899976630989991
0,887010729940946
0,863394966624415
0,863438205163367
0,834803681787887
0,863721553870201
0,830324469623174
0,845317669012781
0,820728936847924
0,839838041429949
0,814633251106826
0,829532126476122
0,816905557327091
0,804463455883306
0,78739137851407
0,802355429234634
0,784171455749715
0,79390137466878
0,782579191582595
0,797429288149705
0,773436496237384
0,781561698709606
0,7637704273895
0,766732984176401
0,753135466533764
0,763156950372235
0,733363353618833
0,748264810137569
0,720036420128228
0,725724366400512
0,725310474978973
0,716932753416967
0,707455827663329
0,725112847067381
0,71054006039609
0,710230825962713
0,697108092038824
0,705117716853671
0,695342810048252
0,698047218413451
0,676478302580074
0,686152404192142
0,671885515248621
0,678220329416483
0,661431734769454
0,666789418183595
0,654939042715879
0,66164196645141
0,658200679568571
0,639407133480415
0,638943378967964
0,64001991519313
0,629778034528229
0,633962722264996
0,628077243967639
0,622352692333239
0,616950647693365
0,613670751515443
0,60332474318872
0,609120610157663
0,595362801908674
0,593942356249073
0,592634417479961
0,595851108766504
0,585237423465321
0,583257249438484
0,574305950855698
0,577950673633504
0,567419463119725
0,564735812011368
0,559560202900131
0,546276494490932
0,56569969846421
0,55344366909722
0,540282482362271
0,543588992545908
0,534928781620003
0,54281712350898
0,529525452648013
0,532702665041194
0,52031999625027
0,520119621838344
0,51251674289599
0,532033001609443
0,502583336895076
0,518160660137487
0,495428137565371
0,504186831578914
0,490132923479689
0,491883851903898
0,484434570882349
0,4859411922552
0,47044444407738
0,481962869992988
0,474664978924125
0,479006364729053
0,46750212142155
0,466245627625753
0,469446633041897
0,459375213996916
0,458883555596406
0,447492684768136
0,449148078501266
0,447563737491041
0,44030219386544
0,455054775653302
0,433057330687546
0,428646686448376
0,428337396764149
0,432882794748816
0,437813067857016
0,42120891465518
0,420832831663966
0,419318853175502
0,41521780539171
0,414710169546556
0,405308388248007
0,406911957708256
0,402083769305734
0,40450109944219
0,396238279542551
0,399997437595074
0,391108647224985
0,398417295390471
0,381859839995346
0,386686783180653
0,375261030520268
0,373570473861166
0,372437078251927
0,376367900220628
0,365728364765427
0,37450235214918
0,361886401073301
0,369644768350242
0,352901176662613
0,360326032977265
0,348333886054489
0,352082878214755
0,352443652982906
0,350651433406788
0,342019772273964
0,34158246246099
0,334541976301868
0,345602999139932
0,330182237861485
0,327546519483882
0,330442017167791
0,331409995506612
0,331462896074365
0,329032469052524
0,316087376327147
0,318832222365456
0,312573842423034
0,319168638509284
0,305709007830765
0,30803789567665
0,301126914389185
0,310025215015149
0,302684282094723
0,306585700874753
0,305842492121225
0,304519662812092
0,287994215823623
0,2965885829624
0,289306974946658
0,290876534630506
0,285788991062984
0,289074803163112
0,282378013051561
0,282698539786063
0,280472491641689
0,27983746315862
0,280336723222171
0,27842270759123
0,272931904711611
0,27097167795004
0,268777685069228
0,272866375846191
0,268862911839377
0,266343718665114
0,265356244455179
0,269746603320014
0,254491143649706
0,263427112666332
0,260176967152189
0,255630894201919
0,251850829276468
0,251715653300438
0,249835706509737
0,248186480968357
0,247254010165808
0,24453576256607
0,243366338688507
0,244200288922231
0,247109985669539
0,237624891615861
0,242218852920467
0,237223102132504
0,238228466983038
0,235995303575753
0,23536044417267
0,236845099564006
0,226861516719809
0,229031293686186
0,230063941390396
0,227403004804291
0,224639693270736
0,226566322531352
0,226591505055974
0,224974846318911
0,222763568609283
0,218598657458415
0,216276049232004
0,215210366379156
0,213297839566383
0,215331641067315
0,216918129609756
0,210809910152126
0,211850966415112
0,211854462966505
0,210048105673908
0,210462088812084
0,207854572664058
0,209040274971836
0,202915666370213
0,20816169845887
0,201517087541002
0,206157330683383
0,199028998601027
0,20437708585139
0,203494611755082
0,202033159823959
0,194403701449214
0,199043102595969
0,19599501951709
0,200759001658238
0,192666465619018
0,197781855752313
0,189103711504326
0,194746106398374
0,187089289178661
0,1929681196621
0,189343866488503
0,189118229538676
0,186943817450535
0,1811752441921
0,186503987236637
0,182746625188493
0,176987447030003
0,183910181166055
0,175995900776373
0,174233822006413
0,175891094127844
0,1716839453228
0,174103103051874
0,171348878829922
0,164712186910322
0,172892653409099
0,170597965685552
0,168754883669743
0,168658952111357
0,17267225947942
0,170820946014181
0,165882771907772
0,166970610920787
0,166253316650018
0,160357295228841
0,159268019368383
0,158177021576864
0,160142744475358
0,15560473315211
0,155462803900058
0,159903319590587
0,161197552356667
0,158159354383469
0,160289002750294
0,157229728470452
0,152365456868931
0,152521688552327
0,150721249553585
0,156129583085565
0,155966107503934
0,150102958651104
0,150160279624902
0,14730215240628
0,143559169802361
0,145448797887141
0,143268787902324
0,140027303552349
0,142469219361522
0,142090874319859
0,144255189157895
0,141141560762643
0,142290893520728
0,139513068082425
0,141070484814096
0,141800704845442
0,14161258448626
0,140618534992759
0,12966474514463
0,131568874223101
0,133907281394083
0,130931240133213
0,133722399990407
0,130860517095891
0,133261501933573
0,130024397351065
0,128549229682144
0,131769563227495
0,133592273509624
0,12786213662051
0,130141667267367
0,124389305018111
0,125551215979874
0,126929974233978
0,127010516497796
0,129600496840572
0,127587143027392
0,125026672330249
0,12413791372257
0,123623089136125
0,120659514706247
0,116102604904409
0,119373128115602
0,116488757461401
0,119043042559932
0,115549394122484
0,116943985785764
0,115911922298461
0,113239275586632
0,112024130084803
0,114118571225147
0,112712446415655
0,114511875513179
0,107791865324291
0,112755055313355
0,109608612623247
0,10741901336163
0,112204176056571
0,112806431334587
0,107952366359621
0,108451119928182
0,103189849923269
0,106610451923002
0,105968288479389
0,104442162269652
0,102901461887022
0,104876236417941
0,100832732057358
0,104464845920167
0,104833711395309
0,101798827633068
0,0984628943204545
0,101286462725047
0,0975742298695708
0,102157342903779
0,10040438652181
0,0989176346057127
0,10091296728004
0,0950241616897665
0,0977511799988432
0,098566323948923
0,0975402142426387
0,0986751102053744
0,0957974428823101
0,0932248934349909
0,0916981973785963
0,0949513722026566
0,0920474731737004
0,0942066951896023
0,0908390441388699
0,0940899210957067
0,0894514578824092
0,091083827674754
0,0911824342281816
0,091190186756332
0,0863761457540905
0,0943389680781034
0,090435394105605
0,0886190580140702
0,086317306883061
0,0890635835957413
0,0876413184788192
0,0913042222867649
0,0874217056092498
0,0883290288771387
0,0836929297941819
0,0864539711457902
0,0871528074655983
0,0860470745897957
0,0842418771097688
0,085392208277132
0,0864702138131511
0,0880231981231012
0,0831505089096445
0,0836067963626585
0,0818558975633341
0,0861600370625947
0,0798589679245139
0,0860498515239162
0,0805609860895439
0,0833997513075048
0,0841688161383724
0,0795669810997555
0,0810695471717499
0,0811346459678049
0,0800896018559274
0,0814173583339345
0,0803429937792167
0,0804372970892855
0,0843611124417123
0,0772413871998721
0,0816635788094981
0,081655910210193
0,0774224982473526
0,0794423497335775
0,0759198894349343
0,0781243599647297
0,0793830596816418
0,0799568001503716
0,077074834336828
0,0798553227174033
0,0752236253941615
0,0774720946791053
0,07771960470052
0,0761528026709764
0,0763139824649948
0,0741276171499842
0,0714025342429273
0,0726683373524738
0,0759590193312238
0,0777641820106035
0,0721820136454861
0,0717264092053617
0,0711709509459293
0,0733141305652932
0,0735367121051812
0,0757355241836677
0,0762478949676877
0,0751012048806305
0,0714557276021763
0,073662743768759
0,0733520369000842
0,0722301354562019
0,0745388363019098
0,0706612931572365
0,0720323935295677
0,07281120346932
0,0687496877079695
0,0729037448477768
0,0705935899333187
0,0698123617111884
0,0695245294953893
0,0721068349593983
0,0699448653214919
0,0711036911044211
0,0687938781872342
0,0689087722478338
0,0690989505462585
0,0726729291376669
0,0670259355750928
0,0679943175214097
0,0676237740975258
0,0667391714731705
0,0704661760284115
0,0709248487846728
0,0732322597452324
0,0671485242255062
0,0671562833321662
0,0660591819889591
0,0652133731214219
0,0661707414802827
0,0672973835530706
0,0660679231952551
0,0655008367319014
0,0669296390436128
0,0679358939294382
0,0668676903232874
0,0644891861851733
0,0678984471249411
0,0638500192198815
0,0663754656703811
0,0644001792475938
0,0646825871106832
0,0674877401333771
0,0669993815874622
0,0638537785115221
0,0679724110969481
0,0641801010948181
0,0647214837713896
0,0640448040876669
0,0654370584521647
0,0646269886444339
0,0617492720632217
0,0607503983003587
0,0649724222503634
0,0606032334846335
0,0618392989852467
0,0627101873595164
0,0657859043449465
0,0646960591204011
0,063231451363679
0,063747701251939
0,0647328902848411
0,0633133961884039
0,0640685881113288
0,0618915020521102
0,0628864500214793
0,064105480956208
0,0633225694577448
0,0620011465303794
0,0596155246112888
0,0619156278026869
0,0637171149367972
0,0613122843757112
0,0598677797886246
0,0623450905751334
0,0615496030000139
0,0597822743905116
0,0623382370643249
0,0595126636084338
0,0634453732159204
0,0626951828760446
0,0634026795917788
0,0595405817487517
0,0588343698087651
0,0624656538746201
0,0630182769789508
0,0604298896913552
0,0620637515776696
0,0595929549607805
0,062394736872017
0,0643962880040933
0,0609617457255619
0,0601926724532295
0,0633224654716353
0,0605103636094503
0,0605321535174458
0,062654607203403
0,0597314765989633
0,0555023138061626
0,0571321077047779
0,0592580591070015
0,064263973703222
0,0586168255436053
0,0606088025313825
0,060320418661892
0,0594375733372295
0,0625219073680238
0,0586704939620706
0,0569030805272048
0,0604973230565451
0,0578138559349365
0,0593275188024207
0,0578084871102647
0,0613065763340404
0,0596893644264056
0,0557328043037277
0,0572929591007653
0,0547926730011249
0,0572041049233286
0,0627972687953114
0,0582510851609051
0,0582055889797155
0,0587337620522456
0,0595317441147299
0,0582968286431997
0,0589599241481155
0,0558431060384844
0,0595683547260446
0,0600209215910949
0,0588512289494774
0,0583714169630673
0,059414966944001
0,0589924270227406
0,0541367504840421
0,0587233388929471
0,058381404063899
0,0541109832999912
0,0567657286864209
0,0573274375429737
0,0579466466898531
0,0563195528370056
0,0607915307492864
0,0578603005372449
0,0570596660237616
0,0577645820643954
0,0584477607031179
0,0586577693790315
0,0600343315672163
0,0572298661734331
0,0581558412212907
0,0571466518467318
0,0569826719749722
0,0566733907560474
0,0586145803973452
0,0558683843738776
0,0556737104424184
0,0561219030661657
0,0580032522132064
0,0572127782480521
0,0567664368784187
0,058561532038217
0,0605091298333974
0,0542725558421863
0,0598959744065216
0,0558325396264948
0,0605701562139133
0,0579765606454268
0,056549565588603
0,0536320558278899
0,0573811365846096
0,0555048541851759
0,0550600600229403
0,0576745056459423
0,057691950138706
0,0560740612425216
0,0591154763728402
0,058748920775365
0,0552859689679681
0,0574082922923371
0,0556009965293304
0,0549001147298344
0,0582003265292964
0,0533264636100272
0,0577280169461349
0,0574206256560325
0,059595612463368
0,0580369835546533
0,0578075091167359
0,0561697123442026
0,0583696265253029
0,0580348974446463
0,0587458932339969
0,0538055298944754
0,0569310586070856
0,0574439876904664
0,0564609270419656
0,0567702485924213
0,0593174826204169
0,0571351010879435
0,0574844598850957
0,059020764837773
0,057333558952282
0,057031887798139
0,0569534409729793
0,0575901754307274
0,0561311108668959
0,057696277634716
0,0583648098614114
0,0566433845893724
0,0588860112287444
0,057147053341288
0,0562786105967125
0,0579470798065633
0,0586017675507786
0,0544015718244549
0,057639426509997
0,0563427444560763
0,0578187798312909
0,0561096306394487
0,0585193314323517
0,0574496737917602
0,0571639310425789
0,0573795445031421
0,0605373210902167
0,0576245217007335
0,0568985288794725
0,0599240063359106
0,0587628564580624
0,0578043545838006
0,056689200535021
0,0573330963634028
0,0606995926430536
0,0582679597018347
0,0594898411985346
0,0590650697416948
0,0574017014543095
0,0591790430010541
0,0587744507135657
0,0575423173607405
0,0613670261034478
0,0595860360510589
0,0577922451177137
0,0579336795784352
0,0590843860103056
0,0588067584780377
0,0593670648920368
0,0605141601100927
0,0604796789392679
0,0597003736722272
0,0570942436818088
0,057052854090758
0,0593214860951942
0,0589252700604898
0,060437375039356
0,0614577115914141
0,0604673811867869
0,0564821581789656
0,0603624686906827
0,0585783165615877
0,058097128314347
0,0581087243709689
0,0593422456153171
0,0598647653682622
0,0611211680122542
0,0597243041812987
0,0581032357697451
0,0600454983670163
0,0597123517306841
0,0588648177531908
0,0592358120227849
0,0599164789985192
0,0593815335472833
0,0600599760997923
0,0601997662744824
0,0584161170299054
0,0600427802867989
0,0621507260477655
0,0603910622278319
0,0620407203821852
0,0610149422485417
0,0614078542750327
0,0617020663219599
0,059279192575988
0,0597147245363146
0,0605646603259555
0,0617428922708258
0,0595570141971419
0,0612343388358798
0,0620316973385102
0,0611725895172293
0,0611044205924748
0,0609046877508842
0,0592624900043074
0,0616750171040462
0,0598281405176882
0,0608273516312327
0,0610607251567113
0,060196277440977
0,0613300098331634
0,0635593982894652
0,0612059938995801
0,0614675346841967
0,0625532850166716
0,061498349663008
0,0601858040233548
0,061667249420986
0,0623988187988893
0,0627386487616723
0,0626460172048515
0,0614749273155761
0,0615947561052084
0,0640331932484382
0,0662455581092629
0,0633585018340257
0,0635004809071957
0,0614077354206484
0,0633381703728972
0,0637464479653974
0,0632192432804688
0,0627231223726379
0,0640426120014362
0,0638029191375264
0,0640286281586099
0,0633265452446145
0,0618930592255073
0,0623495155772877
0,0637698318784729
0,0661528134084005
0,0647298953354498
0,0631512918309274
0,0641187274188891
0,0643229963593285
0,0642204688322186
0,064068930888022
0,0631293582651986
0,064035117860856
0,0631278493006849
0,0650689256532012
0,0649218421793747
0,0652386008459624
0,0627918990424267
0,0652469505220024
0,0637208830518669
0,0640420620030936
0,0663575096122028
0,066689425905497
0,064672410255913
0,0659781968427702
0,065336776982867
0,0653069036064821
0,0658955048645055
0,0656496859252163
0,0668795603014297
0,063906537681806
0,0648460004394752
0,0656189354556687
0,0661040612011376
0,0636067511721046
0,0671700657495117
0,0683228621581953
0,0677025338867881
0,0642829982921588
0,0665264921835228
0,0649779545583439
0,0653661782821956
0,0657152016969891
0,0673282669831006
0,0660644739347453
0,065370869507566
0,0647661235497667
0,0671738094334103
0,0684205315456483
0,0684304666049627
0,0675973901672826
0,0697518441757522
0,0664132231876256
0,0691907122188967
0,0670574460235997
0,0673899634607719
0,0701081747046002
0,0697715385352457
0,070205818695601
0,0696641566467442
0,0722731328354954
0,0739571582798744
0,0723683884509532
0,0743779432189575
0,0745545461321776
0,0767923802510334
0,078489818724487
0,0803178564393211
0,0796649758305625
0,0838225941516455
0,0808904346151331
0,0841911501459545
0,0807804939079254
0,0856908898295072
0,0773044474893071
0,084869360337618
0,0829763120946539
0,0890532562951262
0,090650801309379
0,09086101516116
0,084621484093436
0,0941489678053851
0,0866280665612229
0,0920162933513114
0,0808483677680755
0,0897333223730815
0,089244733728189
0,0900278590167431
0,0859448122936426
0,0858898460701891
0,0829310554540304
0,0876489170515826
0,0828907232582511
0,0906112835747435
0,0779540642074331
0,0833892523920348
0,075048204341798
0,0901960163826079
0,0752876434910865
0,0908400139572562
0,0808738183688256
0,0891111740769938
0,0805966974349312
0,0974824658547155
0,0837386763116545
0,0992667557160166
0,0784378728466021
0,0970241072537648
0,0810171236331601
0,0950447400931526
0,0785829753141661
0,0938048885915666
0,077750336899254
0,0970139774387031
0,0794952229593506
0,0985663310619722
0,0802324759027359
0,0918973579686051
0,0801061769190364
0,0920603265350332
0,0871648418885734
0,0869793085317664
0,0842549723980743
0,0827425025426432
0,0939706391827012
0,0802853768435629
0,094442317006629
0,0719237235468183
0,104545161817213
0,0679899794316382
0,103094802981947
0,06556927384525
0,107030837689621
0,0653158661604682
0,101043758963516
0,0705216343258242
0,0983950818035043
0,0772082894644259
0,0902434986005627
0,0796161167774567
0,0839284765328281
0,0827113829616367
0,0835430094325169
0,0832351199744658
0,0858826447269147
0,0808208325004808
0,087184111948941
0,0794456108263092
0,0867641483390192
0,0791565876469397
0,0850187331382609
0,0784121897969151
0,0859827150192956
0,0804598472356214
0,0861428672977325
0,0807033548948249
0,0851153778862799
0,0800535643081994
0,0836638850769669
0,0812134122443535
0,0853449324423492
0,0789295446137963
0,0883464774870948
0,0843505643292345
0,0832824530215604
0,0827180707599223
0,0872102810971968
0,0804434160603494
0,0853084394115582
0,0810072091003635
0,0853610902002057
0,0830959687456928
0,0872892153772749
0,0839998469770317
0,0877396281043116
0,0826124056554788
0,0872095389921714
0,0864989431090613
0,088430342105015
0,083611879574127
0,0887871948546559
0,0857817143703155
0,0898381500222404
0,085426134707651
0,0898607646795564
0,0856416964051981
0,0879306047177085
0,0855954379717525
0,0872136077176454
0,0866361329208734
0,0914710511855213
0,087773971300859
0,0921849236886327
0,0861801335739084
0,0909099189005178
0,08749253612391
0,0911063536926151
0,0878972860169097
0,0928460004318739
0,0881657695533217
0,0921226446248049
0,0895113683190542
0,0920557059210496
0,0886051288156416
0,091503619554346
0,090455657633065
0,0916647346756571
0,0883959244025996
0,0919559761146246
0,0910619342352457
0,0935386203525518
0,0911725930911694
0,0933577684251546
0,0931569927964069
0,0938873737338915
0,0920380126496739
0,0960650077034622
0,0915890892054926
0,0945043259503327
0,092597795665358
0,0960642076713796
0,0928544324462338
0,0962996533635868
0,0937421713654858
0,0952438885181588
0,0941600831214001
0,0981121200225899
0,0945760890984881
0,0997267262509512
0,0955103926537464
0,0970495145329765
0,0953807956416065
0,0965005602334652
0,0951600136939528
0,0969147750841774
0,0969459276798377
0,098032755174962
0,0948612551076606
0,0983581007760859
0,0986814564139313
0,101071555273465
0,0977175635767863
0,0981673385720421
0,0978342293365943
0,100714270689164
0,0985373080260542
0,101186759978359
0,0982005028500965
0,100054574946917
0,0999537409082734
0,101413714642683
0,0980729706072661
0,100791080800402
0,101918915959807
0,103312040912242
0,101355143767247
0,102001591194882
0,101203666644671
0,104572449661601
0,101367758939158
0,103028135002286
0,101331634168694
0,104369431719647
0,104774064396029
0,103648216284231
0,103643359029536
0,106321313295773
0,103743389939701
0,106275496519843
0,104229234916655
0,105555337809476
0,104463445442189
0,106136684824185
0,10427918307107
0,106007992590865
0,102474991444881
0,104828880384025
0,105386835462813
0,106364756297583
0,105814109444442
0,107930653611687
0,105470163350261
0,107175682125819
0,107950401114175
0,107614076731031
0,10525105393322
0,108545352066204
0,107705549475455
0,10866681374146
0,105524964051923
0,107800336054344
0,110369245967105
0,110838070866446
0,108953199827969
0,109873608011551
0,107342478448167
0,110258219785051
0,109124212863435
0,108280066287148
0,109220603710916
0,112154706858097
0,107620716830138
0,109584155621169
0,110060275936739
0,10996013280224
0,107926312306037
0,111300032509028
0,111987323484482
0,112623315889843
0,110561523546339
0,109546876091375
0,111810760119665
0,113341080514017
0,109530464586149
0,111509425698778
0,11165541205786
0,113102873835565
0,110652986354994
0,111982637893253
0,111996488598711
0,112250636460562
0,112562153658002
0,11319275093704
0,111817767127317
0,114280027114964
0,111850617760119
0,112450811969923
0,111876399137135
0,111447327820084
0,11172170269168
0,113075514037839
0,11236756505887
0,113834928240616
0,111289505344829
0,112974415961797
0,110899634678431
0,113397756760936
0,111362163952885
0,11341372821215
0,11172299603257
0,113308414091965
0,111397079919902
0,113378327604361
0,114694450243522
0,113756091024569
0,111445576555479
0,113284093971685
0,114647233235211
0,11340381409859
0,111548659510922
0,11333243510815
0,112957318255839
0,114128322717915
0,114539079765075
0,114063744869808
0,110861229050981
0,110494969989931
0,113143325093688
0,113098376315987
0,110113196916119
0,113764763832856
0,113744717511754
0,114865796659331
0,112640183495741
0,112232437500007
0,112104883412448
0,114124042781041
0,112961502761535
0,11269345977472
0,111256679905729
0,111834107527031
0,112690974723089
0,112673245658535
0,110095829252395
0,112712432305224
0,110696697596956
0,111457214627784
0,109068137801231
0,111452877683389
0,110855681702033
0,111615846802318
0,109077646521869
0,108768741300699
0,111214684008329
0,112986572870854
0,110775530722433
0,110726524206388
0,109801828350091
0,109583336849179
0,107948175045509
0,111829204736833
0,11170768831907
0,107386046945786
0,110303230849442
0,112187204636345
0,108753823272311
0,109524314404719
0,107897262510461
0,109929899610689
0,109182744885077
0,108313893459413
0,105677916825361
0,107354880568314
0,107278362114448
0,107528125929704
0,107448564340897
0,107742113493601
0,105313887500725
0,108185579006948
0,10856486431293
0,107399508620556
0,105145428153018
0,107529214266039
0,10626304504244
0,106457006023752
0,10618636037814
0,10520837070671
0,103436630757688
0,105010654824691
0,103878755413448
0,104665232217832
0,106242624957089
0,104764137817748
0,102684553606691
0,103965661515542
0,103435127361699
0,104069875224087
0,102010034364485
0,102489710007066
0,101837389532701
0,102741430158133
0,100738757228098
0,103106773641026
0,101835337880751
0,103538520716177
0,100300357069391
0,100117152102366
0,101248183599066
0,102070361465186
0,099269408213378
0,100504831639733
0,0987912740685443
0,0986441161088897
0,0987056850353604
0,0992090001530187
0,100051457257353
0,100034371286047
0,0974773091785357
0,0989364521154976
0,0964254268055374
0,0985098379922201
0,0987952862255769
0,0964094092151138
0,096966823606738
0,0962341612899897
0,0967784686613133
0,095170279446195
0,0959471608642317
0,0983624589937662
0,096301519715111
0,0949530220147329
0,0947574679726749
0,0900582289262018
0,0909421006578385
0,0962077720747169
0,0951457731223537
0,0922093963898423
0,09334189853081
0,0952775649155599
0,0921667824116191
0,0952909494164242
0,0948181059818482
0,0879513114319316
0,0912537521804934
0,091454668924011
0,0924492282290294
0,0912894195380017
0,0926052139869382
0,0920419095664515
0,0943816463719003
0,0915207805489271
0,0881458464061819
0,0888232519958307
0,091087337827387
0,0904712676166445
0,0877063060996821
0,0911850108975473
0,0870471918313371
0,0894651009946146
0,0887420486346241
0,0864799468513378
0,0858909450141852
0,0884522890212739
0,0873326926869265
0,0872054065828083
0,0882675819921167
0,0871610446207759
0,0848663262780614
0,0872505731634882
0,0872897585890363
0,0862826464730242
0,084105234804677
0,0842353803331921
0,0830779829525039
0,085891941101705
0,0867919061110526
0,0875616361485404
0,0834362858460975
0,0831039157760864
0,0827672423404532
0,0842571837414773
0,0815623230513415
0,0837082225932764
0,082927231165419
0,0831763859835817
0,0803539904821551
0,0833201498377309
0,0839481707378155
0,0818871699708559
0,079924005080553
0,0824609003786381
0,0802711362016443
0,0816014144192532
0,0770145549790836
0,0789976235055264
0,0788606042332081
0,0814839160814145
0,0788616207478532
0,0841237044926848
0,0759871084422102
0,0808758510385225
0,0792952146567045
0,0810095855630123
0,0809143966730979
0,0790699540063224
0,08082840556296
0,0789213355988945
0,0806907005272569
0,0770574623663921
0,080408320915351
0,0778405407303632
0,0763927598668243
0,0777887729309398
0,0774080234155966
0,0752223277268334
0,0781599227702759
0,077181130909183
0,0749890858785593
0,0767924019583483
0,0807884529663855
0,078047614621687
0,0755524382539426
0,0762572550255044
0,0769593004718132
0,0773116138742506
0,0770449334741903
0,0735680998371638
0,0796436649248188
0,0738258926532681
0,0810940142121275
0,0713319017790424
0,0770842238160398
0,0714181708912461
0,0760170625889863
0,0732438778583779
0,0762008034113493
0,075265041573943
0,0754977243202289
0,0769758053179834
0,0707803041411211
0,0728910491776556
0,0737037317244881
0,0745820962057425
0,0749183429234632
0,073937607818183
0,0733604641663317
0,0734720865467138
0,0721651953769414
0,0725216567715545
0,0744957445816525
0,0737881693249121
0,074673021313798
0,0739541861279787
0,0723717306719102
0,0726204658089144
0,0729853844951491
0,0689557659129511
0,0734443010315317
0,0763016668847408
0,0705284210220539
0,0754932865258049
0,0687478870973585
0,07254859390851
0,0716980670299049
0,0732568538420281
0,0692066272191762
0,0725768719142217
0,0702689284553963
0,0749824319278447
0,0724727178032997
0,0725694596055393
0,0678621110078049
0,0719244462725366
0,0711674615935944
0,0722117341576365
0,0703290106431659
0,0712800137537044
0,0725252045459156
0,0709186226123865
0,0755032543499986
0,072407380275577
0,0767012231593115
0,0729796328967139
0,0710135818388591
0,0719548362061961
0,0705445222112729
0,0739019450739893
0,0693937051541731
0,072217625154068
0,0716387635140101
0,0718895139115586
0,0706419105622366
0,0725823689019137
0,0717442460487748
0,0726252160710349
0,0694079668028976
0,0734544630604155
0,0711542980560391
0,0736711989011025
0,0679888807135971
0,0751946166483486
0,0699103067083946
0,0764388631213787
0,0654268158162388
0,07489478390985
0,064816484102081
0,0819174365730949
0,0693211741231893
0,0762970330732784
0,0723532100178609
0,0714866109729134
0,0723828665295786
0,069951948538119
0,0728268067624155
0,0729107976390733
0,0726712294581059
0,0732090227603894
0,0715092588641078
0,073654861187034
0,0732944449698083
0,0707314122068223
0,0732046433092806
0,0803626661968754
0,0785081023987888
0,0801061990224069
0,0728111072416261
0,0735405728455089
0,0787879600271272
0,075470377569098
0,0758219482216749
0,0715485370029672
0,0760995669056489
0,0737127730153915
0,0759854889737195
0,0732318580381679
0,0754878678198794
0,0761912954871191
0,0762406013841692
0,0761345162189419
0,0732012888423931
0,0767398378043625
0,0770807009082799
0,0782906712544526
0,0771889814563763
0,073113031455159
0,0781676159558001
0,0783276056058737
0,0791531424334273
0,0753752187648746
0,0787104791522012
0,0782188233047712
0,0798996547164363
0,0790389668584369
0,0784274357512416
0,0845491666309209
0,0804917096424701
0,0787948687531848
0,0819365742766857
0,0800303444309354
0,0873540944311576
0,0768290323579219
0,0828384662164279
0,0836315252336867
0,0805023149865141
0,091789280929058
0,076698017554214
0,0893194717457007
0,0795661424611238
0,0880140329403613
0,0766750143234075
0,0910410152780614
0,0811605969538934
0,0928700112633491
0,0811110977433504
0,0928045918118501
0,0844817155919165
0,091525070343923
0,0871502257193568
0,0918272243154627
0,0866327703097797
0,0922031277258751
0,0897787104857782
0,0887032637379117
0,094855923736683
0,093690567531347
0,093102897518903
0,0932930156866919
0,0933678046473767
0,10246905265749
0,0876091444913824
0,102578604088992
0,0922182275111274
0,0986698215008026
0,095541836634085
0,100221074473154
0,107775515944272
0,0995006707334381
0,100825604467338
0,101478840413748
0,100883152886648
0,111953374021699
0,104785715412018
0,111517931375882
0,104563514066527
0,113478957948661
0,105029461402919
0,121202224036179
0,110773136633278
0,12329881833301
0,120944530939585
0,118883889105011
0,123180267548681
0,11920176597029
0,118795954303914
0,121948710870734
0,129730739026968
0,122566821596857
0,126055840348485
0,126123582413038
0,133447580870513
0,12321073336408
0,139083467443192
0,126045035700823
0,136931755759433
0,138381007244376
0,14566781934005
0,143307211098995
0,147449434971606
0,140520776960708
0,14967768566293
0,143749962743343
0,150490021654306
0,146033809511717
0,147554040783166
0,150648382353119
0,15337351132121
0,158106687089817
0,159270349604718
0,162664998600077
0,165226396263838
0,166421019527376
0,172875248380681
0,178131384165451
0,19147803936795
0,172092790705057
0,192107890429995
0,172503747042947
0,190426817206064
0,188968561489597
0,196874740828669
0,194815316663099
0,195876028497432
0,201884774978152
0,201059016293348
0,214967621766127
0,214474454047434
0,217338515873382
0,232372615043301
0,221101370805189
0,236771829720649
0,224215947696385
0,273453592977585
0,214670238768299
0,268836826210812
0,24317974781885
0,260297010225359
0,269281816366437
0,275176898620916
0,271257432647865
0,274851640617653
0,283077315502174
0,287245980182805
0,285650975691566
0,301184529714872
0,305416824224278
0,311956857892362
0,3115743129424
0,324076562385423
0,333602845568331
0,369829018932532
0,348163398046391
0,338171898229311
0,347920307305226
0,362440729883373
0,361743437185212
0,374376067094834
0,375862001520121
0,378935671283608
0,400268137464854
0,404328495863278
0,406928971836253
0,4012397933827
0,426938077728255
0,408248562433831
0,437643180576747
0,43092804030754
0,44850073320617
0,445261735852066
0,449427997710916
0,468456146377751
0,459351835806211
0,476061761849768
0,472284675668184
0,495107062237887
0,488659308278149
0,500265227936819
0,498015112680478
0,509761403327196
0,511511666042938
0,520280420733565
0,528157923725021
0,541235873638853
0,610581593804572
0,636644588824255
0,554452836473566
0,5543877437362
0,550743041726575
0,57238026999938
0,569866968472159
0,591848981417434
0,597610071372163
0,590611482152191
0,590982906948037
0,587165776747403
0,604344281510907
0,586871842165744
0,606362786872452
0,604958756697065
0,589018540304081
0,616758801512254
0,598990420412102
0,620400131488613
0,644794009922134
0,611229403283325
0,600064517908262
0,610567682333446
0,595843506516938
0,59977764891874
0,586826860950915
0,603023567628457
0,587718535953083
0,590301779593784
0,585867320199308
0,576408590902475
0,573771035848521
0,574247951125888
0,559746232636607
0,559560394496085
0,547915789655673
0,542169456280779
0,532738740791756
0,555691164194852
0,523696316582528
0,520719470739563
0,500938741311342
0,514709591322705
0,496010540464833
0,492337765770409
0,474368606887651
0,477535995888903
0,463542606852149
0,464821846629426
0,4516812260324
0,445940500259407
0,428861603533123
0,440543021251449
0,425979203297739
0,419928036965925
0,416705459164279
0,409294540952713
0,400397776932492
0,397728775940408
0,38911304684593
0,387668941799966
0,38204315927959
0,380603138099072
0,374505423755096
0,372790027957243
0,363110045360678
0,358447792965243
0,354412790310751
0,351240297946051
0,342788777578775
0,344044050884827
0,339656653296292
0,331599366999812
0,33385192557406
0,326232829322176
0,319331760610216
0,321152699031434
0,322496084492694
0,317563136030896
0,313004993029566
0,306609898207798
0,312131208065134
0,319016975337062
0,301074615646761
0,304565485161639
0,292017767332044
0,307294903071875
0,288958653641418
0,300506101660417
0,294272964266943
0,295510766413198
0,288186003973773
0,285190827881072
0,278518896938441
0,289223335386782
0,278393777274912
0,280731616272646
0,268262791492727
0,281738572897815
0,285515298135884
0,288085385283305
0,314476180952664
0,274711022351625
0,271031255358813
0,260463407414419
0,28645658514989
0,257157156796769
0,270923927993207
0,253233106787929
0,263272067351658
0,260642590344572
0,257783346212419
0,260126850371564
0,250536335575332
0,254785820108113
0,262716976643692
0,261669529731899
0,253321990547492
0,260092900888233
0,248402011981504
0,250330769290605
0,252280817100725
0,266777140008767
0,240255968059313
0,24344979843252
0,24449336431928
0,238772770590729
0,250206911582903
0,236896728483744
0,241433637612691
0,23663903255948
0,228991562171312
0,236238441275293
0,226138523906455
0,24246778278459
0,224311470815657
0,248911112809634
0,215876811700354
0,232195485148941
0,228733919995923
0,238344718503078
0,237134192442126
0,236708683413315
0,22231069009282
0,222287873475388
0,235045095045792
0,229510215747112
0,234342775693253
0,220435758333365
0,216040641997392
0,225771588115103
0,21304075265863
0,219349715404408
0,22015394827678
0,217321698689724
0,231430474638597
0,216296014628147
0,232694188610398
0,218052920447432
0,207210432045078
0,211852991951447
0,206478937116409
0,213287407310774
0,204939766607824
0,204360037314133
0,223086185052669
0,200232964683872
0,219292309919745
0,202044447716126
0,206896479087771
0,205290218593791
0,206583527964864
0,205651803613508
0,206188092226886
0,210786570303859
0,213514884972073
0,199707895740581
0,218811068053915
0,203075624180135
0,205906793739089
0,196824600749808
0,20698648039511
0,19744023435633
0,205304863065689
0,204322083345219
0,203227215888205
0,202312315895725
0,205001010172859
0,197054182455645
0,217813890428065
0,197802057762301
0,211078532206277
0,205269715311056
0,213854148824067
0,217248580188801
0,206914509931373
0,209091330566226
0,204234602600065
0,20579096318155
0,205243692558198
0,204862466081089
0,218127454452127
0,208104300873453
0,208874375551109
0,207184464428824
0,21174798949626
0,204859094352912
0,212898520424397
0,210333921974064
0,215176545285781
0,233471722778996
0,198703816723249
0,220846847548172
0,206964558128089
0,208892619489759
0,205316862858573
0,208534385795287
0,211168937868975
0,201803580780667
0,211418798487738
0,210047933418585
0,211317600164947
0,211444316135335
0,20580965379109
0,20835493906112
0,205176220480133
0,207479111683293
0,207301017628796
0,203686538336055
0,203197885195825
0,20134426897167
0,217876774905388
0,214972541233324
0,207891826155229
0,209509129059001
0,201478053630585
0,213242321164704
0,202506809836023
0,215501307125612
0,211100131257188
0,207108966734556
0,210482994366993
0,207009321951544
0,203618717187039
0,202997954177423
0,211272924903827
0,206025926134169
0,209415094397505
0,21360360498572
0,202364994610055
0,241148768715246
0,203740430541103
0,218998383285687
0,205347065751915
0,211215260780159
0,202446809885547
0,209979362631905
0,202367768800569
0,210908348860395
0,208106441432689
0,207661776674765
0,209354904011821
0,206293386441104
0,209892801926044
0,204502632272783
0,207150603663165
0,21182149092082
0,207317325762622
0,210278204178985
0,207425768253635
0,206654459554236
0,204501099027609
0,214817680753174
0,207204315507133
0,212650425118499
0,202415661469703
0,215475876732597
0,209326368333393
0,210795371904765
0,202750015042526
0,207102604465073
0,202541441154878
0,210584510635143
0,200025686616415
0,216837637564812
0,204721171946836
0,208628055812823
0,204444598102819
0,205619684600621
0,197494635926662
0,206162137390575
0,205457945293393
0,207580039768004
0,203880906432607
0,208553774894686
0,205832751397469
0,20784832182857
0,204158134267802
0,208041001170482
0,213157880947916
0,20759087105947
0,204719090885975
0,208310436252211
0,202883235040138
0,208469085587804
0,201330083509229
0,20197071978915
0,200464270651589
0,205643495858397
0,20050801750748
0,212974209411336
0,207823264251315
0,204378274769658
0,207291256022405
0,201795699043857
0,205937489152086
0,199893048193578
0,202572498048359
0,19717767993174
0,205311759094383
0,201826336368384
0,202171631585583
0,201705885582488
0,201326184182695
0,201157192596529
0,198132715778933
0,198415444484754
0,200407608241179
0,201501626978271
0,198509633593195
0,202142318260921
0,19699379534623
0,202922955808459
0,196915789028255
0,198072096834467
0,2037639624582
0,197902285977594
0,20475462270295
0,198471077921255
0,200613778175865
0,195612513625594
0,203283508527156
0,198405798535787
0,197594478111467
0,200007293293819
0,199482265490483
0,198214831599866
0,196040096536151
0,196231825899689
0,200577055617579
0,199909053320973
0,198240250647548
0,19861917484221
0,196271263655818
0,197347863473635
0,196467499117877
0,197722816680039
0,196483227163428
0,201988602668331
0,196508966165284
0,199620404555129
0,196176024327732
0,19691322031224
0,198011001772653
0,198696243429171
0,197655042644358
0,197484325736175
0,198916531172216
0,19642963772634
0,195691043989338
0,195936054181974
0,195858934930607
0,19633992609705
0,195524223506947
0,19542158884747
0,19745376382514
0,195502974930228
0,19632922625202
0,193984137267375
0,193390567065139
0,196049443330057
0,193173367350197
0,194223448048191
0,192395921935489
0,193446374956951
0,193575197385098
0,195181100649644
0,192159002646912
0,192610302940086
0,189971997527173
0,192032670295081
0,190803969096639
0,193076683374816
0,192397535392252
0,192108825812061
0,194204911252304
0,192352106634696
0,192331028581718
0,193590932001847
0,19097952849416
0,192707359169183
0,192387996654499
0,192874092849073
0,192971622708739
0,191847027271268
0,190813480171585
0,195218681786761
0,19186757983561
0,19288822818765
0,193794805945865
0,192360729533034
0,193128217989525
0,190923352007325
0,195521372181852
0,193652417717234
0,192978355604568
0,192062059844543
0,195322851187179
0,192495213743476
0,194401526162
0,19378586378444
0,194883905958578
0,193137928550801
0,194729192365381
0,194001857805611
0,194881346478045
0,194400820220912
0,19277082813535
0,191851828947245
0,195571465840678
0,195302524444895
0,1937906052743
0,192517715627791
0,193803858413878
0,190173529229511
0,192767172417903
0,195044639337655
0,193376236575423
0,194687524110706
0,191644523998806
0,194573891617788
0,19224075929709
0,192210615192161
0,191449813623401
0,191554573126604
0,191897079824034
0,193187007280758
0,189894335470967
0,19179500210786
0,190431280375585
0,191289763053168
0,191440432433669
0,19114209477268
0,191120978864014
0,191268613281038
0,190314575084489
0,192074678263842
0,190262093487015
0,191514280746922
0,191652125418757
0,187825764179166
0,187756720895137
0,190497402718616
0,188928079681246
0,188881470737814
0,18971455994465
0,188198365210514
0,189336085746281
0,189226532490626
0,187663185185062
0,187214192351256
0,187324337757254
0,188171484518051
0,18805234188983
0,186100246630813
0,187486762127805
0,187104527798299
0,185997576800409
0,18609754632998
0,18550087767728
0,185354312742956
0,186460520348581
0,185844947123547
0,186250672690912
0,185692054675085
0,183511919772253
0,184660486949308
0,184227491242055
0,186101845968658
0,181784875032356
0,182798471578441
0,186074288374965
0,182220946060393
0,186288063142669
0,184630299128359
0,182634663242631
0,185219705138115
0,183456402974504
0,18300160298767
0,18252715445027
0,183751164255592
0,181966574226431
0,182277985352078
0,183198597705734
0,183492624124238
0,182997100677739
0,186709614284633
0,184456400470748
0,185881225742601
0,186065101325959
0,188165796820722
0,189088855864967
0,18855977112132
0,190422973921297
0,1912934420344
0,193719367293003
0,193336026089033
0,194632971600487
0,197041080375152
0,198866197235279
0,199935127674834
0,2009345062541
0,202959521286491
0,202672780048079
0,205957608340034
0,2063788602693
0,208214258272495
0,208978863937909
0,210217063985741
0,212512794031647
0,210860057920406
0,212981962571673
0,213907135642785
0,212370443920099
0,212673163978758
0,214675548212024
0,213833371996361
0,215034435826959
0,215043385866157
0,211033370547216
0,212877164838117
0,212057112548825
0,211675150112232
0,21313977051739
0,211169931479624
0,211696199517545
0,211249569177523
0,209729900312602
0,211341456296261
0,21041366417082
0,210975740724268
0,210111301541503
0,211889058929396
0,21020858479534
0,213579569253915
0,212932625190222
0,214736524397652
0,213463598717587
0,213126107539476
0,214514055792769
0,216237462644004
0,215773242454769
0,216595691714684
0,217259293823357
0,221010504970192
0,221028399437994
0,220923978545919
0,224467912199796
0,226251234837839
0,225756202176927
0,228643447288372
0,228688230884285
0,227725723591802
0,228991798320976
0,232373473601245
0,225626989391403
0,23062624279769
0,22894272360957
0,228936393072387
0,228662392978386
0,228281221342684
0,226882089832936
0,228126551135622
0,226337799630451
0,225999602969969
0,225633201605335
0,229476992387002
0,227349575838779
0,229204440629854
0,228072180956579
0,230757862011441
0,231893053803956
0,233229898134373
0,23644147859292
0,238515061112586
0,236690149691223
0,239453352409291
0,243677211637244
0,243289464363532
0,245043009383051
0,24427142068049
0,247631431087116
0,250354375558861
0,251025466145914
0,250297551838774
0,252847451773514
0,256056577152046
0,254896837439418
0,25858605671655
0,260716574276672
0,264402400944573
0,265892339096999
0,266427406455594
0,269177125378779
0,2736216582356
0,273347608014539
0,273491762520867
0,275892978744484
0,277373205061281
0,277738111797986
0,278415252848076
0,27850131158679
0,280553797934491
0,281636605669989
0,281123812624738
0,276924350359711
0,276894498373886
0,27559733449737
0,273653030715039
0,272205020399001
0,271034956110514
0,267258107121563
0,268487897073141
0,267658776890135
0,264706608782344
0,264567837205781
0,264482660988942
0,26483898141718
0,266825222520158
0,267382546275772
0,264310859584084
0,265972357106211
0,26820044019339
0,267556960786965
0,269888276438647
0,270303321938782
0,270312781743295
0,272668803645499
0,27235560546625
0,273498060661284
0,275372507766392
0,275121406802002
0,275538874556723
0,274967299846431
0,277085991507159
0,278661687972388
0,280063087884031
0,276513705769125
0,277910983073262
0,274607835629857
0,276395363086198
0,277362421838208
0,277140412011144
0,276390570363348
0,274997489840801
0,27363978445985
0,275106855128732
0,274301540838839
0,273864653447231
0,273644862667457
0,273267658836837
0,271286228121841
0,268646415738361
0,271080347733679
0,267975973681932
0,265774904517168
0,266665119657111
0,267660742317049
0,268438518806729
0,261766187430973
0,262338576621135
0,26498545956219
0,259202578717436
0,256449483666071
0,254649616313267
0,251413924810369
0,248111708853783
0,244831977129584
0,241982229694426
0,240216980462846
0,2387305710028
0,237274269619286
0,235974390590583
0,232287879812779
0,231833827250806
0,229157189554782
0,229834050776803
0,230183513722231
0,230210960528738
0,232948596610868
0,230150124272763
0,233134533935579
0,233985714796748
0,233996995710762
0,234562917713643
0,234507911669146
0,236509062907361
0,235193727010986
0,233626498090612
0,233078457833103
0,233159368863332
0,233890142698778
0,232870580806908
0,228193369760135
0,233707540067194
0,232771703783113
0,232570305624452
0,229229200718626
0,228165100006681
0,230329695319967
0,227508306673872
0,227351612338398
0,228332363298259
0,227475071730515
0,231588842708278
0,22832161235582
0,224652909704061
0,226513253178533
0,228878846250893
0,225796484134731
0,228418908039711
0,225901726041103
0,223497556341829
0,225236357099645
0,227047554324783
0,225394580353491
0,228647177600455
0,228125106884724
0,226234374637135
0,228212402550508
0,230099723043028
0,22838457941949
0,229364470590864
0,233093767923073
0,230653229331654
0,231089457906934
0,23443294951824
0,238199724323835
0,237122730523441
0,237169258454461
0,239638303264814
0,239195045724926
0,238559756753098
0,238558098695905
0,242554767303636
0,242117175377664
0,241018367574806
0,246947456154672
0,246021444618479
0,2474668353188
0,251396532232913
0,247545424023477
0,24817720091825
0,252657873242697
0,253483569900879
0,252297664828932
0,255012563644205
0,25622492467186
0,258539843394986
0,259742556045719
0,261090317019837
0,26311427238272
0,266444127379315
0,270142177851086
0,265895960665228
0,267312258784593
0,272272010551168
0,271361178267494
0,271986267827562
0,272107807071241
0,277992300772851
0,281067996747234
0,277391617755738
0,28121245088482
0,280933717219503
0,284390174835762
0,290999185182329
0,286791920262702
0,288709782137015
0,292483277798683
0,296502070534372
0,296258304207402
0,297810198157013
0,299991783186301
0,301059991063413
0,304568735653781
0,306473934035553
0,3103779244991
0,30772761044416
0,310665093657946
0,312994297803144
0,313131277669561
0,31571020335493
0,317242495681434
0,316517935316907
0,324145714866676
0,328979004168076
0,330978829398364
0,328421623805879
0,33127615837537
0,337866414765765
0,343126390676114
0,341057393691645
0,34935712580831
0,348376046487258
0,343161535611704
0,35018131192957
0,353025189979307
0,350198212963893
0,355531933242176
0,362908073223688
0,368275033497588
0,366240914529603
0,366782114719051
0,37227874973804
0,377364619388731
0,380606010001484
0,379841004606704
0,37929809703746
0,376176300467816
0,379209120761179
0,38706566785149
0,388543480864007
0,391876831632502
0,396260928199886
0,399341402504013
0,396406572756777
0,397872846184176
0,39944043902367
0,40339630331245
0,40748697882764
0,420095260286431
0,420600007531866
0,415452429936863
0,417685274935819
0,428551368736113
0,429278271015249
0,424205414066009
0,433743528040211
0,438250405343502
0,428200797387545
0,442004920893307
0,439174235295815
0,448964672962095
0,456427830724505
0,466011992988531
0,452323326669844
0,464454088686714
0,474828752818651
0,465884880988555
0,471831359497904
0,477782551680056
0,477398556880942
0,469076091525044
0,485896210594157
0,489271120913785
0,491455518737171
0,501680099187975
0,49257959792621
0,497820529268342
0,49337114741893
0,496340617786352
0,487046194073504
0,498787613453375
0,512604738114728
0,513580791425232
0,509294259794712
0,518393359796759
0,52007144167097
0,52257958011106
0,532244429810344
0,546284338177694
0,535821740567941
0,536944630456536
0,542215332324503
0,555508214884275
0,555850098832983
0,541067625931594
0,544132995418013
0,554056551829841
0,566629234435843
0,57351759717824
0,558728349020438
0,574915839698175
0,571460176382116
0,572700952652051
0,578071994130812
0,601968973247294
0,601244451539865
0,589097994943614
0,593827337420872
0,616377270393042
0,610011986872615
0,602817802493811
0,594471732011813
0,600235566241938
0,624894520600353
0,619067683132665
0,634173970730517
0,659086014074777
0,631493752568877
0,636153631449793
0,639123746761177
0,627896103017321
0,644626342277513
0,666664324865746
0,647792840534225
0,657779171035773
0,653395761151626
0,673649028686252
0,676904341722356
0,669510607890662
0,666907037381628
0,663655202413485
0,68289841950682
0,699085236502556
0,689962278367956
0,689942693648899
0,685855489660714
0,724898198373508
0,723600393065738
0,720604351758814
0,714636439605672
0,750817612195057
0,718304718113224
0,716269183956451
0,703216865305701
0,712488019147531
0,751557575086654
0,765495507073247
0,738697761565858
0,755068578860204
0,781518735513809
0,763133063004785
0,735655825492155
0,768292267466123
0,754759440887473
0,752358153749702
0,823542863089396
0,783233005706403
0,785373477703774
0,827693417670974
0,789711086301699
0,790155349586844
0,792895939970543
0,818823916674359
0,767680166210884
0,815108197050647
0,796404109655776
0,766195285433145
0,815174385201824
0,798226572104843
0,810041127430697
0,901833861254225
0,867966800093468
0,81839432990176
0,876684790047381
0,863349204614356
0,87752736017145
0,874856554172819
0,878645893107758
0,867565561565559
0,842061611731055
0,908576182708032
0,872042136113496
0,80630570332982
0,864879084498342
0,91301675388518
0,898972413254409
0,948195713695191
0,894800366114461
0,855417643416029
0,927311046241082
0,953788705393015
0,91301270965812
1,0580684248485
0,894664640650014
0,89746558319527
1,04938098279421
0,964783580903374
0,995101527891392
0,914799216479659
0,873824171258436
0,977692018132439
1,01036061473354
1,0418047733285
0,968172537154684
0,949423469065288
0,900205197179215
0,81074437234127
0,955104052658547
1,05231951834558
0,930672274113184
0,962554207046728
0,977234315758328
1,00311314725056
1,08412830333912
1,03825253175551
0,940014827664911
0,88003919356145
1,02813636176877
1,19424254557459
0,95069694883784
0,962995496845896
1,00223048672767
1,07766180868053
0,960467195831331
1,01265034784574
1,1765679395307
1,19804239264003
1,32239009342634
1,09735950944561
1,03899554719807
1,10539755966867
1,20252692719637
0,986246413686256
0,985230820945491
1,10844978718284
0,952018545744985
1,02302462458446
1,01102622447015
1,18761307692016
1,60166276984971
1,15224059384345
1,07507347695412
1,1153036608458
1,33461496032589
1,73596775935468
1,50397757240675
1,99548094520732
1,32120089664276
1,02576694108411
1,31874620730176
1,44077915926804
1,33324732298346
1,29229236506847
1,26651240807887
1,18645326557199
1,04399651116084
1,18924366427387
1,05854190739654
1,18110516115727
1,98403772259987
1,18141555172043
1,7419484689368
5
1,5782478466659
5
1,18555961049327
1,31170002735604
5
0,9272571889247
2,01950179348743
1,07336535068192
1,03260689806879
5
2,81067022881579
1,58111301053136
0,838187481662207
0,98592652285657
1,99759429181549
5
0,973115126072291
0,874730136626142
0,812103307745952
5
5
