3596
4000,36533379555
650,420452594757
1
2
2
0,0174579190023366
0,0311764970622817
0,0264552700456581
0,026686944160753
0,0226247889263263
0,0341908976759309
0,0240320598409624
0,0343365210402414
0,0210266767413431
0,0349990733914388
0,0221241268894041
0,0300895789339175
0,0221359103779061
0,0334626013063891
0,0148535997932323
0,0279872367103545
0,0177387506286784
0,0284293052982475
0,0208706296190998
0,0284638504741592
0,016802880052433
0,0360850738371877
0,022995454980841
0,0360623494944402
0,0188682149965382
0,0267435066137762
0,0254736331699042
0,0302722224023497
0,0173409484662178
0,0364294118334716
0,0284717925636745
0,0391957983276392
0,0337424977878053
0,039296992704032
0,031360940205212
0,0365971914355722
0,0193373324035518
0,0402946749634817
0,0253811491076324
0,0383282695487197
0,0279677903753642
0,0339109391772816
0,0304274834169883
0,0331179751786759
0,0247387974865045
0,0263744414216469
0,0276323760466634
0,0296264737463953
0,023491730993333
0,028051531067667
0,0229343005858659
0,0287618536773071
0,0368287839144488
0,0305784967555578
0,0180642471713528
0,037796122908628
0,0231069383598157
0,0264725275630305
0,0243097043486489
0,0337076325252193
0,027383200278897
0,0315656625853033
0,026991373036787
0,0384783183574443
0,0257196429387218
0,0358781989963503
0,0196156497322813
0,0418743800896641
0,0190418679466074
0,0403393785248479
0,0323741108692728
0,0505189633716987
0,0228343025912866
0,0427576130885855
0,0302429088376855
0,0337960587379823
0,0136028608405528
0,0361689241744341
0,0153431406497657
0,0494341472206002
0,0135375818861025
0,0321947477611694
0,0285925707083763
0,0369634692862643
0,0266240579092572
0,0358196260995914
0,0151955473978393
0,0470625385681117
0,0232375505102236
0,0284567281144455
0,016896837706871
0,0294584284410592
0,0159106786764305
0,0315329802992509
0,0150516282035359
0,0384118091136347
0,0182667705375561
0,037357682742841
0,0150350612968235
0,0492362297156512
0,0311439616425929
0,0417345305455099
0,0360447888243876
0,0152066000498116
0,057394879135191
0,0227322967162727
0,0429100992138559
0,0406454125322852
0,016025091541445
0,0353065003829362
0,00851298635221116
0,0437503285730154
0,0177722342598401
0,0516064359995122
0,00656325921444178
0,0584535927705786
0,0267668289725261
0,0431500811344144
0,0141508306420792
0,036262765074443
0,0116139878304269
0,059739860615185
0,0268279460017574
0,0302557379353698
0,0306883005263247
0,0355684788143607
0,021131897400417
0,0453136413954547
0,0147525496174625
0,0273544523074746
0,0302363688703709
0,0371403026917747
0,0259961761884141
0,026295521308444
0,0274417426984717
0,0276814018037586
0,0357356255948832
0,0340177835611617
0,0365548889271858
0,0439170151168959
0,0171453590082223
0,0345723617962082
0,0238249270346157
0,0423873397188913
0,0276594752875509
0,0332373816942002
0,025631560022976
0,036542179780453
0,0246563182941592
0,0354754591957431
0,0262501591788791
0,0293124280610914
0,0176448603044693
0,040481266484115
0,0170162287333726
0,0895871484078463
0,0194286869034181
0,0341831738699405
0,0546290917881094
0,0106750442272986
0,0392333550775373
0,0302210347344886
0,0316308494201026
0,0245981164344753
0,0311558501823113
0,029787450071079
0,0259623969995283
0,0373444581945287
0,0280279725419193
0,0439783743177116
0,0262668703105539
0,0311267916381367
0,018896529340627
0,051950938609623
0,00918413644140498
0,039751229941334
0,0274469948512465
0,0338835363030438
0,021678101561121
0,038173228816089
0,034618419090321
0,0239201469285331
0,0319602552256907
0,026470346771839
0,0350508070387272
0,0382706508676033
0,0236367659372656
0,0428975005580794
0,0335280149395029
0,0328584508443624
0,0407273523498337
0,0420958181785276
0,0229787202053105
0,0276283726610808
0,0383792375131509
0,0297795292894667
0,0509930682162272
0,0226165773469042
0,0265118476558901
0,0298741952198221
0,0241219312638871
0,0341051206329483
0,025329704370354
0,0389363808209658
0,0353175272123451
0,0298521098407631
0,0436386054243557
0,0246454537083442
0,0212083830291875
0,0313963432543851
0,0349518783904766
0,0310428247554912
0,0381266310205189
0,0321407395971746
0,0215140401964561
0,0373027225750596
0,0259007620949865
0,035049268674717
0,0293255983216954
0,0297345562495924
0,0219842409359845
0,0367871550181284
0,0264721448284629
0,033486792561038
0,0321285608410848
0,0354865675129952
0,0291657385034779
0,0393603123175231
0,0365375973203658
0,0413685420493898
0,0344637387258388
0,0409646180332434
0,0332220416381146
0,0367394375160379
0,0230593546426478
0,0425804662909495
0,0361089233903368
0,0355835576526978
0,0376146824732818
0,0326480610440588
0,0303482464784531
0,0358186624301722
0,0382472170645137
0,0371819844629187
0,0457482016757853
0,0382474110951164
0,0624576800135244
0,0242253390809312
0,0472829489934989
0,0321231706662206
0,0477086721956344
0,0354696591500142
0,0408594269747557
0,032598162116543
0,0269240326764366
0,035283413631767
0,0348579974824493
0,050141093944856
0,0301083872139354
0,0443511511325213
0,0417025624068328
0,0486849107507126
0,0346690887007012
0,0562607742334796
0,0171524324244571
0,0689764128610011
0,0316962146022799
0,0400980374256742
0,0488651131043156
0,0339782497995357
0,0433039053225933
0,0536879934017476
0,0445619492154572
0,107130173193427
0,024091171504286
0,0530750360764591
0,042372950969494
0,0570043972353803
0,0291875818992698
0,0540660484518284
0,0359629601496639
0,05235191424856
0,0477504136476452
0,0374369885113851
0,0800905552608906
0,0337741396865131
0,0583344085641989
0,0522151420025195
0,0386934167179154
0,0459491741753155
0,0451138949145135
0,0435610876334375
0,0577504820427059
0,0610165923085403
0,0429489460493476
0,0594296377650696
0,0395109029591851
0,0706990173328373
0,0445743892257519
0,0564535951183014
0,0416521204963555
0,0651508266063327
0,0525683585916696
0,0612240364093737
0,0433055530423098
0,0738075213685602
0,0527449590495741
0,0592274109514734
0,0653260487961003
0,0623152542963333
0,0477834596830123
0,0807265177266859
0,048583113093454
0,0660044179257858
0,0501405982052065
0,0732226367889543
0,0536805067616107
0,085099139744334
0,0548881512428717
0,0845296500575582
0,064634780805573
0,0755667383656957
0,0698475994080813
0,0842170488520301
0,072064665400954
0,0793588121911823
0,0820237962465261
0,0813863403193676
0,0840100871920799
0,0897583953244883
0,0781938849627365
0,107862274061917
0,0765058152132902
0,124297829174699
0,0840276783278269
0,10067566472096
0,0959023122925718
0,0971030949562221
0,100238005747131
0,106255216759693
0,109882875584494
0,11122317632322
0,112102365958399
0,120988100632671
0,120711204215352
0,130790634024514
0,139666158640607
0,156513944171926
0,137320406549316
0,12297505366696
0,136082591821186
0,144851753813065
0,137668614683425
0,16185996115112
0,145819501890154
0,169841716828427
0,138209980378289
0,174101585210902
0,144147867164123
0,176920678728956
0,157611154794687
0,184138138933083
0,167990994184333
0,188333666848445
0,179468013165956
0,199942836099493
0,188744471254264
0,213404485071692
0,203946355888219
0,208923221860314
0,202466607535238
0,226035895352815
0,206006817983744
0,245344426400184
0,233268367014067
0,243790486225361
0,232123475953469
0,24821698826637
0,251051357797931
0,218950260708424
0,246527266179316
0,245799093822823
0,247391966552951
0,25249173533271
0,255401805593002
0,268353264685988
0,263014501499154
0,274786572343072
0,281316085631297
0,280910634089465
0,282054589938153
0,289573050591489
0,296593279086044
0,291331882318507
0,286484416025466
0,307882604802448
0,327749861719706
0,316101765144412
0,293112413671384
0,3134594363179
0,298980804105147
0,324595122128189
0,304878969041355
0,332500523400774
0,311538906716171
0,335197552364453
0,334156037388998
0,357939502334928
0,3385484942888
0,366410404600422
0,352730427840911
0,335742278455052
0,342464686578111
0,371443292534606
0,348083645377825
0,374179948271309
0,351491851106008
0,373315569215332
0,35868197892129
0,402274289091356
0,365308605856266
0,398099620966913
0,368422741174087
0,389900365559116
0,375349855287877
0,399528388645026
0,387062040440861
0,411357402085509
0,394619475503717
0,407470899865197
0,405399654239299
0,406908318562033
0,393333450029541
0,425232293723412
0,401918014512056
0,431881717740199
0,423563576184623
0,414679074633223
0,421923671057836
0,446909454613581
0,442974029973977
0,457484797419704
0,405467124597181
0,456167055401893
0,430065915490172
0,462177940256525
0,42647942488004
0,482503513838789
0,447776753440228
0,485986130393152
0,457118829393669
0,476309900361994
0,46000444151162
0,493506212775373
0,476197285685729
0,478352426784862
0,484366309122309
0,518553608159102
0,482003655351561
0,49457141670975
0,494282705043269
0,532518243033142
0,523108643271387
0,521462765486315
0,495612507170613
0,535916069243462
0,496763918137248
0,513197781818871
0,503638922476196
0,529477264884475
0,511830772954496
0,551734153222339
0,528894884615216
0,553325299789219
0,538724964263772
0,547837037532929
0,545492168363785
0,575821220146164
0,581114145609704
0,589385087387562
0,526603267973298
0,57669254526071
0,537409256813915
0,589716327162992
0,568252902260842
0,599746242270469
0,585152561874075
0,592006179377538
0,565088803316199
0,585459415254014
0,616946901068192
0,619007913627111
0,603464517592467
0,626522784745834
0,596490022278368
0,624089819611477
0,60314290320878
0,647225699259541
0,620608800428672
0,630744443712966
0,615719267674417
0,659449493611691
0,635682734151763
0,663964795877056
0,664947286440613
0,67757642172983
0,63498442075533
0,674859182010268
0,643588134961795
0,67299555966761
0,647601523337071
0,686481718823705
0,664687491462731
0,728622739322034
0,69242022811665
0,693335802622478
0,686056518287217
0,718528589256631
0,672525313452493
0,718595865141501
0,677113071569552
0,727535774525561
0,719820301199565
0,736944779657004
0,718029355489298
0,767159572669969
0,743375001508215
0,747499927507695
0,711621469438692
0,760283443618364
0,747067897869243
0,76562027802184
0,73438204532916
0,774956064428795
0,765425788141351
0,755795218843545
0,746647822421785
0,800193709068512
0,771042535920339
0,78393096401409
0,741270578008444
0,782502825170438
0,790236506066426
0,82439018309532
0,780787543411416
0,79287561816868
0,763490701982296
0,856139486299088
0,818741858412512
0,82849396894648
0,817622375997343
0,852925402550835
0,850326288362303
0,900671579120431
0,827597607958429
0,865764615723128
0,809388405685367
0,841194673211152
0,828664028478646
0,870411884670739
0,858307427750571
0,908303743595781
0,879621225319103
0,958984028791296
0,903148892433527
0,86181229749357
0,830139995648336
0,886516383612738
0,856496278807694
0,901120859752331
0,892786032469696
0,91941725208646
0,928626871774921
0,943441051137494
0,895724292911831
0,961428320462576
0,920272308788173
0,945031361505283
0,937645438619027
0,991118803654535
0,943262826725895
0,997189638826144
0,927427618166222
0,993304931582719
0,925534097689307
0,943860083873468
0,937305456861889
0,947772450081617
0,992558302773843
1,015601438806
1,03397387813852
1,01036768006473
0,972814184030087
1,00212321104951
1,03094609474061
1,06351981014354
0,966070362462096
1,00533433514888
1,01971301775525
1,0610190057167
0,97455452320181
0,983537972517003
0,974443774962791
1,04038870001942
1,03759659456765
1,00970781406513
0,996600586310024
1,09290422595592
1,0286612177827
1,05064550328078
1,08960958121372
1,14655630289686
1,03800451540737
1,10511007004261
1,1218835191533
1,10498203580805
1,06507244636458
1,09583126017735
1,10156811994
1,10640099457536
1,00649934204372
1,09392970290104
1,13179981071429
1,12574907338844
1,06980616030774
1,07997025413723
1,1172027588207
1,16268581494589
1,09664181027807
1,13110197136292
1,0769771190038
1,07935825864137
1,12126974309904
1,14846409698384
1,17705947814022
1,2074696730594
1,06939006802705
1,13815178861525
1,20018081270647
1,12101221530694
1,09389948976652
1,17349184940923
1,09264437415826
1,1362073660659
1,14511363541922
1,22387293977662
1,2297728525207
1,13129522146329
1,18506982364539
1,24465479642649
1,16986962285092
1,21434513240357
1,16006332164757
1,25126782408356
1,25974763533003
1,28175476067784
1,16138589285018
1,13368457295804
1,1954774217923
1,14842756109505
1,25412011784437
1,34952553902042
1,2387118843227
1,19908271249618
1,18936072130411
1,29670365279268
1,19163049750739
1,22389681362449
1,21131992630015
1,2641001337157
1,25145195255569
1,28608161997661
1,25952562895945
1,226740886915
1,22758396648216
1,1874645670842
1,21690946898397
1,29637661981871
1,23085230728265
1,26545298758602
1,2405686600099
1,23469388727985
1,20402564802264
1,24203160792447
1,26177148213349
1,29486351668277
1,23621404598883
1,26944019684891
1,2652469687836
1,2482150813313
1,268305373554
1,26507763433653
1,24840678195821
1,28022906954999
1,195205157883
1,17232072950433
1,21278099626624
1,36600985348213
1,24045843334711
1,28739159917163
1,28874795698535
1,25739926733967
1,27466824279133
1,16458567089093
1,23980352648165
1,25001776226939
1,25384843720818
1,29216820944934
1,23109029283832
1,30008415801434
1,26434135291049
1,30263312495616
1,35974768452389
1,18391049364343
1,22221291011064
1,35152051869615
1,20901616200036
1,23803306259602
1,22953063896225
1,22698259340379
1,26752064615864
1,24209049330983
1,25762778294939
1,28572260803323
1,25891130224071
1,28077792484784
1,26503705065611
1,30254389373018
1,30385901320055
1,23609275204128
1,29516186979142
1,30656976464643
1,20083311520608
1,23265047628239
1,26490508947152
1,28834331302046
1,33560582697882
1,27679538469262
1,25626755431452
1,34853817608053
1,23761668260256
1,20533352026611
1,24214682771351
1,26323840096204
1,31766676033216
1,33014988940945
1,22428106106887
1,17372609558554
1,24829311355224
1,24060547459987
1,15299158564788
1,22021179146671
1,24816506918258
1,1855012385827
1,20452704392302
1,2710487612658
1,26645146207014
1,24298317504603
1,24785949969907
1,2666561764387
1,26590719062443
1,27652391330627
1,26663334229247
1,32476542207307
1,31089814490103
1,28189573410192
1,27140773972287
1,23757302659288
1,28553690692009
1,23968783223786
1,19013410422011
1,2696979158602
1,31731152224697
1,28705048286624
1,27472052117014
1,3293691647698
1,30824782806365
1,26118458702796
1,23196952505768
1,20282887230793
1,1965335313065
1,23461912711551
1,29046158701039
1,21866276171222
1,28737365454364
1,27773225426799
1,21511617898689
1,2806132358602
1,28491700297268
1,25954855810363
1,27319713648738
1,22012801219785
1,26897277525468
1,29096160503716
1,25559784576003
1,24341053917199
1,21506792992686
1,23371787841331
1,27433533699508
1,22586110334911
1,29183623015856
1,26461882498583
1,21313429299637
1,22798089483124
1,247147968033
1,25785887388826
1,24386216186015
1,21712575248551
1,21792026808357
1,26344525353768
1,29130371028098
1,21856338913527
1,16862061930401
1,21491436275614
1,20729570078297
1,25517225680268
1,29834884879468
1,22641225280259
1,16744891522375
1,1800319676942
1,19597943883908
1,20811930230918
1,26093082703662
1,22330144536925
1,19391339312447
1,18957919885423
1,29559044892602
1,29060608839301
1,21501693006506
1,23386514359163
1,2004382385499
1,2148155596692
1,24934828740204
1,1562924126798
1,14145934713187
1,19956890595905
1,21830615884904
1,21609929554643
1,1986030520585
1,22059417348122
1,19549877216412
1,1643893530684
1,17498890551443
1,15267750080838
1,15610788079187
1,1258806431555
1,19389214008473
1,1773344448889
1,15454597474795
1,14775943442437
1,13808966794715
1,13754105414544
1,14775198040813
1,19283737787097
1,1605990002729
1,12872080092707
1,14171333431256
1,12650176261751
1,13754785777011
1,11033180504071
1,14122452836796
1,12376231395491
1,12420050494156
1,14154026398661
1,15070475839681
1,12599232046268
1,10342121505998
1,07597151410519
1,09846570667173
1,11967391005991
1,11666451605844
1,07422152823734
1,07452157688098
1,06644224588711
1,05937958074253
1,09280123586089
1,05874388861404
1,03796707645589
1,06245760984273
1,04232751976338
1,0351796804749
1,01804212333393
1,04794102655169
1,03146520941512
1,00840796002724
1,00560517891681
1,03866175132222
1,02454975253664
1,02256793379688
1,0191530239907
0,987594538407223
1,00938818368289
0,997927082869421
0,982686109572446
0,978666140767183
0,948449795377903
0,978804856232984
0,959837795449618
0,95126858325408
0,947258540808583
0,947071696607542
0,909168203306821
0,920834514766932
0,951364683173543
0,938629535413906
0,908200257759621
0,929063536508182
0,892513677010814
0,896492754109662
0,892207612501508
0,883246899977654
0,890045501615865
0,897021463033445
0,881833992801671
0,889718956255423
0,901542491072419
0,871702962320417
0,853651634316764
0,869461077438256
0,862602893500936
0,842781779612601
0,835936357323104
0,838668767006279
0,8258174898052
0,83817424305218
0,827686531609712
0,816901211906349
0,806464525218162
0,810702383258274
0,812862601627073
0,794919797036525
0,784457755151858
0,773084286317473
0,791159616729157
0,804014589657864
0,793078418115806
0,774631963515086
0,763096042295003
0,766302416217924
0,750154478567089
0,753914450304401
0,747928121027561
0,740973607720316
0,720007465594153
0,719610642216941
0,718801306803291
0,721834196920298
0,725484016679977
0,697851036443602
0,715923550077888
0,708741929975311
0,691917990866559
0,694821210831063
0,689385208289895
0,683310435184629
0,670361108407851
0,680684265117328
0,654856467781705
0,660579050785959
0,662893120998904
0,664841040422616
0,656761944667963
0,670466267272806
0,664963624869433
0,640674313473126
0,635033921824459
0,645487436919236
0,636026577402631
0,640734715854777
0,627257922639356
0,623363085656978
0,603485970130638
0,611081692741408
0,615211387034739
0,603240428740277
0,602397274462602
0,594079814178972
0,599920905746993
0,597178112063068
0,589401115406676
0,594537580694667
0,581128754981486
0,575749695607306
0,577372528142556
0,57361134345678
0,561698594434753
0,564519055683824
0,552258122270606
0,537945388868587
0,543894084257273
0,559424681653273
0,534418414978603
0,534683677703908
0,526119746801861
0,526957624231923
0,521098187376318
0,520869772056995
0,513377123497464
0,503954562869433
0,516881175338795
0,513669286085088
0,49212835967045
0,510909291141561
0,496838677681651
0,493060128250681
0,494972999073973
0,497841017320916
0,486317249052551
0,482271312388188
0,473980483655597
0,478859845287221
0,476718243504014
0,466865737523838
0,466746231149828
0,461889879284579
0,449991643395567
0,464784310426171
0,447766864756587
0,449709169250908
0,443733056986346
0,449974898332773
0,447956591156989
0,437281923843729
0,420758828055787
0,431077422110731
0,430181803538169
0,422381892621176
0,42311001475028
0,418263114860044
0,416191259012485
0,413621158149261
0,415566330468138
0,404656966366344
0,411669393585415
0,400271605793117
0,399871950913855
0,403191794959987
0,392851457615961
0,394213571929314
0,389561342121733
0,39123853258458
0,375776483717473
0,387285668219926
0,376744916525384
0,377609725768311
0,367000306459781
0,3733349759765
0,374920355381759
0,369785495794536
0,364441214007533
0,362454638560755
0,356887052083343
0,348003879217286
0,358881976215429
0,353746217960467
0,341440868665936
0,342435698185007
0,348258099493361
0,342541677812564
0,33666576749929
0,339096350085789
0,336799783746114
0,329945916317157
0,33237077180272
0,32729004374422
0,318412985341832
0,323508254141909
0,318453442520706
0,322661352588529
0,319392771956472
0,319780071753
0,31564145037838
0,307596442529084
0,301604727056437
0,30927905029549
0,300258530193358
0,298649005317186
0,296672439575851
0,300863809040217
0,290680207532966
0,291204531636327
0,296559045127123
0,29008569066439
0,290250268712385
0,285276502296895
0,28171258069452
0,283225725004329
0,278139002142338
0,285464907404776
0,281504729755796
0,27770743264573
0,284130266000358
0,274896362784354
0,2711807151902
0,276148476067752
0,268020470751185
0,269054717372713
0,259670080931337
0,261976476564348
0,264002312195498
0,264196103735721
0,255736500321154
0,254847570223168
0,258326876487728
0,251465460891276
0,251646924084743
0,25044533346616
0,254894063731154
0,246080449073436
0,24127522898292
0,24168699973312
0,238326470486617
0,246177047392926
0,239239081150543
0,240435324985945
0,239627314014749
0,233912613287195
0,235563777710891
0,23328116488828
0,236197599517645
0,23507727362307
0,229364308673547
0,227183602432304
0,227076223986601
0,226857187409452
0,226074878085983
0,223118818884202
0,229183728610826
0,219478268632422
0,219294751460739
0,22114477992738
0,219288657131043
0,219394464563338
0,216033803026225
0,214724534375268
0,212877058890732
0,212211734001075
0,210981109364812
0,213882023604062
0,209156131078139
0,210083666975845
0,211753662258792
0,207725749463899
0,20751529078187
0,211858261319199
0,2088200279823
0,197497697104935
0,20715223964178
0,20339053577528
0,198722382243509
0,196783681332571
0,19737916351507
0,198958799161718
0,195311643491969
0,196611220584262
0,187695038445139
0,189383689489247
0,191705855980763
0,190537396813708
0,188368994867825
0,186249620436357
0,182979408049898
0,181007607084913
0,179640093371504
0,182140344292118
0,181478603269318
0,17726643580799
0,178419245698115
0,177730724849308
0,180990343176954
0,173018957631701
0,173690023458247
0,175854418348022
0,175099299548134
0,177351853462267
0,172990712515186
0,175378364182793
0,17147931233759
0,165692006376796
0,167855462485839
0,167790901591996
0,166471740655979
0,165902098978401
0,165323869995626
0,163763610194209
0,162169416860412
0,1636794101992
0,159792891034034
0,158777310740202
0,158460974582062
0,164169902022249
0,159271867225099
0,161517686224538
0,154426015165189
0,155778711927795
0,14920581958846
0,153305054206259
0,149835538277152
0,154170084576489
0,151834321388187
0,149287113102067
0,146383026949062
0,15008302716949
0,153038476416626
0,147202472669821
0,145198087217929
0,149010609034742
0,142891031660922
0,143612766584165
0,144479087291171
0,138280275543009
0,139387724843475
0,141172758971652
0,140186057884811
0,139463771753729
0,138769552881465
0,139305241733624
0,140464154019595
0,138074861113077
0,136388957780201
0,134547564851811
0,134042461080327
0,136936558665992
0,129128647043473
0,131390049234648
0,131422737072711
0,13264390572091
0,136027786552157
0,133182861471515
0,128335763816273
0,131089257841107
0,127789633854925
0,12705433889428
0,122996515968187
0,123523392728041
0,121432872561723
0,122926558209528
0,122657951050933
0,122327833013961
0,122616504484037
0,117834093185793
0,116149000960142
0,116979814635175
0,114047051104781
0,117413156619049
0,116581747627624
0,114681255571041
0,115938080239698
0,113185429506626
0,110878870509505
0,118185611642752
0,111207716277941
0,116204109255195
0,113106830228529
0,110133201426521
0,11229642653947
0,108813847865749
0,110483206444288
0,109532334971772
0,110437272927195
0,108946314695325
0,108203631907252
0,109723460941221
0,103772719364341
0,104354161881819
0,106414685659158
0,103236103650217
0,107625519567836
0,101388815564497
0,10228404912826
0,103735978206721
0,101205259777216
0,104438846780591
0,102211166582792
0,102436488004174
0,104680697729973
0,0967590309595801
0,097156341703556
0,104783771118619
0,0986736296001595
0,0980311382599469
0,0974912331045601
0,0984950785790915
0,0990870512653813
0,0971456634432893
0,0980356961073764
0,0954340070677982
0,0928167440749183
0,0971617062308838
0,0962219480024389
0,0938027593537709
0,0914110981759129
0,0953723012628705
0,0957745407597064
0,0921584539883423
0,090508163089386
0,0937563124389677
0,0907387894484421
0,091929757957254
0,0902168661960415
0,0918664353087905
0,0929042842801773
0,0903851747553625
0,0912628150798613
0,0938729489816283
0,0893086414075023
0,0866003291742407
0,0873745948503492
0,0876152969215239
0,0890241890672424
0,0914164248677747
0,0878964385264591
0,0908262038160243
0,0881187076708785
0,0877219204973306
0,0885718227399441
0,0877880112656108
0,086100309748384
0,0889411696190196
0,0875429273942341
0,0874403806982503
0,0876537498601948
0,0806784701003408
0,0867110544295887
0,0869313490839137
0,0845234131673142
0,0830727130030723
0,0794611395051423
0,081029639436612
0,0847244963211375
0,083944171693638
0,0815293598530116
0,0871075869561754
0,0826138460117675
0,0850532640702105
0,0796446659210482
0,0836001170819916
0,0802335209826656
0,0782677737748297
0,0792717959171968
0,0803972136025554
0,0804564132679504
0,0807749112366464
0,0792346389952177
0,078260132330687
0,0778904854977845
0,079506641364333
0,0752629617670343
0,0811724717615444
0,0803754986563449
0,0800285290023348
0,0750540687379954
0,0776769850095605
0,0793037461658251
0,0759469884310613
0,0747068902469003
0,0749099471679348
0,0751689308353112
0,0761388634051694
0,0731469619722593
0,0783955081580602
0,0748854836704631
0,0747511477298606
0,0779181763673687
0,0780580524920055
0,07431435241843
0,0770487024944
0,0727800115225735
0,074593506138379
0,0716006453807629
0,0750699107402271
0,0738404865075727
0,0765048004911238
0,0714983574309713
0,0733079223655584
0,0746864063915613
0,0759476987299148
0,0766417115684136
0,0747539925371019
0,0681745891329158
0,0723016888752914
0,0719663294377439
0,0725176371477172
0,0707520968635831
0,0675242006714877
0,0702328246543335
0,0736274707692377
0,0722372759212086
0,0743525906001074
0,0709388716518009
0,0740008384726658
0,0673655236719923
0,0721659933417647
0,0687300576831052
0,0722437482263156
0,0671429143594666
0,0711146745124077
0,0681167979931381
0,0684104086521417
0,0677239199786374
0,0715617505298855
0,0701311138215852
0,0722260632333587
0,0683330952805012
0,0695895893546537
0,0679064544299732
0,0724473205377312
0,0666448874346437
0,0678970049335641
0,0682313065016869
0,0690357349537932
0,067641896138641
0,0655552346089213
0,0682828660897591
0,0680151838865678
0,0707438696313556
0,0670022936351078
0,0650716227394597
0,068891302585418
0,0665058357089044
0,0685048008881684
0,0659499583106221
0,066316138653448
0,0662218944889899
0,0670981785898798
0,0665968461334867
0,0649643717679988
0,0684408708088108
0,0654784759032812
0,0642211199785442
0,0673297413885179
0,068273215574175
0,0682835199114605
0,06466789373848
0,0656614448072875
0,0650229233282796
0,0642663009996909
0,0657313059229102
0,0697722577191735
0,0660090435254
0,0661477176985439
0,0641973778443837
0,0655103484449464
0,0664636741102384
0,0673318237606657
0,0644597099363381
0,0681222889896217
0,0641432789058953
0,0657845103846893
0,0648781651817529
0,067408991292435
0,0620883354363776
0,0596310152711656
0,0659703948371731
0,0661350855245728
0,0626530506227512
0,0648591553669654
0,0662075559251759
0,0641794185247666
0,0627024968315504
0,0643357168072901
0,0637632951522052
0,0648098507325375
0,0634309036781067
0,0627739064747073
0,0611551361283698
0,0661311786861073
0,0608845687135249
0,0624114039435864
0,0627100852230875
0,0605894282786403
0,0631086850036287
0,0644688910211128
0,0614848949888535
0,0627868840354869
0,0616693908590906
0,0625003694785572
0,0613468917932783
0,0656554425777783
0,059932613177471
0,060295263721803
0,0642288694766134
0,0620191196073219
0,0594959776925682
0,0645785309561478
0,0641145346156446
0,0609989811249337
0,0651899267009291
0,0649057440519286
0,0606919663841234
0,0648040462260703
0,0593941294458751
0,0603639302916058
0,0620598784359321
0,0640616068501977
0,0599131586109114
0,064104892139859
0,0616885822107439
0,061665463359673
0,0624474350911164
0,0668105270356236
0,0613016483014331
0,0622451805134834
0,0608921882819406
0,0627391200721839
0,0605959287835505
0,0632403115839179
0,0598682909875128
0,0603857033850013
0,0612704993423416
0,0626993140983902
0,0614863948587964
0,0622314436927333
0,0611747157681826
0,0632554777464233
0,0588189840972256
0,0640931802746882
0,0629713321105327
0,0648452412175865
0,058899560504328
0,0638692821488056
0,0614650970224133
0,0612213945345513
0,0587177062838663
0,0620411262349512
0,063353632008875
0,061502653783218
0,0625931991271859
0,0609434494686255
0,058860889758659
0,0624156107067355
0,0599203238037038
0,0599063440503289
0,0593431691786379
0,0603468781285846
0,0578058806639041
0,0609185463103067
0,0624677082421322
0,06184767958328
0,0612603794911863
0,0635751443048703
0,0623796591598907
0,0631960668885272
0,0630849484374155
0,0607353409653758
0,0615923262487762
0,0605848415192382
0,0622512477119457
0,061690136569519
0,0596400152437654
0,0614694054090465
0,0644749948706462
0,0632539228589577
0,0621138398063636
0,0626846568422347
0,0610974416190042
0,0620685418386525
0,0623111306013253
0,062302366511074
0,0610456029061885
0,0642889160594964
0,0624627191697042
0,0629601010619114
0,0621600120565121
0,0622874485497077
0,0628258631716091
0,0611959293311129
0,0627938411540775
0,0610566745975681
0,0608475918898965
0,0637664679455682
0,0631457403618439
0,0621156284516385
0,0627156616479557
0,0634122764807439
0,0674435357520313
0,0626377554183023
0,0614444038537045
0,0607945633203388
0,0648572432983465
0,0626039263033964
0,0623388196815172
0,0618742724385378
0,0631577953502065
0,0625570986695027
0,0633425015100039
0,0633063019493156
0,0620410242583185
0,06038084811725
0,0621106091764705
0,0652724300908228
0,0659515183434363
0,062255341916589
0,0657118838752229
0,0654090304509973
0,0640003476150126
0,0677598248509991
0,0636390556568011
0,0620987557159163
0,0639284802015131
0,0668131117976627
0,0651733708532852
0,0655340963913703
0,0612997961742935
0,0653378531403649
0,0643494400218889
0,0645880353383779
0,0648265492040187
0,0654154629926409
0,0630645519815031
0,064043294384688
0,0632698406956826
0,0647467108134055
0,0643496639777831
0,0646121054302893
0,0640441290756558
0,0670283092669242
0,0636309819700668
0,0641835767616161
0,0656126641961374
0,0623426992648124
0,0646600405562397
0,065341427905921
0,0655943458930437
0,0649236247285379
0,0644792439643005
0,0653247473048986
0,0634611497733177
0,0683190447050286
0,0664199659182846
0,0653917699118457
0,0642165047754596
0,0659900310681634
0,0661209719932621
0,0621280105112934
0,0642334769670948
0,0660479952502782
0,0647465562699482
0,0657686854076492
0,0640937268253001
0,0647438510534494
0,0678865456275944
0,0650628040914211
0,0645467129131786
0,0679964323692179
0,0640874417151011
0,066150312659012
0,0659134993826377
0,0650427797311406
0,0644419627622066
0,0664391432655985
0,0634895688019493
0,0673630336941613
0,0642397389627482
0,0659930827488915
0,0677617518064203
0,0663593829035427
0,0697989286738935
0,0673983704612508
0,0652842948073036
0,0691476354293011
0,0653425449213365
0,0641420355751488
0,0665719372206701
0,0665136258639653
0,0675670513576891
0,0669631012307533
0,0660521919581025
0,0671891264194869
0,0685535704703974
0,0677157540167184
0,0659984545406518
0,0693087726712539
0,0676719641745175
0,0687593693427541
0,0659946943188833
0,0683004719204469
0,0673731157720528
0,0672705995235008
0,0695434273707695
0,0693761450122115
0,0695249538297146
0,0674344336602189
0,0684052549607124
0,0737054653646566
0,0696428280479378
0,0676977056049608
0,0697679631192271
0,0693713613533905
0,0701395921218319
0,0681253497467708
0,0708538615059659
0,0711850208561262
0,0686722360485091
0,0699351512664912
0,0684796933976046
0,0690471859488982
0,0698166165845961
0,0685874824473225
0,0699537634697441
0,0705958811196482
0,0722748595276315
0,0690547203378589
0,0713124999311587
0,0730302152034483
0,0729782424003518
0,0681888938898292
0,0709573626774975
0,070852727433306
0,0688878249333297
0,0697778406082433
0,0726225242299359
0,0714222397981589
0,072882757144902
0,0696589969132892
0,0710695628587086
0,0707597108900546
0,0722155670998906
0,0687546381208621
0,0733183073310292
0,0741022083545146
0,0712697578398788
0,0717886958739918
0,0738179647793092
0,0729997434317892
0,0727903812948853
0,0714510790627939
0,0735755037450161
0,0736790483236556
0,0760359004893001
0,0722885641599712
0,0727962506502128
0,0748474866926246
0,0732814126266544
0,0741201483606488
0,0767903352125016
0,0751941770121187
0,0774059790514677
0,0785591634194897
0,0801642167829026
0,0798565091103597
0,0804467735679379
0,0821847074726673
0,0825517548602617
0,0838116172321307
0,0860051922911254
0,0834398469353781
0,0863381228013402
0,0846117721870205
0,0889673473338504
0,0795800590891966
0,0853256351854672
0,0807752836762306
0,0881014867575123
0,0922858362299193
0,0902797642814778
0,0854740905058283
0,0953581623928285
0,086669235177126
0,091926926321057
0,0859701710021551
0,0911545751872971
0,0882614331905724
0,0860079328607105
0,0840904084690246
0,0892355131538348
0,0829436366516075
0,0925209533260806
0,0820696530533628
0,0910997934476075
0,0803342193839227
0,0871840652060886
0,0757984195854716
0,0965245437902876
0,0804147037454018
0,0947652599121428
0,0769380049459695
0,0935998930861598
0,0778877519324405
0,0997866296788439
0,0782522743821752
0,103034898968341
0,0739667739823155
0,103898955698639
0,0808869699360148
0,103999002160502
0,0735222771319862
0,101428904918855
0,0727777137170213
0,101619815556021
0,0758043326202518
0,109773368492557
0,0780423396117471
0,104892241613256
0,0735587546594627
0,1005577151643
0,0821542988198118
0,101234379754869
0,0788445267077692
0,0926495588817334
0,0891821927360213
0,0920592820332963
0,0926260726598716
0,0779177486158946
0,102123591948331
0,0743214325355489
0,107581891420075
0,0674143860034514
0,117351082349251
0,0631224393092083
0,112306238721758
0,0685625225955763
0,108428850735166
0,0756069950740038
0,101289061430862
0,0775754891424925
0,0904002917629917
0,0831206272828757
0,090310422633888
0,087105496178547
0,0889397558850007
0,0873952343307293
0,0922615146678253
0,083546948154134
0,0931237712296071
0,0828381535473063
0,0928475028900256
0,0825335989511822
0,0933089538809048
0,0844193920561568
0,0904499020112995
0,0848349284849092
0,0893152056042328
0,0864130555546858
0,0926427321440258
0,0850761444279935
0,0925534177290285
0,0857956346482363
0,0940721319714997
0,0856998707947732
0,0892417487294173
0,0858602142943779
0,0896403965977402
0,085693185664446
0,0931724125412151
0,0851000348503031
0,0923356817213782
0,0860173141309294
0,0948214481822733
0,0870750306880967
0,0931628249396419
0,0882053943623176
0,0927173858707038
0,0885534365640751
0,0953567367688654
0,0881077167280044
0,0933771900264028
0,0906985893683566
0,094064681982623
0,0910143263333004
0,0954336392285072
0,0896240835843186
0,0938463527837172
0,0914058245767265
0,0957854132809759
0,0906296481510932
0,0980640047277686
0,0928418077428354
0,0973692615335221
0,0916604335041767
0,098364451128062
0,0923505374893977
0,0961745246501761
0,0945776067262605
0,0987884413673851
0,0922015493219038
0,0986672727367802
0,0922595055921491
0,0970591276110961
0,093446357520487
0,0956123538951847
0,0950103837654247
0,0998383295901125
0,0954918711558912
0,0981149351704597
0,0953756690858163
0,0997236484510603
0,0958802369186689
0,101536168716537
0,0970421235779313
0,100734267595004
0,0976420847505493
0,102129995699244
0,0984305463772878
0,100190676268587
0,0980074801374437
0,102060229766579
0,0963511597278553
0,101181086597226
0,0975045282345937
0,101662384905849
0,100887763335421
0,105076747969036
0,0992154057084228
0,102846653909572
0,100177431233671
0,103963718160271
0,1015007970722
0,104966104069744
0,101895027721833
0,103703139136719
0,10165124811442
0,103189704061716
0,101129069097715
0,106673345160318
0,102467418418094
0,105881703698775
0,103586056337637
0,103960185938556
0,102085680042213
0,104787832706056
0,103045529987328
0,108719366992251
0,102859554361519
0,105711409138111
0,107244437419243
0,108018279829201
0,104713080742523
0,107813254854579
0,105985227879782
0,110178269552317
0,10560947030298
0,108960597469616
0,108075828644193
0,110086234840819
0,107855422423101
0,111065339276633
0,106711806297996
0,109972194070825
0,105541609961612
0,108618532856575
0,106988005033076
0,111514690432776
0,109287152740222
0,112915118729574
0,110188063312516
0,11113483788101
0,10915143867307
0,1133090066159
0,110839416654585
0,113453472589593
0,10885224090307
0,112384217068884
0,110884399164239
0,115379175721023
0,114925277481498
0,116812014275517
0,111644610522279
0,114200923179838
0,11222947749518
0,11469500408502
0,112026529238898
0,115302142544017
0,110781272596971
0,113181314961257
0,114144388479218
0,115753377123178
0,112387280451977
0,115139026527474
0,113446344167178
0,115563017421697
0,112429130540324
0,117065488934951
0,115293458996337
0,11411776784385
0,115182376583115
0,120636100158981
0,115185425200268
0,118011778052147
0,114132281375356
0,117609181714094
0,117465554370824
0,117516406882425
0,117589860659905
0,119423720059125
0,115822006024362
0,117655202267748
0,119860072672705
0,11925633878747
0,114635617054346
0,11884417713353
0,115432814683767
0,117647821597931
0,117684760963459
0,119431669921348
0,11713476594408
0,1176894390349
0,116482626920211
0,118569942992627
0,117069002766242
0,120221067449848
0,116520047423037
0,119537868363964
0,118828417733685
0,119934436729816
0,118266034839248
0,119414166037435
0,117448919785855
0,118995466075856
0,116946803523399
0,120112157688616
0,117938450798935
0,118966704908686
0,115127671757631
0,118465472583315
0,119660337318945
0,120146235278487
0,114987180430591
0,118972375624121
0,117915117394792
0,11778175422058
0,117638963643614
0,119017402833949
0,121749228846327
0,121603180908269
0,118030601894974
0,121431651441123
0,11911627543968
0,119585030984766
0,11818224920752
0,120690659191092
0,118607928313534
0,119208073200168
0,119042743063802
0,118154749534861
0,117784931146824
0,122139192750845
0,118536829495752
0,12034002801465
0,119674870221975
0,118424709297741
0,116539207641272
0,119850448616861
0,117660621939171
0,118685152498281
0,118302956390183
0,119028991644646
0,116849109708324
0,118667515673668
0,1150800813917
0,11947008809932
0,115820125403906
0,116102688737767
0,116614400568426
0,1207886030985
0,117409001647575
0,117671815810392
0,115293019454531
0,118507871464563
0,116533974753459
0,117660853436307
0,117142596864054
0,116465356531187
0,114795012721204
0,116772807288643
0,116175689966701
0,118496816179368
0,116688424565504
0,114099146320481
0,116568140466909
0,117797660139818
0,114263318844877
0,115542438326244
0,113041948345035
0,116439444061402
0,112670070713157
0,112244322119557
0,111613251631126
0,113299682778302
0,112359798491377
0,114940162854224
0,114248443290653
0,115583498218909
0,113025787017555
0,113949540080928
0,11179361217433
0,11212556954408
0,110469094711302
0,112430813470538
0,110964786206106
0,11045438738038
0,110862279690444
0,111884884975053
0,109211987224081
0,111964898128131
0,111065592525646
0,111993347570298
0,109977934420386
0,109970413532528
0,108203732960372
0,111585219420122
0,109982094999882
0,109595429621279
0,107980149182449
0,109993684524629
0,107539042114416
0,109478105932245
0,10579977295435
0,107865456925458
0,104522329941455
0,107941602557342
0,106923442249504
0,107694975695232
0,105548525462348
0,10872756591705
0,10601264330944
0,106637517561272
0,105396015266819
0,10659629062654
0,103516227878466
0,105879236863639
0,104431223254762
0,104931403217176
0,103328932814361
0,105501318212543
0,101892213560702
0,105693003423775
0,104570038489003
0,102950108978145
0,102533708852996
0,101208984016679
0,102984743668659
0,102668773889531
0,100940779900182
0,102667545089478
0,100402534685076
0,101864004438948
0,100894355213304
0,0986186330846318
0,0971523641704506
0,0999192400920599
0,0997307295505734
0,10023016021482
0,0983696138200321
0,0989115078343145
0,0954427672288018
0,0967846227463648
0,0992802186435714
0,0954598718541809
0,0979061780275923
0,0966878042564321
0,0961674288849355
0,096015183804905
0,0976742893197537
0,0988944465400394
0,100187998305068
0,0919268582592932
0,0946155210490747
0,0962987985358112
0,0955802733191003
0,0955319821381278
0,0938339535801005
0,0965348571876656
0,0916407603887335
0,0943898758042964
0,0935713495808076
0,094161790006151
0,0917480965031439
0,0935951994356247
0,0943234315968449
0,094224629192658
0,0918821246743742
0,0913481216338835
0,0888067408576766
0,091040769489502
0,0914550994598689
0,0923243838940293
0,0903297612466586
0,0898347614986331
0,0882570306168901
0,0903254322258968
0,0902063991152287
0,0931180859954637
0,0871980593027344
0,088125368033092
0,0872545912530748
0,0907652139297423
0,086038845762874
0,0876073341977527
0,0879476648130934
0,0895238596998263
0,0865132217507525
0,0884632404133929
0,0864068452691312
0,0864481372153783
0,0835913057377538
0,0882298287729107
0,085964173161726
0,0875478317003776
0,0814531861849857
0,0849438580482354
0,0843711838500646
0,0873016128873412
0,0820473680486809
0,0888248389547072
0,0818367522104003
0,0873156424984014
0,0840264387488456
0,0867432958722376
0,0845188115922999
0,0834871376309899
0,0853259431053019
0,0821790655116536
0,0844554977043966
0,0815465471008078
0,0820697511399694
0,0825464627050902
0,0824105159140545
0,0827117963403263
0,0820771368516855
0,0811248325472552
0,0836586066447224
0,0833183905398994
0,0812894992962518
0,0815665836684064
0,0814028484005137
0,0805629360512342
0,082833297688884
0,0854455095754873
0,082706562236418
0,0812204198334727
0,0804328294809883
0,0785885478354763
0,0856577917247295
0,078255266940024
0,0869953120884941
0,0753442173504471
0,0825751229986248
0,0763483822129591
0,0811104793344491
0,077010423128299
0,0818828068646562
0,0793663487130185
0,0804486929645885
0,0809753078146134
0,077763213576458
0,0797341570066653
0,076937913030477
0,0802141484492346
0,0777033292659477
0,0778502819853575
0,0779405489654352
0,0779766385025039
0,078625325371442
0,0774433451170981
0,080354723735262
0,077028449869157
0,0804866325125355
0,0778104027810212
0,0779439381979688
0,077170388697381
0,078063941858345
0,0756286352540476
0,0788706050423303
0,0800705277436971
0,0775756783790432
0,0807915641244979
0,0743215364687449
0,0787596236632861
0,0748852051460591
0,0804210188763746
0,0757375049911342
0,0781421905408215
0,0750320956729126
0,0797857770194073
0,0759000808847121
0,0794501707794276
0,0725823105263157
0,0766215399334771
0,0755879729941277
0,0758757656438098
0,0761668397372126
0,0755614618207795
0,0756442949781086
0,0748822999303154
0,080380835439438
0,078905918864862
0,0815457664611623
0,0778482107922181
0,0775778678118561
0,0773818279012074
0,0757303995599635
0,0761714852155828
0,0746534834951683
0,0775008547511308
0,0765563015456187
0,0775584611140417
0,0771234650701043
0,0773609840551136
0,0745739762993621
0,0775044883324362
0,073780719856409
0,0774300323453663
0,0744785937613369
0,0768989636516592
0,0721968782229792
0,0812214336397445
0,0745067584474912
0,0812336694825958
0,0696189703998791
0,0823788477853495
0,0674406192629645
0,0911526643460346
0,0725721932656384
0,0847416714286334
0,0760784085187862
0,0799976969834463
0,077557442732014
0,0768237594729695
0,0777811787852576
0,0789533527158275
0,0780652484204922
0,0787670223912405
0,0762746948148738
0,0790244545198591
0,0769643424251028
0,0746173294203451
0,078039762324393
0,085908384027082
0,0813131305858397
0,08327521231363
0,0735243151313351
0,0818007251173211
0,0848836987824381
0,0822731457067388
0,079908677536961
0,0744555291400988
0,0839404573445204
0,0803600482977162
0,080024902471931
0,0789453345065148
0,0829330315973018
0,0793824796566876
0,0808241933753099
0,0798711006887317
0,0792220741648583
0,0819866652161416
0,0800550467520198
0,0833377816989968
0,0816623224199444
0,0820074310841617
0,0851778671717514
0,0816153375116151
0,0831792360403295
0,0796367453869975
0,0840911219326185
0,0816464825853389
0,0856695638666164
0,0852069735414937
0,0847520093721566
0,0890149346332781
0,0859505963937537
0,0839217004545563
0,086295585660648
0,0851471119608507
0,094192641831339
0,0796924757751539
0,0914488021485866
0,0880717337050981
0,0904739488416051
0,0967441059819673
0,0798635224717105
0,0942261714786864
0,0817187700226755
0,0966451898806703
0,079360642351351
0,10175115308863
0,0834947356955906
0,102803481177574
0,0820749465051666
0,10019730083126
0,085939273192417
0,100057346302226
0,0905180404865703
0,0975565761636583
0,089900965240923
0,0977104728950536
0,0937191069745127
0,0973218182715019
0,100505678045046
0,0963156592901578
0,101907655861222
0,0955607640656668
0,100030702270318
0,109708156911025
0,0900635039141454
0,11070279810425
0,0952531415703459
0,106972801569245
0,097454172689864
0,106111269115444
0,113563314144931
0,107486354475291
0,104665163764041
0,105783214841185
0,104810296309807
0,119176247765297
0,10977688210267
0,117608593540577
0,108879757525966
0,121316348398723
0,108047148598671
0,133934183995407
0,108515487865201
0,136153175067362
0,120850089311537
0,12786361562645
0,129261642314957
0,130290975615932
0,129201089457016
0,129032711543295
0,136936100029747
0,131541686453795
0,131696470977265
0,135118618250259
0,140406741380509
0,132547554133924
0,146250322893425
0,129451925037694
0,144403780461645
0,145415735276103
0,161371238402388
0,152203895100512
0,150581840124189
0,147421766379851
0,158258486459116
0,150307062112725
0,159716611167227
0,152434637269493
0,15585103274017
0,156749244776942
0,159579288099705
0,16886416527224
0,165243114278651
0,175120080936441
0,16903695720274
0,172974412526157
0,183249130818864
0,188453693764269
0,202456289562777
0,176353403528948
0,201845519086668
0,177773843523914
0,203597331714423
0,19571561486426
0,20580088263015
0,203622791708527
0,209315351010811
0,215981987259729
0,210205370570621
0,224936803009608
0,216582726988716
0,230245438471976
0,242688850198308
0,23172474560396
0,246527750656392
0,236968910683969
0,298804663370834
0,193209105812428
0,281732276349312
0,252211496370765
0,280636377059513
0,273641668884315
0,28196110433009
0,286890612591792
0,283420986979609
0,290894264557878
0,301779670674866
0,302424957892575
0,312312668724261
0,311985570948041
0,32586637382921
0,323908835085331
0,339287143905846
0,343999614505921
0,372670240797641
0,355355072456937
0,350417531735547
0,364729044312694
0,370090531059432
0,374139373414462
0,389566184179412
0,382846981746678
0,392993832152495
0,406459731949905
0,408419745897425
0,422728291496505
0,412223704794682
0,438349087053619
0,417680885556815
0,465083217777478
0,426932179079332
0,46385844069214
0,455793338258144
0,469817709151535
0,474972727583958
0,469496403510114
0,493842074027245
0,487907277469518
0,509397345313664
0,503629286643688
0,516212704553732
0,517070728838186
0,524672424055146
0,533955966602282
0,535313691808888
0,550113380100142
0,540391515025969
0,604868854147352
0,575712966084664
0,585612259233612
0,563869035938108
0,566250453725904
0,592889685391636
0,584646134349959
0,621357022765032
0,58951917028529
0,602290350062749
0,600432132522693
0,600575777138943
0,60695691532545
0,597465738553893
0,61632192358434
0,611901500694456
0,623565631098194
0,618168590105602
0,631251689444102
0,636546456011034
0,635437112166934
0,627833223302005
0,600304882802285
0,61685821780082
0,615610280759803
0,612747919840897
0,604130074859537
0,611934222647661
0,608007597822989
0,614506960889528
0,586800813173421
0,59863790147706
0,59521799368354
0,603420857760819
0,579387735630155
0,560438828941546
0,555715767389968
0,550153987579024
0,540774096122272
0,551130625920791
0,535122333093185
0,540696940304429
0,514069116310048
0,515974905978293
0,503057409867371
0,502549848805494
0,483638288536203
0,496719606270526
0,475309325383989
0,476209824335842
0,458236647309259
0,462751134968954
0,45088924872861
0,45085680993249
0,436951441152574
0,438046633996631
0,428389067652207
0,419490963066615
0,418169051388262
0,409608065384145
0,403946358337488
0,40209160881199
0,391666696601948
0,391103520282337
0,383977228147174
0,381990482102125
0,371918020023529
0,372559834885696
0,361759750249428
0,359333627689813
0,351632960699545
0,351995925272918
0,346415415345859
0,345408514428219
0,33829177010884
0,336307609859552
0,332251361265136
0,334182765583412
0,330515476147489
0,326886542848835
0,324289752725602
0,313304674359574
0,328168343661249
0,323607517341482
0,315320978193262
0,312913460710526
0,297871839337856
0,310396785768312
0,292502147594714
0,316237166958078
0,304517454749997
0,305777829946459
0,296811392494416
0,289192187678638
0,286909116215485
0,294154046694877
0,282147543850329
0,294817406921495
0,268509936762071
0,298282993893939
0,279606915476942
0,29278606080776
0,326912040864396
0,282529856523787
0,279199491128887
0,267775608569837
0,296275758307589
0,261916092546165
0,279478076876827
0,258794724362031
0,275383502564045
0,266702770933636
0,267679941489015
0,268007122389696
0,254610899346336
0,263267212000456
0,268925140807408
0,261806206843554
0,260153560903193
0,271432563958365
0,251082482601365
0,267994652800562
0,268455750896432
0,273310587828187
0,247697703085862
0,250270575941693
0,250600471983451
0,247782607185624
0,253278472903001
0,23719492950015
0,253624074427761
0,24571115025211
0,23731657867797
0,244200289319547
0,241697441125528
0,253196129332156
0,230612067127587
0,264250539440799
0,220851141010725
0,244842601151988
0,234613609833837
0,243692602773536
0,256367103588911
0,239156395382119
0,230141444689435
0,228141940348156
0,250714690184888
0,232404000593174
0,241962179126219
0,22923784441145
0,229446251286424
0,241372720025721
0,220117072852362
0,230273630065244
0,234063377952492
0,22568928395235
0,250999337763692
0,230858700664262
0,256998398907303
0,23165460806775
0,222028677773433
0,225681931326382
0,216281832529747
0,224662322830267
0,213640223062496
0,221459461980869
0,234987845200014
0,210782561382808
0,236749183254742
0,214649926924542
0,220472684139437
0,217226821056639
0,217789172017409
0,216630773088908
0,220913702607963
0,225687604143474
0,226970595981212
0,215704287871909
0,228164012007206
0,210542242610194
0,222639504104422
0,209935644456082
0,220190320850959
0,206740417561667
0,221611137383281
0,216438508416894
0,217290637861437
0,217088401405672
0,215607618911675
0,211230153941535
0,239125727265412
0,204059657222259
0,230924591358732
0,21673251372604
0,234887392207487
0,229525637460474
0,225846503870181
0,226611769351811
0,219000196936077
0,222329376435594
0,220884429169976
0,219143557474793
0,241578209588821
0,215586078095202
0,229468656937872
0,220018754128342
0,227607197199657
0,219401106023966
0,236800269310662
0,227933874437701
0,232960756861354
0,257430226882544
0,219383154221068
0,241641577990317
0,223891065056231
0,231400038945861
0,222457729389643
0,222655483602394
0,230640253011439
0,223533211151853
0,233949752833395
0,226251822313469
0,2263681279997
0,22524513450165
0,223703187989776
0,22747510270882
0,225113784148761
0,227950488300413
0,228406595288534
0,225719840731187
0,22703028299067
0,219014750475397
0,249181549839084
0,231026318814702
0,221906160093593
0,226915261563425
0,223786434644359
0,234737449478978
0,223013663068471
0,23668598481002
0,233726822335973
0,229836622246613
0,233170784681886
0,225139352087849
0,23028819072041
0,223515251898298
0,236701586704497
0,223528741148427
0,229619858787093
0,229427803413997
0,226196501942964
0,27105622230679
0,215760234993228
0,243278940692501
0,220607579187206
0,234782065880267
0,225272145029813
0,233214206652655
0,221040720279799
0,231411354469501
0,222592724971512
0,224730707811288
0,225690328118687
0,226038527531631
0,228850733014279
0,224051165114441
0,228413215970465
0,228889359139596
0,224355070462639
0,22810674050761
0,224552430522641
0,222141458377474
0,221857443443558
0,233016820664678
0,221461564995959
0,233289021480496
0,215191021811211
0,229080843953602
0,229981635681827
0,220267925005102
0,213796421272523
0,222893487810692
0,214457411701083
0,223177525757692
0,214284541613079
0,234360275054811
0,219545631265551
0,225656748870032
0,212870189072473
0,220491463980601
0,211095228347222
0,221987256498749
0,213200261949454
0,220112581163115
0,209451472811726
0,220639248491574
0,215497283298349
0,216901322088684
0,216090741180746
0,21847720742293
0,225976749314163
0,220497154527219
0,21528747841031
0,221002027203027
0,210863917203037
0,221295768215548
0,212097472206197
0,216893756454145
0,21002489624456
0,219851800473508
0,203457113909404
0,223218273894128
0,213860563880983
0,211097482569238
0,218594877044503
0,208165155765558
0,215977564781838
0,208410820021079
0,210522191164358
0,2094229382628
0,212696310635227
0,209783146065174
0,21052824554449
0,210723381014196
0,207050804151858
0,207053896524181
0,209062439480272
0,209679665898714
0,208459291979242
0,208629254250711
0,207362723857644
0,208085860974731
0,208021069265332
0,210429165463343
0,205018395817856
0,2066768398107
0,214208567632371
0,207624608395891
0,214580061758317
0,208457246164304
0,215135981071082
0,203805200913917
0,209455430992984
0,202351283527285
0,208566695428516
0,207141464270292
0,208493663652154
0,208315677078493
0,205630898410081
0,204706666968422
0,208849461333969
0,206609537902627
0,20451550183659
0,20568567908853
0,204457237904494
0,20255924615616
0,2038468539881
0,207335913467086
0,203428459128845
0,210430505018482
0,205454160619655
0,207724966421083
0,202153489486477
0,206788956348378
0,204568714381341
0,207820628885049
0,205407060080829
0,207393289889406
0,205573038449233
0,206326976091109
0,205814784601869
0,205308162700078
0,203011689680469
0,203915002840988
0,201729361661328
0,205094771412932
0,203117278041958
0,202948645284653
0,202518498910785
0,200586641875251
0,202098907506901
0,20190173017863
0,20084583878926
0,201273135480124
0,200178193785452
0,202580043963252
0,203046308455025
0,200899216721116
0,200989117962893
0,200754685782994
0,198918736360607
0,200393882618807
0,199435461589117
0,200123720396806
0,198245592772776
0,200899621443814
0,200069578819862
0,201357073283868
0,199473253506774
0,203923243716385
0,19774178216747
0,202356851543986
0,201396262698379
0,200550233715445
0,199466416362459
0,199269723021794
0,198499430157183
0,202049014023161
0,196981141413133
0,199037101180616
0,201954659063456
0,201133051881896
0,202562962486809
0,199734501351099
0,201334977665265
0,201245908685632
0,200275806563289
0,199713761308087
0,202432174876139
0,201224136966223
0,201750412160341
0,201861028412759
0,20157179842514
0,200876299907178
0,201981684830666
0,20203452014219
0,202842501764082
0,20052588692239
0,201350446541169
0,200825456155024
0,20316395448715
0,203085185710751
0,203334506798593
0,200205281628027
0,200161934120211
0,198553299396691
0,201400026368328
0,201681067904778
0,200571709684514
0,202982987154658
0,200196817121795
0,201563400821996
0,20046964359491
0,198364803798091
0,199670270152789
0,200581794460294
0,201632309883321
0,198410864050784
0,196914440735701
0,198966993410138
0,196087681567222
0,199987436216525
0,199629322249438
0,196924097277564
0,199324243066069
0,196704196563584
0,197956488674931
0,198660953588041
0,198748988118058
0,197728265169983
0,197477899848113
0,195980404842692
0,196439257201965
0,19750710784984
0,194800590289858
0,19783295670358
0,196017674047451
0,197561343318847
0,196329020808302
0,197192048074763
0,195065535370513
0,197292469720511
0,195220902102645
0,195686426620985
0,195518385176668
0,193755813449167
0,195411673847719
0,194653299436094
0,192283383427467
0,192930608130472
0,191857865563446
0,194559318923473
0,192768533464035
0,194033253989874
0,194312585401626
0,194408963051879
0,192419384733203
0,193245202579463
0,191788095841377
0,192456917188699
0,191089936677523
0,190404879205339
0,192530709143136
0,192455214218403
0,191760071877739
0,192281522740653
0,189591279093805
0,189637927692493
0,190408234553924
0,190083505206556
0,190806397327346
0,19049061819216
0,189712054229276
0,190202083868427
0,192276888601607
0,191690747814526
0,191530163389344
0,191979072635755
0,190918858394634
0,192049205001413
0,194023792115531
0,194800694164736
0,19406952609816
0,196693967804387
0,196291206973813
0,198295283380082
0,200270451574347
0,199728899976859
0,201156857518323
0,202656544192356
0,20259876343304
0,205272319978451
0,206085587149814
0,210146238179407
0,207150077778041
0,211173807980185
0,213971662434162
0,214046039273152
0,21469123506179
0,218466427644347
0,218339287633416
0,21799921126297
0,216437718523391
0,220702537154189
0,219260233649832
0,21992823693364
0,220241061972767
0,218222232975313
0,220443466493998
0,219064991784528
0,217759611539004
0,218239288473728
0,217765024380568
0,219094739246565
0,216772854760911
0,2170274271608
0,214290060862161
0,218726859093557
0,215905376399747
0,216448986797862
0,217272451886318
0,216649741087918
0,21655591594481
0,216678213097387
0,216026283153347
0,217044883235345
0,218151658763139
0,221318615775953
0,21834449128348
0,216449811749766
0,220275705649779
0,221137745593815
0,220474251856974
0,223452888682012
0,223331035833142
0,227070405605963
0,224732022296474
0,228072389242538
0,228918743155649
0,232130132069188
0,23283405196104
0,232203539483239
0,234419043884558
0,233962285073922
0,23533521671842
0,234513737254907
0,232689116240134
0,235826838942328
0,233846853229479
0,23429656772601
0,232727137830474
0,233779174941509
0,232603269091087
0,23140425001622
0,230676338987896
0,230643852934247
0,230638634865699
0,231861338802717
0,232295220166296
0,234381023027631
0,235337450995407
0,236089358256003
0,236182539216769
0,238722079918305
0,239910645385223
0,243169683630846
0,242563167175234
0,244113890719461
0,245073359937597
0,248456627361044
0,250499921489531
0,251073836871701
0,253338364184719
0,253413618011318
0,254337724036869
0,256394394820481
0,256091372491976
0,259217889265019
0,261038411011086
0,262538656481598
0,265139721380903
0,268560359107901
0,27152373062438
0,273130585857311
0,273195821382045
0,276090108773897
0,276902208732303
0,280053092824526
0,278756666833339
0,281126100925981
0,279158517538346
0,281299590499399
0,281297487323834
0,28348916041371
0,282797833714234
0,285479904577305
0,280932641298438
0,280757292717061
0,276044941521166
0,275321577053147
0,275994200209635
0,272336035958512
0,272408267837336
0,272940814789503
0,270791086792407
0,269133007799701
0,270050417950166
0,268198929711143
0,267929345613221
0,270177945540008
0,269690454530213
0,270885994349867
0,270605788314395
0,271377145010523
0,271845815165491
0,272301117482786
0,273306418302232
0,276394637124102
0,276309510532889
0,281626743067365
0,278832542144758
0,280778762089481
0,277133437249579
0,27946084389937
0,28206259870763
0,281729948779273
0,282976261085693
0,2826927894277
0,284279133597344
0,284830848872749
0,281731557901019
0,281835424444071
0,280512643059343
0,28184662215912
0,278423487519107
0,280576766497231
0,278851136057353
0,276124512471445
0,277588058183666
0,277856846614374
0,279342832030192
0,2760229194765
0,277579358883994
0,275095524711178
0,274313360589946
0,274915940074858
0,2751934982731
0,272463878285203
0,272881293343771
0,272107491159724
0,269278659732921
0,2674787849944
0,266458023487601
0,265581554170721
0,262635322856798
0,261882816257977
0,256907726789507
0,255449201395903
0,250145375684163
0,25018728427009
0,249711524380013
0,245265399702844
0,24295932028794
0,241598620187038
0,241724660404744
0,240247071401604
0,238460257871344
0,238409040946722
0,239447005271363
0,235546174936934
0,241727294838774
0,241773006650606
0,241559241215137
0,243773480122778
0,24423405555586
0,242414100829917
0,244860253241947
0,243870847704294
0,242682647978402
0,242225972582047
0,241248584959663
0,24452335840383
0,242664350762203
0,241458987917758
0,239326490275937
0,241125759206088
0,24004596193268
0,239387053100543
0,238819313671864
0,236440197288371
0,239070731451268
0,239140890175481
0,233835596730573
0,233184034581868
0,236719643054885
0,238494809545699
0,236529878795523
0,235673614800386
0,23471198663289
0,238303669992203
0,234813401806695
0,234388788362057
0,23821994383839
0,236928073703901
0,234759612709411
0,234902798697386
0,235514936256483
0,237728502200486
0,240771518783026
0,236518096353949
0,237249123897358
0,240320588780548
0,240264557893642
0,242456717996675
0,239493326613109
0,239779732360734
0,240862132807245
0,244694648155248
0,244170772694466
0,245783757934621
0,247874148252051
0,249358683310835
0,24841141030946
0,249971231673852
0,252695906987834
0,251543758767361
0,255853297561125
0,252541953705877
0,254354822333612
0,25349096587347
0,258357703729584
0,26201708473543
0,260981316255454
0,263480054508745
0,25975549579295
0,257824301042973
0,260468664531962
0,265600595940156
0,269271370494082
0,266390002938074
0,269754650822796
0,274934223492572
0,277095520928375
0,27299087876545
0,272745527619895
0,276071068312325
0,280331364012843
0,279576408947474
0,282394928008282
0,283133457811913
0,285107259068512
0,282198025255985
0,286609614770487
0,289569050182839
0,293989963988866
0,293766229946002
0,298556621071689
0,296931935176786
0,298551307438923
0,299476062310071
0,300835658850467
0,30262594855519
0,308492590287606
0,305965266505871
0,30611144659216
0,311130716946341
0,314066154314259
0,314192855492248
0,316764667101718
0,320910445893203
0,322368964730409
0,32110261565776
0,32425115901304
0,325684825585298
0,326161723221846
0,326374637588902
0,333031364239833
0,330376365990254
0,338182423344803
0,341938859162422
0,342968373633134
0,350579112046211
0,35016533383178
0,350048010395197
0,357946950414144
0,360486175732783
0,364037923099994
0,361915612797694
0,363235566904902
0,363456164387867
0,373444324317139
0,371816142514658
0,374683469221804
0,374730433177081
0,379831958550385
0,383065079411319
0,379854330304724
0,387946682938194
0,390858704171217
0,389902807327879
0,391082225274696
0,394345541532909
0,406221695749612
0,41402902047955
0,405573490260914
0,405969661837734
0,417149612614884
0,413746462808229
0,41873685356513
0,418095730230937
0,417368780060873
0,416618972734242
0,42613730213312
0,422661888028692
0,428115024866829
0,435403152599112
0,438286773977446
0,437572645198635
0,446576985739671
0,438905498009292
0,440491251600586
0,443076408087234
0,45597858363979
0,457552956811073
0,452821508485925
0,462397141514904
0,472386066336618
0,45871187085017
0,473344817410404
0,472612499316997
0,478673005568062
0,486328611607393
0,489416531971362
0,491553819513316
0,495470444596483
0,496270910516214
0,493085119888903
0,506814830741613
0,511232458853161
0,499362672504705
0,511607228632465
0,509376757771502
0,505923684147159
0,50122062259727
0,517527828674666
0,515607160159378
0,521620359075403
0,523093315458879
0,52400242028218
0,537484853117711
0,548806591378522
0,542329753783993
0,547463700537956
0,541689077424842
0,544543048610162
0,530581085653706
0,541284406091524
0,552904752905903
0,558155197295753
0,568823764743887
0,580304055635742
0,587806193239732
0,58237909931389
0,577117448578673
0,584241127298875
0,582041145658681
0,579692956875891
0,585946893756713
0,593572167126712
0,602349246903228
0,599138855617663
0,589149802074077
0,615707472707052
0,622583789660992
0,60874405860741
0,615133974884667
0,631627587102253
0,614718929630231
0,634800908735031
0,643866357465701
0,64004567419783
0,649965363226508
0,637746351824181
0,646972881737857
0,640054505282977
0,637405542692249
0,688682577779049
0,690413867022266
0,679672099072911
0,674478230056934
0,682079935046183
0,67998638491719
0,700298608863602
0,665682738036922
0,687175363368775
0,687325104440823
0,675530978043095
0,692968298495838
0,710933089700151
0,699037211035307
0,697857556154648
0,710701103639363
0,703721910157421
0,721347972862975
0,748217437238719
0,741831945494237
0,763443845153625
0,726556003733799
0,773495564913763
0,739164414117433
0,73600883322897
0,73140611959787
0,745464917137448
0,771707949324269
0,78292223689469
0,77607572934352
0,770331509606528
0,768782299633971
0,802626455784916
0,785498318434792
0,79244390163063
0,77708223205983
0,764878749187089
0,787970839258846
0,812516779129976
0,782006338671078
0,774083194039739
0,780714670520051
0,809733188052647
0,815469753437548
0,773870703193009
0,786409632140852
0,818539259810437
0,864089333329342
0,878594581300666
0,832467422910147
0,830943870060317
0,882298784000874
0,867903189375227
0,868256819921435
0,924465805643782
0,866446562756611
0,870923601022272
0,885292471541666
0,946433699400946
0,858416204438494
0,810132836954123
0,882414552584936
0,893907976431585
0,912444762272043
0,909545869749633
0,839190538435267
0,886070877986708
0,954743790948879
0,949841350476937
0,881429814609993
0,918683395626488
0,895109385064855
0,882343045999185
0,858396036639638
1,0082611887438
0,974553634855054
0,982707515669993
0,97357317460604
0,887990492261906
0,985105781430503
0,952197121437094
0,885198276586672
1,03355979221285
1,06405476601353
0,948977221972768
0,899677561749105
0,878146498999078
1,00782475146155
0,961645463817689
0,923134834043521
1,04858098968437
0,964627831770908
0,94847498393823
0,932418701193557
1,110504898519
1,02496275578012
0,883945359486341
0,942387147578208
1,06106227940594
0,999137722684534
0,831127915821698
0,874844798000464
1,01948410835255
1,03430433553384
0,981287676977796
0,988056587280796
1,0513954834842
0,932887230242772
1,02427200281912
1,14635804907785
1,10879633324478
1,11731526845563
1,22129513132378
0,972144358562604
1,01199133503835
1,07502087884949
1,14633659037609
1,15618250256395
0,948140831405141
0,977719612194492
1,12945705819473
1,23261378727895
1,25529582556688
1,12196198169098
1,1065462742368
1,06982619958572
1,03441540317963
1,0648158144247
1,65059686745933
1,20904410780846
0,917156398593916
1,11574636837557
1,30952578762461
5
1,42032390600048
1,22671334858036
1,82197002152868
1,11981191372156
1,16441757181459
0,891146718033817
1,04636226057224
1,17377744354445
1,18268894400415
1,31502128739391
2,23118566022884
1,21478974482006
0,975827950824373
1,49279493826223
1,18665504919997
1,27593786743366
1,0355216816895
0,713911027604413
1,4786332568326
1,20987782541952
0,688112800523026
1,1792847749026
1,24701350018626
1,20187938489375
1,03905760402562
0,998635930235037
1,32433250905003
0,979750896393868
