3596
4000,36533379555
650,420452594757
1
2
2
0,01935205412746
0,0343366799017644
0,0249645310195377
0,0273594384143582
0,0260018539360204
0,0352682393127399
0,0245237637960299
0,0302337415989825
0,0196221342052206
0,0315977119530511
0,0273030247116438
0,0351325010797708
0,0269946305233688
0,0297095636577562
0,0250483350076857
0,0331632315076296
0,0197901399334151
0,0337571233105682
0,0280993455244646
0,0341316273014349
0,0232996720899166
0,0350921117539318
0,0275214090152973
0,0339764004029019
0,0228408186604773
0,0314869697433959
0,0194844062336777
0,0290741567699927
0,0249775983311935
0,0339595893537318
0,0237795080114944
0,0411337798699819
0,0296653792859603
0,0381553804465715
0,0354669179479124
0,040454327281851
0,0230235669583741
0,0398933006697202
0,0271602867096424
0,0372439431738245
0,0281340837684122
0,0263537005706908
0,0275858364630893
0,0374753416172181
0,0232491230526493
0,025837996026765
0,0228078021548565
0,0359233641252506
0,0156743913893385
0,0251607846910314
0,021269554582442
0,0312428292676082
0,032665255795532
0,0328733373155918
0,0254935820014985
0,036191763224622
0,0302725820741119
0,0325903934700469
0,0265623626909273
0,0395503989386044
0,0266949765674912
0,0303601786829795
0,0195340545596
0,0311197565710816
0,0271308647127816
0,0340090346467954
0,029235205162776
0,0409047026972389
0,0209036973628031
0,0416606768113387
0,0263287059178373
0,0478078038901942
0,0214072717932249
0,0396014548597081
0,0316679832105294
0,0329125525605368
0,0191888315788575
0,0355270994477175
0,0245326862933297
0,0444845227861344
0,0219012359317296
0,0314774949492347
0,0271857141574282
0,0339484163648517
0,0333367606718789
0,0305782549339059
0,0158590812140015
0,0533206519910209
0,0188467282988787
0,0421673748883694
0,0140583296906008
0,0383194360829463
0,0125975785108147
0,0337103326811161
0,0206852755452372
0,0365739623152038
0,0164208802341345
0,0414502267629762
0,0224400373602381
0,0469865473188467
0,0293006499975427
0,0550734919692372
0,0276185046356801
0,0271592901679932
0,0594112039461146
0,0176648663239103
0,0424179756967431
0,0425825175894766
0,0171890007289632
0,0387644542202139
0,0241416723151138
0,0456756048797273
0,02273944761551
0,0481558563064906
0,0138273076954389
0,0607838259899819
0,0219507467106815
0,0354176034684697
0,0183087364721345
0,0378382196686754
0,0164898135388369
0,078431991480609
0,0160821138575183
0,0435285666960539
0,0249745242159567
0,039939859723533
0,0280153588636854
0,0586507563851816
0,0159944398153701
0,0359017104478921
0,0234444727456247
0,0405810712142173
0,0281959400871499
0,0448082939403695
0,0283030799552453
0,0245235212123985
0,0287434473151156
0,0344706855947227
0,0366492542126949
0,0365825315409131
0,0172478084027222
0,0353028834065036
0,0209017233193168
0,0494892227586302
0,0282331330556847
0,0426873949329246
0,0241267941586357
0,0475316680720561
0,0207490873636904
0,0402178126232828
0,0262297226251547
0,0397630817973065
0,0249700783215165
0,0388151672622097
0,0230810476294679
0,120696851399602
0,00635497510925715
0,0584450748572723
0,0362628298981761
0,0210714331059987
0,0416256263474228
0,0249741077647317
0,0325452377434473
0,029657439946474
0,0327698293536673
0,0261600303493698
0,0405148931603755
0,028870363620556
0,0296261592163622
0,0446866597427163
0,0313273866607203
0,0373322084108605
0,0310770539172383
0,0457193807397765
0,00297458862826825
0,0487603438275906
0,0300768884292508
0,0335453863147523
0,0193854623492853
0,0450563217881836
0,0188105944856203
0,0419223045687617
0,027095068497864
0,0323196265768025
0,0267829338943484
0,0418754012900458
0,0176309675966903
0,046665986538912
0,0318517200985172
0,0301293152825222
0,0397012812380585
0,0423776397542959
0,0177165622800138
0,0343605089443656
0,0435741783495809
0,0463821485379166
0,0553625408629433
0,017685028253354
0,0306935676346169
0,0328673478233299
0,0258131380995235
0,0478439813983635
0,0250541406769118
0,039965630240736
0,0320924945080178
0,0442008546135948
0,0536496443663265
0,0224245350327428
0,0298853771443465
0,0284411678268618
0,0407194561664123
0,0333001154513801
0,0526021198092017
0,0305920752385506
0,0285373362938835
0,0369018676008777
0,0271342899271788
0,0361167197669448
0,0319847843596974
0,0291267692972206
0,0253844015937457
0,0379499210344449
0,0312575939704653
0,0372650471656965
0,0381030067920001
0,0343894986063127
0,0321580192767575
0,042913370200921
0,0304690819675151
0,0501085926682041
0,0378236405901754
0,0298827841752682
0,0304339605191349
0,0398649881958691
0,0181783587793153
0,0464978451885899
0,0346894239528006
0,0345475225573801
0,036712925194375
0,0412292135400967
0,0295875268872002
0,0388595562423161
0,0354170180166396
0,0412448257507415
0,0411826217008012
0,0398301070940067
0,0556845978208524
0,0332264258773378
0,0501710637327217
0,0310006896475063
0,0526957990731923
0,030308559707904
0,0424326545323424
0,0348699759387602
0,039774598107784
0,0380047747654987
0,0406212134584531
0,0544969835488175
0,0327891355909346
0,0481428792038957
0,0540716505361787
0,0434784537089598
0,0355735273156483
0,0530212080064692
0,0383045682362468
0,076396755392912
0,0286810025017537
0,0567323547033269
0,0397688943638195
0,0312131919031038
0,046913176236626
0,0486664939257323
0,0572840437716158
0,125641898015351
0,0266727373193707
0,0449078098619383
0,0444628273193095
0,0636657433342588
0,026585301735928
0,0667948127791895
0,0357933475481127
0,0729387314208956
0,039000751956625
0,0534120464897347
0,0701159104615619
0,0432816026117573
0,0844065280598509
0,0510395108797237
0,0400837227455562
0,0511761866263656
0,0541386891233939
0,0475519921838765
0,059791112413533
0,0586670191470141
0,0499246440986125
0,065349110987614
0,0565381781776506
0,0682627253258162
0,0490510113592722
0,0585360964298125
0,0443141481327027
0,0668226316527898
0,0494778232479652
0,0715314566421894
0,0569199985937094
0,0723708351438923
0,051009978675061
0,0743165299044073
0,0585001218906558
0,0726610119532934
0,0546300530942387
0,0862249529427065
0,0506888214117638
0,0675967364613772
0,0529407250962999
0,0748986170666777
0,0609659702819937
0,0847571379880274
0,0637166033171903
0,0828566496395678
0,0568098486752589
0,087966495922472
0,0664083279789019
0,0947581875379965
0,0785904365212805
0,0858911688991801
0,0806562329019851
0,0991809939718551
0,0914200174326493
0,0980580951924686
0,0969555575247949
0,112935068486104
0,0818443312354044
0,147565867711821
0,0873911234968023
0,103986539914348
0,0963145715058052
0,106611110031925
0,102400700241825
0,117276667619182
0,110386568720506
0,120660304070346
0,124813892201587
0,128193370257115
0,129801389465032
0,14453131686533
0,144358827473408
0,155065962473272
0,148944720810545
0,133048359572517
0,138031670284928
0,152990530397177
0,166621635320561
0,166332953518805
0,163180572895657
0,170696361811302
0,150056801496122
0,186250635934926
0,162338488817587
0,190128847806505
0,170971715879803
0,206582425249829
0,177701764810967
0,200690915626068
0,187168609510961
0,21010745715002
0,198984012332423
0,229669302187338
0,209677155091198
0,228083673714181
0,206483054188793
0,244349974651272
0,227185363844484
0,282272822720542
0,242630436911473
0,277348005774899
0,239550249347823
0,265796978830738
0,247376160817921
0,252081062973295
0,249596495062626
0,263473477505749
0,269965501068759
0,2749146535569
0,272362558367791
0,283595026899703
0,286743699458955
0,298274911092118
0,292776190398928
0,296592745765409
0,307006788633027
0,310675982175325
0,312646718105131
0,321800851872709
0,312315666565728
0,341124007078101
0,380467120828483
0,340970132093309
0,312649017012327
0,322703730134039
0,32514282732321
0,339703600792811
0,323382835886366
0,357851482667402
0,342692684090439
0,368770017636182
0,359299842767006
0,390087921674123
0,358786273234689
0,375188183395457
0,359111219088445
0,363645309296239
0,38717454551126
0,392557818026956
0,383958161499261
0,409330208454632
0,364842385063245
0,395059832359487
0,410311709016735
0,414331709209175
0,400945984593593
0,423837368048405
0,368259070711014
0,4270917300989
0,398475616524126
0,422389924679833
0,420243915623359
0,434968397163909
0,409565507120385
0,436028888474115
0,427360397803047
0,45730931830482
0,43415601087493
0,478509899054579
0,451609940403992
0,464094763585433
0,438755239240372
0,458772476041165
0,450252349893642
0,473862569509523
0,46960694445243
0,480617683567961
0,465584232020897
0,479266604532055
0,435220069954887
0,496236462904669
0,484811596044911
0,515137698172142
0,482890814375065
0,51454638338784
0,488711262101336
0,534874101914277
0,492028919050528
0,528494970680549
0,483687170992379
0,521632860444997
0,525345323243337
0,52044348488115
0,512752417556961
0,548517830500495
0,536806085078878
0,562139587165497
0,555392936488643
0,606942409496035
0,515915202125186
0,573849486194021
0,521611606795009
0,552127260284312
0,548699802912273
0,570202134141027
0,525153722626049
0,578854873612004
0,559923183029489
0,59043916350739
0,560610714031416
0,594223688593585
0,579380796821889
0,63853031828468
0,604206209043493
0,644024657083841
0,594912406239614
0,626615623965509
0,590730920152869
0,62870818601439
0,59935834881263
0,640684521399719
0,629916421648236
0,635094128428708
0,630208532970823
0,663072801727026
0,61237609333865
0,67102753381719
0,649748700857611
0,706209602716784
0,651672052170965
0,706547007116836
0,624817527574513
0,695740263104103
0,674825981232151
0,727578738024746
0,701513640082608
0,681377391545362
0,685312739465491
0,725246762550136
0,676189933501483
0,74732767635931
0,675360899252533
0,708957278641661
0,699276073373236
0,713070575331259
0,703315750376213
0,698886815621492
0,692687800767303
0,743048830164005
0,736419225708157
0,732814734562191
0,748596740113562
0,788262523096683
0,738678164270428
0,796559129027293
0,723573656885086
0,792923993122615
0,74777719500069
0,817802119744067
0,776305109678353
0,791930357951785
0,771681384012149
0,837910853666476
0,776415920885132
0,816121707761796
0,760639733723972
0,820941882812134
0,799101084006585
0,856272178473166
0,781988595382914
0,860812243125783
0,794769218169575
0,844982252979082
0,817930595686958
0,902778509897791
0,840361763909516
0,868768149705201
0,823176538211358
0,868045265641324
0,825627160259412
0,92624349027511
0,846370774107821
0,925400217024748
0,853287080695474
0,902952789740884
0,898084246716672
0,958363812238647
0,853185483550126
0,908051311060692
0,87754267571156
0,930328859149981
0,839872393316622
0,924828056806449
0,880310281070237
0,979904147901748
0,878147071509963
0,939927997406642
0,943200412393513
0,996904495626023
0,937369057152589
0,981754055032758
0,915351462554255
0,937616736843091
0,921961802617968
0,940130108436982
0,948831193730253
1,04326348496168
0,978881113061225
1,02417200979007
0,962389167595057
1,03116821233839
1,07526920338801
1,02860990015374
0,993652694332457
1,07842334850623
0,963392252120619
1,09231887292891
0,981693311820333
1,093898640088
0,96915074381134
1,01282039667728
1,05126489949118
1,09853902884953
1,00234112750555
1,07063583061559
1,04647067376155
1,10812169701042
1,09326537422434
1,09995256239285
1,02858535238912
1,07683809333633
1,04089288343391
1,10138908923499
1,07175038622722
1,11858353591878
1,07944594044175
1,10987747225853
1,08213095007098
1,11140371226271
1,01523443916197
1,04251422709221
1,08258512082812
1,28889096986306
1,13934198108729
1,18792238694569
1,11541718418432
1,17395248187843
1,07253208478572
1,11889996477836
1,15095882863674
1,17122562349932
1,07485157534562
1,22130496630767
1,12845584190995
1,19170818850819
1,10491201748502
1,14558040218447
1,17058966329797
1,18550978483121
1,15380672387298
1,19354566925883
1,10424975325486
1,19178584462939
1,23268799059954
1,16223064344305
1,19230358650352
1,27710836794959
1,19866344992434
1,22330453841812
1,15770538888707
1,28082651725774
1,21110577672028
1,31654384224379
1,20784149604534
1,31304867088782
1,20862836657698
1,21706462160856
1,20750467026895
1,26736294947846
1,20581212062691
1,32687922935356
1,27518100089394
1,24661390393334
1,23618156852372
1,34767852029274
1,19888337768917
1,29928094662378
1,34291653646047
1,32086352157786
1,23770902394745
1,3814778957533
1,24567165907671
1,25235548257239
1,31558686988661
1,30129329018408
1,27283244297192
1,31590227136325
1,24607201115361
1,39264682037914
1,33920187158738
1,34852046677529
1,28266848386669
1,30754967612738
1,20924447847891
1,34826959052241
1,26659778888596
1,34531639046802
1,28478148606767
1,17133120047146
1,2840936716196
1,4080732619541
1,28924411727856
1,37136788466938
1,36071600460906
1,39296376541553
1,37186122241085
1,28866826906521
1,30573964896152
1,36074579839017
1,23793393534156
1,35848989413685
1,23106746346161
1,33987637550599
1,37588459967213
1,45909813221707
1,39929020385448
1,39554020093018
1,35296070368231
1,27840531710586
1,41100224720121
1,39425464372733
1,32957638628327
1,32955411300288
1,36235649500201
1,46178471980888
1,28520706531622
1,34452391645532
1,29310830089139
1,40967347709741
1,31407769539114
1,35185871243771
1,32457414633584
1,32876955586371
1,36107870203167
1,41213956534161
1,3378688721659
1,48725895302661
1,29659128456175
1,29087978612983
1,35884459612
1,31527187674534
1,36270998471059
1,43620174320521
1,26669823203366
1,3843586761857
1,2597144579987
1,32430336875997
1,35953367716673
1,4382140412522
1,37181609058994
1,36129973745653
1,29293247191781
1,33527046496649
1,3561645387664
1,24392548705057
1,3453106257005
1,44012189145236
1,34032100058187
1,29923378067028
1,3638486591938
1,38680297520352
1,34583280986781
1,43890463857468
1,30006718296634
1,2628062416716
1,2855351197677
1,26486720033833
1,31776581184406
1,39258747170144
1,31005166387819
1,31626075706073
1,31024430540349
1,37068657322182
1,42762336673083
1,4411290463456
1,26248299810376
1,33483354607365
1,31833609641949
1,28134423942728
1,31092990349908
1,33850944073993
1,28125696295053
1,33135607521003
1,30841084008281
1,39524492251089
1,39198480059096
1,37451415043393
1,34150836238772
1,29496375594392
1,29169348549302
1,3848069096458
1,34160018990572
1,27920784638161
1,31432879063301
1,33798304257072
1,34909853331159
1,36759547670462
1,25396114557085
1,29578424026517
1,27917464934913
1,29792276918356
1,21256795696264
1,30870414562026
1,39329030536611
1,39552932646822
1,30715940794453
1,34088687578426
1,35299221034927
1,43835841826524
1,37142269305435
1,3837551634736
1,38315405028629
1,3805778746927
1,27775290307382
1,36105511802712
1,31582403593925
1,31130539274222
1,32551350688707
1,36305744409399
1,34572741688003
1,35218175140337
1,32837239558526
1,31504445009465
1,28819896622426
1,32931589636685
1,30509933244316
1,34929761437803
1,29480739176241
1,25752253677788
1,266561700987
1,29367380504935
1,26320704129381
1,29112377701975
1,30724174977272
1,32325495228843
1,26362430469378
1,35756401587141
1,34615231900266
1,33473757331896
1,31176065933279
1,33436160698993
1,34530144816316
1,30112624980909
1,27145845154833
1,31909278279102
1,30435694288604
1,28928631072891
1,26432926774063
1,26443358978829
1,31421759113455
1,32907313741913
1,29662101522425
1,26886575045123
1,20593867727339
1,27165904310434
1,28583418200029
1,30031987868644
1,31863283981583
1,26981556469951
1,28063339265159
1,32536973908097
1,27408424573602
1,22882263235835
1,28221330567824
1,23688241750737
1,23211296231692
1,27754903111123
1,18515936404783
1,21561560906948
1,23426184105951
1,23575572478936
1,19470134408292
1,26927844799282
1,33299012486872
1,26395471282506
1,21026761489268
1,24855080229563
1,21845529552343
1,21148595925687
1,2105922606275
1,18584922312939
1,18015732965158
1,18673339882617
1,16607264533786
1,18498186157516
1,20354709149196
1,19625277269325
1,17650718351455
1,15761662182156
1,17041383074681
1,17743561220668
1,12844134187241
1,19387775555238
1,13746223745051
1,14018350997063
1,15054383566539
1,12174865028201
1,13436180175714
1,12196907993392
1,10936318038263
1,14132207111788
1,17264163479501
1,10818581287734
1,12422860955422
1,1531813794035
1,12160115119871
1,10193012174267
1,07802390482553
1,08023019465978
1,07700215494418
1,079652776541
1,05927861624706
1,03769602828741
1,05617398107117
1,04295278704648
1,0190924370049
1,04644301001644
1,0622807117974
1,0478709513739
1,0316972321384
1,017440590806
1,00958318101444
1,02424848650525
1,0115265710178
1,01421851189706
0,998818802867272
0,983919502298785
0,964065945578207
0,986815461322985
0,985545545200598
0,969119735625384
0,965656317984269
0,951612697561184
0,953015297343289
0,975565468222736
0,954106635461872
0,955146931913447
0,928230041700498
0,936874562031737
0,926409878881613
0,925876103281923
0,925695954469177
0,890158402605582
0,893272051099225
0,895344736254961
0,894060952613283
0,88270516404298
0,863385313328876
0,881355093462797
0,879959795070978
0,866688978210223
0,869270164910677
0,852642487341988
0,848377455979649
0,853702744323926
0,849163358207206
0,840031101638869
0,819224799261351
0,813003108799715
0,807299683618825
0,814645970658006
0,810527691625136
0,800870642221135
0,810712124122706
0,811507476823083
0,799649013587559
0,79368738481109
0,792060758868876
0,771269979900476
0,773305816785878
0,768284463996677
0,727285888400169
0,748647772941103
0,750066631690429
0,75196887470124
0,738910553947743
0,723297060744143
0,725746024504881
0,738034612692392
0,723064297411569
0,716343322146002
0,714968554468025
0,716981099382272
0,717256953199598
0,70775703687969
0,711864174573826
0,683235523812891
0,668551522284067
0,687064011887776
0,692537099929324
0,676589741768219
0,669972736172475
0,671133720577487
0,650950845734238
0,653754669522671
0,656025532175075
0,655763771664638
0,640404679776041
0,649244981391657
0,64337219950049
0,631732990526061
0,624176198714675
0,628877809521647
0,630144280786865
0,609798130262488
0,603705143213556
0,60954279371228
0,606795411565053
0,606317284690986
0,594743202076796
0,593738907473686
0,590122913500802
0,578839099071481
0,573376029298889
0,582312559857396
0,577040143205047
0,570648973970666
0,572002401784279
0,560339984675218
0,552336441845184
0,552734691946014
0,554107637292731
0,546607051090969
0,543538829958984
0,542644658391435
0,531296467710374
0,522664204918445
0,524980232093533
0,523722604570255
0,519013038391908
0,5196556683745
0,506867723427351
0,502580495438818
0,498548751878907
0,504593931855074
0,498878979826835
0,499409732824664
0,493073406972434
0,495792388679388
0,491887647046849
0,484262706163011
0,481405907914237
0,467302880419952
0,480408968601218
0,472721534843853
0,465817389937898
0,458445571621509
0,455476556757284
0,457744356375262
0,459572315069213
0,456222108228503
0,447338017346887
0,43561502730003
0,4397578539613
0,442365975543535
0,433806647558761
0,433793418375245
0,433194706122938
0,426365685256856
0,426818032333491
0,43153244473318
0,419948737415758
0,416921244814434
0,414297215450125
0,408117166170438
0,404741073422469
0,402655402692633
0,403762171528391
0,398867590294605
0,395973363562446
0,394804020672043
0,394136460009605
0,389445736213894
0,384316235147086
0,378148387544093
0,375336744693544
0,373990148392769
0,3736655509174
0,37505395584482
0,364088931406945
0,364181717358666
0,35396857849172
0,358472398767051
0,359538950298232
0,35124620060511
0,354086782643689
0,355834458675898
0,353692431364099
0,343447926033031
0,341166578072762
0,345107359039585
0,344490228197161
0,333246171509033
0,3350745242289
0,333829116501273
0,336945584192271
0,332116053162309
0,334988481996412
0,322859721938254
0,320069675999708
0,3179833473532
0,315612999147393
0,317665362585827
0,314363833374438
0,311588010431056
0,306443100701362
0,308463670776693
0,308333519006318
0,303646735541306
0,2972262590182
0,299331082723355
0,295315748424144
0,298113887663933
0,293383384935133
0,293496887195237
0,292662858325894
0,293083545320983
0,288894256529862
0,289931618719396
0,286562158310598
0,281432558191016
0,28336984152722
0,281037972685799
0,276242650600221
0,271822810530039
0,268606859416609
0,266427132362516
0,268335467976724
0,265170526942452
0,264571060887883
0,272502049507625
0,262690419669353
0,262899283980689
0,262397331233621
0,257162087601726
0,254527958381374
0,260831603082709
0,255663565005849
0,250524215284446
0,255329135077194
0,249288177797986
0,245755980922139
0,253801458077565
0,25005225460542
0,242930452589732
0,244718689118935
0,241568804508132
0,237441977000489
0,243873175839157
0,237703360884591
0,241424740049508
0,241343753050964
0,23517508238245
0,231410642007763
0,233704505475508
0,233213562167052
0,228373147613808
0,229149732079536
0,226344209420351
0,227763382395423
0,22406748477087
0,230907725934933
0,224599065729759
0,222457091004038
0,220100171767808
0,2268820931906
0,221594973485705
0,220920632344397
0,221394596062426
0,217065802499819
0,215801275082588
0,216233260923176
0,218355287139166
0,220818711175316
0,212728549494978
0,214245118676693
0,207896489032628
0,209613308420647
0,204326499356912
0,204523502444687
0,200309445398346
0,205072639162562
0,208169336653012
0,20231937976667
0,200896674614087
0,200710611919106
0,191491323923359
0,190961374893115
0,189585024598039
0,193301256583687
0,192431945105454
0,190766182793283
0,192024206124303
0,187442658835872
0,189736027696312
0,186551626245337
0,185027559581805
0,182294838451645
0,182309456037292
0,184254363760713
0,183476064858114
0,185054124373128
0,181723679660931
0,180894575089077
0,1765391332939
0,177164980692463
0,173356934877121
0,17391734926075
0,175431892317991
0,17381015257719
0,172644878408155
0,174154245433876
0,172302813062843
0,16784129412655
0,167433953233432
0,165562757388186
0,167426452116238
0,169007047454521
0,168272052340239
0,163049908804716
0,160737361409763
0,164660482333094
0,158535617798332
0,155416715859081
0,157319290511766
0,157940531142836
0,157233363287809
0,156720346854623
0,155156521082971
0,156650124329258
0,15640538054165
0,155592733976985
0,15001746842458
0,153372750824149
0,154879065648732
0,145721392585706
0,15116692803021
0,151356814497897
0,149209429164999
0,150085676471245
0,14541686523114
0,146885030400853
0,141502513229673
0,146154357971165
0,143784915602389
0,143105403081517
0,143328205556513
0,14040356718692
0,137542952237248
0,140083408964628
0,14022572411037
0,138216933378112
0,137530592726152
0,139493420886499
0,136315821320128
0,139083772725938
0,135196667987284
0,134642686764556
0,13225110283532
0,129337530091226
0,129820995628024
0,133347859457709
0,130628954655703
0,131845118482155
0,130468499033449
0,126039530268749
0,123541046193251
0,125221412034891
0,11950311210834
0,125008762474624
0,12851563583277
0,123236164242715
0,123411338278918
0,117839339313298
0,118508225099661
0,122421236883155
0,118123053462681
0,120772739564865
0,120948087745986
0,116371817718117
0,113221796551427
0,115388573407821
0,115994481316274
0,113841269717158
0,115313750949239
0,115141524469607
0,114246927752283
0,111839912683425
0,106922110094822
0,110924300690321
0,112251946634413
0,10952919294294
0,107414247617823
0,108668800854941
0,108530270604099
0,108958932168845
0,108813806001921
0,106229284145154
0,106294343402302
0,10259037174492
0,110073065230003
0,104575237145219
0,0994837576539527
0,108547561621876
0,103808049526963
0,103119094544307
0,103953092794529
0,106917563629515
0,102648501168576
0,10041511998116
0,0991263218260799
0,0998014571410669
0,10068669755251
0,0993017668838335
0,0971052223634359
0,0941960524502524
0,0952838292379288
0,0959610517754279
0,096640513607551
0,0989101567823643
0,0950188872849362
0,0991787564916951
0,0957559604215265
0,0991771968033089
0,0980364997241308
0,097052973633019
0,0929927608473421
0,091584929417026
0,0962610027445876
0,0958847638144534
0,0935942469325925
0,090983975158863
0,0927477945117563
0,0936905043737867
0,092755230993554
0,0923942415986123
0,0909980817070248
0,092143800192305
0,0883144912323485
0,0879275030807751
0,0894809877474352
0,0894753316103145
0,0868754613875674
0,0901564246146998
0,0873367116837361
0,0911965212810346
0,0910860606308507
0,0906325464943076
0,0885341425301048
0,0876480505919042
0,0871201675826386
0,0891194754532449
0,0848180487801711
0,0848267751058788
0,0884910165883476
0,0881105443351156
0,0851426379800877
0,0900497534291769
0,0866948370558182
0,0849411131717812
0,0843180596038415
0,087654508243697
0,0846795394057524
0,0832996079248653
0,08239486862611
0,0833619991269625
0,0817765636528587
0,0831382801538099
0,0814455070825556
0,0789854900247964
0,0823273926850511
0,0838764260623553
0,0822374041741853
0,0821323313542953
0,0825581816698849
0,079356763106558
0,0790652676041324
0,0791414029274853
0,0816156768730627
0,0826278244217826
0,0799172863010235
0,0793712576012634
0,0794297519797499
0,0800072265176934
0,0759172546380459
0,0783910524845315
0,0776207916858942
0,0755050722687773
0,0773115047572302
0,0791756672483135
0,0767486806347696
0,0806044555144255
0,0764399154782998
0,0780514383326757
0,0742515688363553
0,080009571910535
0,0785314263214426
0,0744301360047065
0,0759247774125099
0,0764782761605606
0,0771928196655502
0,0789368056054384
0,0802353489594478
0,0768384305296347
0,0747672082114566
0,0741892754867131
0,0728880585611464
0,0746275558089401
0,0736364719332284
0,0740292364759115
0,0726080178624307
0,0750949977577586
0,0736501046970605
0,0747925594025237
0,0736378925798625
0,0716209742945689
0,0710253824979495
0,0734724629032979
0,0718173136513197
0,0718451745383831
0,0711222014841756
0,077029343508588
0,0732807911967233
0,0719977741443399
0,0696750517532236
0,072045637796632
0,0704119163745074
0,073402297844333
0,069048013517299
0,0691176135425945
0,072497516668922
0,0720885237509779
0,0677758966184193
0,0697414034030208
0,0687835646017651
0,0741942838984898
0,0683192475540422
0,0695447563220977
0,0717142973663766
0,0733802983450608
0,0665337744046613
0,070836444567798
0,0666021589630576
0,0693807353297886
0,0677170472575302
0,0708653934647944
0,0658425131020803
0,0704918538491371
0,0705661362788304
0,0717335270052122
0,0675143625918064
0,0681668704201375
0,0680695361464086
0,0685701627457453
0,066440950434698
0,070124761788705
0,0690074086047598
0,0682571155501238
0,0658015083774681
0,0677156380263106
0,0668116862976502
0,065191969587399
0,0660415518401722
0,0704435130013523
0,0677535471671482
0,0700954384688512
0,0660553236027825
0,0669170984141408
0,0670960816049391
0,0661841710463084
0,0658564663963138
0,0692255511917198
0,0676465769803876
0,0675123675147935
0,0666855080450019
0,0665357902839893
0,0601926651297337
0,065500575398552
0,0634227326758858
0,0672242908755572
0,0658495669941817
0,0672450416801693
0,067119936395133
0,0682996894837137
0,064990540443808
0,06652217028976
0,0664819869283494
0,0679042423820413
0,0680229622045704
0,0656921330241199
0,0644981517768527
0,0683195974637556
0,0647363127119765
0,0612536140499069
0,0629181485551105
0,0640540144330817
0,0657249445309886
0,0690655086609626
0,061198520082366
0,0632584349574178
0,0624355434898718
0,0660932425745705
0,0639370673219211
0,0639367695033976
0,0630274276441683
0,0649662320438121
0,0630407217265921
0,0675897812878881
0,0638874223953183
0,0655875484607846
0,0661563904858701
0,0633089214025718
0,065937706643411
0,0630279607803293
0,0616061778496048
0,0633642615369523
0,061617219939446
0,0630837342202143
0,0626216403355907
0,0680280164854444
0,0607707477532872
0,063703235541354
0,0635680535984585
0,0672134739219801
0,0644178814149205
0,0671997518950998
0,0601862036094705
0,0604525877793561
0,0585356099411643
0,063844986720781
0,0618733396209041
0,0660120786699474
0,0622073935632985
0,0628343662807856
0,0622065342071048
0,060779606135414
0,0625538507772133
0,0620800226836366
0,0614613174273991
0,0634418081082435
0,0606424856145358
0,0633778782335775
0,0627936503023814
0,0653101787693418
0,0634088439924459
0,0630233264299528
0,0606797908056804
0,0635196871266736
0,0614823117317714
0,0648226661178161
0,0627172216461832
0,0636989384763895
0,0618948763060718
0,0631022156857309
0,0644552633345575
0,0636067017494553
0,0625798137254871
0,0626709754756097
0,0606490694195232
0,0613558002067431
0,0599325773889623
0,0601472566657484
0,0624461799118798
0,0642780395624014
0,0636565896634785
0,0646422735096948
0,0626849074197586
0,0643114138028952
0,0629163624005179
0,0634349071089002
0,0605011116059127
0,0621044221151377
0,0640807538019404
0,0640887291125957
0,0633039672477271
0,0611115490796094
0,0640058801313515
0,0642845823463784
0,0630938828374816
0,0613829946075559
0,0616179260201978
0,0620261249391324
0,0625113299211883
0,0658871311045101
0,0623498908302475
0,0651126100666966
0,0624395936063705
0,0664961087393584
0,0627365539020188
0,066140992707851
0,0650092501806876
0,0657450913089118
0,0625725986809435
0,0645681599489405
0,0634613503906078
0,0662887506693649
0,0647589113122732
0,0632300420075971
0,063463395097743
0,0615116421540005
0,066271339415714
0,0655195919728633
0,0633635949184641
0,0666213720977143
0,0661106115811945
0,0662836978806867
0,0618984746666905
0,0646473626547094
0,0628019172058108
0,0662090374192923
0,0652334689060827
0,0646471914547407
0,0651704228309678
0,0665688866427039
0,063979516048329
0,0654416750090838
0,0645089206390909
0,064130768710072
0,0647211515205049
0,0658339608375571
0,063256522905681
0,0652506462111512
0,0667687663192538
0,0657785806925792
0,0648358712591287
0,0647259389293112
0,0649603003051408
0,0648761377738851
0,0637547089946399
0,0648425603814524
0,064817234054481
0,0652807725599983
0,0685504984441856
0,068457931932477
0,0637603331094213
0,0634868358956966
0,0629633154462351
0,0647169148441177
0,0658400045859577
0,0678256150451059
0,0662436409604068
0,0678023519734555
0,0684318891443896
0,06617953561619
0,0663824810758676
0,065654534361345
0,0663037574783191
0,067630086991858
0,0675034421499354
0,0672586461763371
0,0650109250398716
0,0680161015836118
0,0649888563818292
0,0695984361673949
0,0690481845402247
0,0676721139457952
0,0663269571786787
0,0692708138398653
0,0643120818819393
0,06488053488986
0,0653690924610978
0,0677173776462706
0,0653637415150636
0,0690833721766259
0,0661291007100444
0,0679170829541962
0,0669282621341766
0,0673517378115593
0,0675070849000435
0,0687178572119526
0,0665521361115192
0,0663296412977688
0,0679145947331168
0,0666945606133414
0,0657409830283262
0,0682261656204622
0,0679332369527569
0,0696016390000068
0,067875382085914
0,0675319286372062
0,0677161469177349
0,0696021671626969
0,0700545716684925
0,0684889022426181
0,0662109950097518
0,0705490382706284
0,0713427749313227
0,0686033431652069
0,0705005846094214
0,0689237469238947
0,0697354472083133
0,0710162503723175
0,0657736646691438
0,070493441613152
0,0696207550468872
0,0697966469352774
0,0707936030809476
0,0680246516924571
0,0703009263618854
0,0729173513417292
0,0708738032112623
0,0716684435901886
0,0699633035880191
0,0713428333273353
0,0712685518742931
0,0727155739384648
0,0736443368876958
0,0698682928758
0,0718380687660412
0,0728249497345924
0,0722629497669543
0,0699650404072427
0,0704516047947499
0,0694278071054104
0,0696320767213612
0,0712672219827676
0,072232386023715
0,0725335535963267
0,0688889187135685
0,0711370826652157
0,0703940444825824
0,0715605183746079
0,0723998461822628
0,0717033836579251
0,0704777527862561
0,0740072060036323
0,0726839486560729
0,0704874992065538
0,0724620110843785
0,0735078772640585
0,0737698764149836
0,0696342610496248
0,0727343970885746
0,0734103377879933
0,0727398316267844
0,0728240650729286
0,0745187770608988
0,076951102899324
0,0736240006301173
0,0731275414021242
0,0751573744954869
0,0733633925881
0,0716510569029551
0,0723020342973866
0,0753465592076614
0,0727086567129838
0,0728390642217924
0,0738254526031296
0,0755112908295514
0,075907964616867
0,0756410797833391
0,0726266724291393
0,0765441185908653
0,0742761866232327
0,079369182029335
0,0755770420483349
0,0738859537353997
0,0790846509109816
0,0782616360437924
0,0790780374592406
0,0792577439916784
0,0776888811595021
0,0814468655556749
0,07936972397813
0,0807832448973219
0,0817487790556316
0,0862918891247417
0,0864669323761702
0,0889386326797594
0,0896678824385962
0,0891489911822824
0,0907062234899127
0,095316413293839
0,0928846537239496
0,0924255188734936
0,0847812692882409
0,0885550297728609
0,0848018142237918
0,0919371410087456
0,0963832676534348
0,0931814691092764
0,0947735808689146
0,104745999442161
0,0897071351802485
0,103486446890027
0,0929906472570867
0,094910905429662
0,0906368472977488
0,091927923178895
0,0872693151158756
0,0927013130827125
0,0888765195576803
0,102133490789063
0,0859321285479415
0,0956994595037626
0,0831072890035572
0,0915335645053654
0,0823919690003982
0,101356046088061
0,0851971894929461
0,0990050209960786
0,0836928093074865
0,0998316853312804
0,0844728049265894
0,104701738878885
0,0812461846097256
0,111869328513277
0,0828577096442901
0,112542057585208
0,0813886717170105
0,110175760329915
0,0775960440803104
0,108728141765551
0,0751887630985588
0,10880986382189
0,0782495794939516
0,122743126327422
0,0785978753205717
0,115399492489501
0,0689130197003308
0,114391336664061
0,0787205318618965
0,117574961835807
0,0760213606886511
0,104302098189142
0,0854230146822963
0,110170894541892
0,0863998058524595
0,0919225134070823
0,102164804681619
0,0836607104746204
0,107653374202746
0,0749610636962703
0,118190055929444
0,0688220767050832
0,116762678394328
0,0712072727178173
0,116572622356529
0,0738202955239176
0,106580707686064
0,0801563131724746
0,099274976370007
0,089838886279891
0,0941651094629261
0,0879077139620237
0,0933087733649774
0,0927580398672056
0,0952084328341045
0,0882909341975265
0,0970724327409051
0,0879801700859014
0,0967243359476596
0,0835304125881341
0,0952026882922656
0,0883482486933136
0,0949287367991292
0,0882200684600245
0,0958340937522848
0,0886017158919904
0,0953910706471406
0,0879451604205176
0,0958732783613562
0,0885811551077114
0,101039791763446
0,0898954846435524
0,0939163216852089
0,0912028104139113
0,0973126712178836
0,0909219046161471
0,0961586715945953
0,0930395278236004
0,0974547138426004
0,0888447861957482
0,0957124884773467
0,0929451978529409
0,0949307693809504
0,0904656419659126
0,0971048932934462
0,0939557566878564
0,0976588882344311
0,0907184780689512
0,0988144052767759
0,0949404822387232
0,0996469652507255
0,0904611385286814
0,0974638405870883
0,0945871578359604
0,0980762368433593
0,0946603036828644
0,0997396536596988
0,0944807072349038
0,101482810084789
0,0940110628377695
0,100585908971307
0,0940792876773954
0,101305015774687
0,0941196027307197
0,100638031795546
0,0982501320602676
0,103392021542204
0,0963302256274411
0,100605874860809
0,0973715115177813
0,103892423659863
0,0994376315684536
0,103162480923571
0,0974638044949808
0,103114840482513
0,0961094126876213
0,102349325554036
0,10024945287608
0,103551911693157
0,0990641505686348
0,102663502744204
0,101069587788854
0,105109992374798
0,100160363282715
0,104364688929885
0,101002513365437
0,103473141314147
0,101988513295873
0,106136871195038
0,101546399055301
0,105037206641413
0,101590758347381
0,107913361361883
0,103821155313575
0,109717853050451
0,103384990065187
0,109388734008905
0,10293600078093
0,109216850758221
0,107184369656607
0,108276351919012
0,105682540644879
0,109891077508183
0,106273436173864
0,108454120625596
0,104558971716038
0,108975097093975
0,105616319119596
0,110312462865567
0,108000084124898
0,109532644245585
0,106970148810911
0,110543358106735
0,108820641134825
0,113402577593365
0,108834666544184
0,111660650180143
0,108945619635208
0,114126822916397
0,110160227124093
0,113273174852219
0,109900275410825
0,114822814842853
0,112597155970558
0,113940892852597
0,110531746512855
0,114824340329988
0,110361810517754
0,114402764326588
0,111515264860796
0,116749104034787
0,11231135788209
0,115093195482693
0,11178807012457
0,116219410313796
0,11269767311183
0,116477619930601
0,116060800673547
0,117699438037411
0,112256773701543
0,116287583085809
0,115023758242787
0,116678403157004
0,113435781145221
0,116937224474282
0,113272648545133
0,118867493892704
0,11617422102809
0,119697014819572
0,117449442667493
0,1203318003082
0,117213472895856
0,121599516191163
0,115507664028954
0,119773620896219
0,119420110267505
0,118578135545794
0,118183178718747
0,121604674230139
0,118723175484127
0,124431446009827
0,116371198970747
0,1202939070078
0,118131013906844
0,122836138326186
0,119382233382754
0,121059816807502
0,120862250194578
0,124008464298583
0,121270472340608
0,123918583894263
0,118998560838319
0,123572515476435
0,121493756072595
0,124074759707098
0,121716936945559
0,124891913350404
0,120089506604947
0,121819176003343
0,121021913023014
0,124709907797351
0,121911396094037
0,124013215796322
0,122163292159892
0,124471858509069
0,11924730521563
0,126843226545434
0,122355560639075
0,123089655730172
0,121680854760041
0,127437601132917
0,123821537903534
0,126092643563247
0,124134442074543
0,125992200450877
0,121614672121016
0,12388534971602
0,122736233102173
0,125522351529516
0,124205270648554
0,125925610923594
0,121683825001837
0,126417154765375
0,12226338378194
0,126424972110215
0,122556612130993
0,125633818284554
0,124731301615273
0,125849072614733
0,122440018335523
0,127132793687296
0,123737940750083
0,123952146000551
0,123009183401085
0,125959060017007
0,123230327073548
0,124075213839751
0,121355751645865
0,127769656914898
0,123698897246972
0,12473703591989
0,125748573201528
0,126227917262455
0,124203511599773
0,126701722250554
0,124247281596762
0,125138770964466
0,122187433753673
0,125403162280243
0,12445263063592
0,126874335303022
0,124305923196497
0,126526147979529
0,122155120575424
0,125738686291568
0,124444560341996
0,124950124287435
0,123226335134618
0,124310277725689
0,123604368953042
0,127075812194563
0,123896697748339
0,125425393063091
0,120905946826474
0,125090089673326
0,121697156603626
0,124246737901674
0,121523164051312
0,121984265197129
0,120354826505069
0,122221488205212
0,121639820300495
0,124399800930533
0,121665164796942
0,121270410319801
0,119816727585228
0,121837376592464
0,122676967311952
0,123376085368404
0,121422580336589
0,121092691912321
0,120134958582858
0,123396206069481
0,121704896564507
0,12127908773555
0,116342703243124
0,122638645741928
0,118669800134208
0,11988674398314
0,118943272790231
0,12065112974503
0,117892382315424
0,119124570392818
0,117572217554613
0,119472769253235
0,117790861716287
0,118960817806871
0,115642382709726
0,117505406829877
0,116960373808147
0,11934076692284
0,11670854619819
0,119758142283515
0,116661125456328
0,116572170679958
0,114697399001642
0,116511772145611
0,113758432213695
0,117250121340456
0,115623141611872
0,114926443977523
0,113153744275366
0,116098604710392
0,114930992209338
0,115444429345797
0,112354040824545
0,114430196530045
0,112025383489442
0,116729522738982
0,113348164522845
0,114345977178591
0,113012673111721
0,11555702963733
0,110400461345666
0,113953842943454
0,11140848012702
0,113716015979159
0,109898177938449
0,11270820518588
0,108063346643741
0,110340782350771
0,110278687997165
0,109392069837368
0,107881228241721
0,112811569673534
0,107629480829987
0,110517074631792
0,104909808156526
0,109535542153994
0,110447013787834
0,109428124332459
0,108220282041418
0,107380127088297
0,107794527130205
0,107458984655267
0,106113044377989
0,106726012257093
0,103799398691118
0,105918444559133
0,103093558814721
0,103485285606926
0,101337155554129
0,104827380438019
0,105702315792593
0,103344344596398
0,103600099105225
0,104427558962446
0,101575201956333
0,103703651859068
0,104008811969522
0,101906748098651
0,1016148957382
0,100474078499538
0,10080182675665
0,0996047729110558
0,103195579918971
0,103784611262621
0,106391711656793
0,100115694439794
0,100671259553719
0,10044351154164
0,0993052707982863
0,100641428825869
0,097075842664319
0,0988367799544227
0,0969319013767491
0,0986265744848493
0,0970251033709457
0,0961345129262792
0,0948255239514096
0,0988695529730613
0,0991634498167546
0,0972288935917967
0,0973351600682033
0,0965768144589452
0,0927939566786052
0,0977020431517224
0,0961653784496626
0,0962715158818725
0,0951676758059156
0,0943213525694173
0,0938255715849821
0,0967771969438829
0,0960262762195408
0,0981410665485151
0,0926621233728573
0,0934008219971549
0,0914950756517744
0,0954547048059772
0,0900038154957131
0,0921892665958652
0,0906601333555315
0,0925501614719872
0,0903019635882447
0,0937276457932607
0,0914886814163431
0,0916954504958961
0,0878237031190726
0,0913720015124999
0,0884153964885429
0,0922983375430329
0,0867982357496104
0,0915573968433074
0,0888484665083229
0,0909993344470263
0,0863525310402106
0,0936698217034238
0,0840146247746132
0,0935182819761477
0,0897830765708712
0,0953085897582848
0,0885829939905976
0,0890717948410801
0,0887263808057139
0,0854295572346378
0,0876847990461401
0,0871578388233965
0,0862303819231656
0,0883812988008691
0,0870728938330369
0,0866488811994984
0,0858293287835383
0,0851524811833673
0,0872077318014408
0,0857148364591835
0,0845441761895776
0,0868508404338164
0,0851368366409132
0,0852981505512223
0,0868332196756919
0,0895842924184803
0,087954363145202
0,0876981277378653
0,0840964925233536
0,0824313414481514
0,0893699767838839
0,0851424591863676
0,0899575962164723
0,0787154669312133
0,0879977124793318
0,0790163698282671
0,086597088973251
0,0815978904729361
0,0874014867505983
0,083184411761883
0,0846167773891402
0,0838953184314882
0,081837763158648
0,0828246170022188
0,0828103184310639
0,0828838218538472
0,0804745064965392
0,0817180442995982
0,0810228329266461
0,080832945221901
0,0815990916649208
0,0828772031735537
0,0853848115408394
0,0810331519354071
0,0846244338304609
0,0828553773844242
0,0845826848764527
0,0805052674588071
0,0822446926958903
0,0766632137692367
0,0826323938669726
0,0860327053135213
0,0829125935202677
0,0812796808379843
0,0773319774414237
0,0849108564892916
0,0798134068642204
0,0843360330899929
0,0788800568775946
0,081723380947699
0,0784808826033663
0,0830995049469433
0,0793169569006139
0,0823845644576045
0,0761966421995776
0,0806718168626171
0,0777661390006162
0,0799678303988887
0,078123082681586
0,0806817658280204
0,0789902306318456
0,0776674586018832
0,0867924781950018
0,0866349813652806
0,0891289246918554
0,0807093159343769
0,0826337005539264
0,0789977410139614
0,0804528386067094
0,0808221070937444
0,079220623933631
0,0811078807398945
0,0808212345618865
0,0800317840553671
0,0800502686874127
0,0831600847278401
0,0801441259483981
0,0824605241394452
0,0800381753133716
0,0811890768490562
0,0791313920469623
0,0803704611149491
0,0768874647080591
0,0835901364293258
0,0776149628103174
0,0860961412990274
0,0758801560377342
0,0902334808575476
0,0706504324466553
0,0987237718521872
0,076408256201124
0,0907640552878113
0,0770218832559009
0,0856346806603388
0,0806471773417002
0,0798152150868276
0,0795767519281642
0,0808424824966603
0,0801700763824593
0,0825439179386477
0,079041149624296
0,08341686547077
0,0822181927396761
0,0804353074218858
0,0843359322442674
0,0930841497662484
0,0901668575433813
0,0908851651931996
0,0763950465612628
0,0874113925760609
0,0881059507562323
0,0882287476332331
0,0856091677980309
0,0797255644937211
0,0852756694799533
0,0823739680823053
0,08556941705279
0,0821970807309231
0,0877357992344746
0,0846519833041847
0,0855206492148633
0,0839782250762496
0,0836585625738241
0,0856736164844614
0,0839228801375152
0,0901542172353623
0,0858198400968673
0,084729899491343
0,0879339382184831
0,0863673076525061
0,091279892602089
0,0851687503742681
0,0882810876640165
0,0861316027107211
0,0912888071694414
0,0907776903947362
0,0917274971072203
0,0936276089543694
0,089141548559547
0,0892955920417285
0,0905335944456911
0,0880334186873849
0,100921149144504
0,0832821871585591
0,100371823293355
0,0947017909124854
0,0993423592144827
0,102262620346795
0,0873124847045639
0,098460771875114
0,087944286651226
0,101137849458352
0,0868905117184646
0,108901554252921
0,0868901901305252
0,109002167111287
0,0842555049053794
0,110206381298054
0,0886074828802547
0,107149873640798
0,0942805897238316
0,104685275904646
0,0943451536525187
0,106004857111876
0,099077076832365
0,104927971204403
0,106676623847505
0,108740101920255
0,108309579176695
0,0992057996441648
0,105597572799207
0,114836540255822
0,0960479324904922
0,117205406753255
0,100818585551975
0,115953144335114
0,101493582237996
0,116429628075889
0,120893035440641
0,116925522694135
0,114724214858059
0,114569971226536
0,11351444262256
0,12880616155926
0,117175917070415
0,128104992198469
0,114968296274398
0,128961329927086
0,116240156215375
0,147790485639851
0,108380426992499
0,148600630639272
0,127269891323478
0,142634630170102
0,13864367195702
0,140505660899828
0,137891788324236
0,142848861411937
0,146174501345955
0,142546526513401
0,139409039553889
0,147420714825959
0,146487175329287
0,141402901219485
0,155255967705499
0,138869355933979
0,151777084996166
0,154407058850767
0,16630965170247
0,166375772497601
0,156065279193334
0,155472251157718
0,16979883055153
0,159851045723272
0,170879327874356
0,16066008422857
0,167361672576575
0,169275795793682
0,169504071415989
0,177741893901037
0,174155515839845
0,183480043283621
0,176895454489793
0,184903804406331
0,191153826728661
0,204223490593398
0,213011459959459
0,190824845254371
0,214783887985202
0,18506431677839
0,215912593896432
0,205660884440251
0,217064928206055
0,216746792395365
0,216897835587513
0,223966157627839
0,222105304691341
0,242445571838802
0,233430844351511
0,245414665915565
0,257058457709324
0,248337178989607
0,260659408437238
0,248747161845132
0,320627205343909
0,197691105548479
0,306097552880635
0,255504381476631
0,298824389838277
0,294891852926961
0,301477767669603
0,301396389933386
0,302076774628868
0,307901773796348
0,316781352310277
0,323323132521699
0,333326365161231
0,329219964539421
0,345278690632116
0,344019748393063
0,36213579886552
0,360629298134603
0,410713891481799
0,375585963790388
0,374555591488385
0,38136250209024
0,391633942864882
0,390891710533149
0,406555913219837
0,400405059587163
0,421398625388242
0,434272808361482
0,430571116383183
0,448807007912719
0,432760847196328
0,470079865562199
0,440636930880156
0,488073857575151
0,444533587316068
0,497864979320164
0,482714266187228
0,491766272630514
0,494856619882658
0,508429759180296
0,527654756713998
0,515664683747327
0,531414614013167
0,525911486486552
0,543834164770071
0,547052288420928
0,555900938774803
0,564214718262553
0,562499779452554
0,572436511696127
0,570881476804323
0,655507384665891
0,597971216940788
0,616428200914462
0,602916779010443
0,605560050159043
0,629052971623641
0,605114616928888
0,650121511899628
0,620079636279012
0,636941053731931
0,635709626689358
0,639169149436036
0,65386272093053
0,639727518558643
0,655038842757152
0,653495198891024
0,662551831205836
0,656863736738727
0,662900847023073
0,681082242859042
0,660830625606483
0,672521867859224
0,6408940709103
0,650066594015061
0,649032288605933
0,651856412367404
0,636642037346772
0,651506958149128
0,639612805667704
0,638264673165976
0,613070808569443
0,633931222484536
0,624195005994619
0,625658411934781
0,613182371819373
0,596934586278517
0,59591003766743
0,587276746627833
0,581839984983049
0,60889629144061
0,590702921961651
0,576618988240611
0,542980667800976
0,551169425573087
0,532287113845882
0,536460753786736
0,518666324787284
0,521152262864075
0,506700957356049
0,509578732403488
0,482574073188134
0,48559482406754
0,468465181896926
0,470824801179675
0,454096008983245
0,458999587667788
0,450105326034997
0,441002451117197
0,435589589628963
0,436780674872479
0,424528683714002
0,420399139818094
0,421487357831852
0,414099070198615
0,400361348693016
0,401659788889737
0,3902664080938
0,390767904183673
0,382206541445856
0,385125619534432
0,375527087749806
0,368981132676242
0,368970520187833
0,3672538205749
0,361122113356825
0,354393105354995
0,357609622558122
0,350287126997087
0,348748955437841
0,341689769874431
0,343909620025504
0,330607813484716
0,356477995801377
0,330059051473593
0,330534884457332
0,334586003860496
0,31657792135896
0,328767022023775
0,311188621209163
0,330565428947574
0,310496457589891
0,322388993799104
0,309730148016162
0,30938478907823
0,307129670261765
0,316377034785789
0,297778110535945
0,307131116385187
0,285252202036715
0,318599305751252
0,29450436537891
0,327811315515779
0,352148270513767
0,297789538348699
0,294425811942384
0,285744338466406
0,318279389526915
0,275499971903291
0,296751544414382
0,270179852134086
0,289327910019264
0,277770099861598
0,281678993631411
0,280793665732898
0,269359631884123
0,279904840174581
0,290304339984729
0,276814357028004
0,280932241333041
0,283551852276959
0,269331072640277
0,286643719035017
0,275121384275451
0,295104981419326
0,26346678265719
0,265473685474671
0,256420078587228
0,257494314164873
0,278775860383035
0,246738145401031
0,271430819018139
0,258606233796959
0,250759490125283
0,255891375727492
0,251863678663924
0,261918132711874
0,244490378292423
0,284939346862602
0,232458734422529
0,263532857028699
0,244903569340496
0,267836610919843
0,260532046569533
0,260430411256593
0,242984063508202
0,247759725849897
0,264562486208533
0,248798190480116
0,259528478223309
0,237908720063751
0,235370674959646
0,247137181975422
0,228701889756527
0,243799489664622
0,244626717344085
0,244626529431346
0,262494095091899
0,238046440524629
0,26321532249835
0,236885958486882
0,230575930250694
0,230906810761606
0,225076951761003
0,234136298433701
0,218308821004011
0,236687396635371
0,243708744648285
0,223809104091247
0,249755186533515
0,210493118648203
0,230475488749325
0,220746260662376
0,222459358410332
0,223606859333283
0,225073070453958
0,233602609199213
0,231192559339266
0,222239491771141
0,238484504433322
0,21993528096088
0,233176045126829
0,218294347195413
0,229390213792535
0,213684250440758
0,227360392268581
0,220949098439749
0,225447232698527
0,220703594075518
0,223262134682124
0,213704199692656
0,25139411084699
0,205227263802339
0,242269628411314
0,216286492305067
0,244990394660542
0,232222078306453
0,227144785707696
0,229236928591334
0,221139674837832
0,229648674819237
0,225409210774614
0,220649313413974
0,248941763330181
0,219795224029377
0,237450356661339
0,221436151479807
0,233225289062406
0,220817557404197
0,244234830554341
0,226181810196208
0,240649220898055
0,261338150620814
0,220753347511295
0,246291937833571
0,224459331617077
0,234026536242348
0,220459818659416
0,22561196017083
0,22865379194753
0,223121468241327
0,241226518591397
0,229694874294532
0,227479548795942
0,229179847572086
0,223089209448612
0,22859501212916
0,225345551388341
0,231649426699534
0,230021020811738
0,223113895688337
0,227647182306328
0,221766539698821
0,256577262559793
0,22066352547658
0,230543575238204
0,230675899182496
0,22647823401276
0,234226249343482
0,222627836576301
0,240326570906396
0,235189099099356
0,228795355471628
0,230491967233322
0,222027985059855
0,229528590617929
0,221332478265596
0,239318557811873
0,220574136042612
0,234552951904034
0,22605589971289
0,22623752033817
0,258204352992373
0,215162656711636
0,246098091527024
0,220205523809438
0,239235155076904
0,222613991210213
0,234481432739198
0,218961378616381
0,234017886139347
0,227491077053468
0,228525686288381
0,225226311180619
0,22614901698207
0,23012076755479
0,222226143800472
0,233611402593891
0,228067555893062
0,2269615441236
0,228974285608063
0,227839308253012
0,225173617530925
0,226843401950252
0,237909959654171
0,22091124668183
0,234285055579159
0,219655982603027
0,242866986571085
0,234591566025545
0,221969107942403
0,219188617352914
0,224251564708903
0,219974561746629
0,228537940388809
0,217070356566458
0,239747558801459
0,225786661937321
0,228456140944027
0,220696492816168
0,227919910023534
0,216557404156223
0,228707009760029
0,221854725249895
0,229832387708943
0,222067347857993
0,231229685283868
0,223051889683711
0,227042146664121
0,22856895748589
0,229507519395446
0,235964370253567
0,227819649005874
0,22499878937736
0,231613673354545
0,219775298881562
0,232073360397575
0,220751886453549
0,2296474866306
0,217546248199792
0,229866537669423
0,212869998218251
0,240794076950601
0,222182446502773
0,224846629933728
0,226701727292905
0,217977136272165
0,223151922506314
0,218020653284833
0,221733547627642
0,21965571663826
0,222130223787218
0,217668635966915
0,221620874648289
0,21976662817854
0,216798853616409
0,219734596265353
0,21866889710422
0,218368504019512
0,219944960053971
0,218534128902759
0,219352323969317
0,222842832746413
0,216697390492938
0,220851248297408
0,216924148912709
0,219439081855001
0,225416759840145
0,215979356097822
0,226980030004633
0,218940106858386
0,223209329436478
0,214704512612419
0,219420792071582
0,216820780510334
0,21932404443383
0,217702975831109
0,216624675260809
0,216764716928341
0,218439967295215
0,217324631180393
0,217628645561921
0,216271953049003
0,217730066200095
0,217801514714574
0,219511724353448
0,217670224919595
0,217077947548323
0,216324475272405
0,215199238575737
0,220709589786542
0,216488216427253
0,221332475934932
0,213670391840187
0,217030892132382
0,217360800132183
0,219404523500092
0,21738779059731
0,214181618287572
0,214891330492336
0,212826577191814
0,217131344400646
0,215748328254669
0,215234180519567
0,213084045187556
0,214142826784426
0,216507634504541
0,214091645646636
0,21457206196606
0,21426170510089
0,214901990015343
0,213550667955017
0,214302619965124
0,211393611508731
0,21421166385547
0,213168598203865
0,211284150407461
0,211389165606952
0,214031589942251
0,210541889568721
0,212223391121527
0,209643900580167
0,209725977582257
0,213191018380813
0,211037641380917
0,210672067333412
0,209595944332985
0,210956756513446
0,211510133826717
0,209491652745507
0,209348984797908
0,208632451540484
0,211092671942074
0,211331745354457
0,213988129895958
0,209074914979179
0,210797359815685
0,210903254631028
0,216640230196188
0,210008325952402
0,211822616131609
0,212431960295872
0,213202920184143
0,214838584988565
0,209890521906554
0,212126272813873
0,211124293708778
0,211711238220158
0,212868911511997
0,214115663274346
0,21156035463328
0,212057894715867
0,215901544515737
0,215244862417137
0,21376917698073
0,211387390295118
0,21424005478911
0,215612424554026
0,213823310345391
0,211376211467115
0,210202993670867
0,214080140980458
0,214815820493767
0,216113354758619
0,210120861817968
0,211517408716977
0,207805532675882
0,210698044040774
0,211743047670353
0,210576326777344
0,214313887954693
0,211275301690529
0,212796310327561
0,211913135730979
0,21168895349437
0,212332921664793
0,209625335557787
0,21158423500454
0,210273287182005
0,209057980807906
0,211037368118333
0,208669803605158
0,210208021150677
0,210148676509541
0,207055968068482
0,210522895625883
0,207899220516251
0,207695390880858
0,209539589938546
0,20919876397179
0,208727627076418
0,208768115269169
0,208110353997941
0,209143049279701
0,208136742016287
0,207357894485052
0,207820206387814
0,210298271002051
0,20787799966892
0,205573281047656
0,209549085993962
0,205871343756311
0,206109527184645
0,206066101064526
0,205619931639803
0,206360312574402
0,2054684933641
0,205149570304123
0,204242197598462
0,203476219888647
0,20273557049261
0,203935342494948
0,203475972424296
0,206337066291615
0,206323186368663
0,203866824767532
0,205585003486963
0,203424901004468
0,203898371200416
0,202051549323425
0,204747629681914
0,201007422445933
0,202982780069493
0,203482016033765
0,202989931555444
0,202161401289855
0,2035266964488
0,201528959012239
0,201820978306783
0,20269783607432
0,202019673722663
0,20233908580736
0,200604388768736
0,200902034950759
0,202741915428852
0,202247155765337
0,204130083163844
0,201776015828388
0,204792536682258
0,202065160801735
0,204103466297592
0,203050548764578
0,205741470272501
0,20651124676745
0,206629101189788
0,210234625553612
0,212246180820457
0,212791405383299
0,215021517217259
0,21503160011022
0,216228189315556
0,216424999004544
0,220925135253231
0,220778868388763
0,222438614101376
0,224340867508824
0,226672951515098
0,229408183160741
0,227855891677296
0,230291805052617
0,2322547907506
0,232588813921216
0,232460168499762
0,23261059586445
0,23544530368347
0,236274803529862
0,234065580232375
0,233107576045831
0,234503875605168
0,234966754963678
0,232309273948964
0,232320310130855
0,234026379579106
0,232983535935884
0,233406327520539
0,233227365062599
0,231646245642005
0,231281957848356
0,235839169775478
0,23051931271708
0,234064134119817
0,233164722906351
0,231420581592848
0,23124978919714
0,234271663287568
0,23240232170624
0,233531051404909
0,23519835341673
0,234751260985469
0,232309708231105
0,234572952087712
0,235553238820393
0,238184162493306
0,236926085016712
0,237224913675489
0,23769647360587
0,241836004056019
0,242676797727081
0,243712973986685
0,246127711284609
0,247283909804169
0,24802147371927
0,249398623509147
0,251106669944687
0,249487292454136
0,250582992818328
0,253616410498555
0,251953475829867
0,253491465102931
0,250539505525531
0,250168633647379
0,249682625942859
0,250658719094172
0,248702339216452
0,24950315714092
0,248047064785484
0,246084981704411
0,24709329478329
0,248377990817911
0,251278818888549
0,248409726291274
0,251114993179774
0,254642343698163
0,256395797363032
0,258554220814658
0,2580509877975
0,259953136254356
0,261490061873028
0,262807966819545
0,267512166396305
0,268361043029488
0,268287812325077
0,271110269746945
0,274022856658991
0,276277325905572
0,275108974438578
0,278229387540403
0,278133536132057
0,281119970346299
0,284058335308442
0,285187698579429
0,287362649513654
0,288338207875567
0,291708397577759
0,291511043945085
0,294965118067223
0,295787044056992
0,298504227202505
0,298589003606751
0,300444799785328
0,303685719248233
0,303243128256828
0,304253695911064
0,302220685260484
0,306028771749247
0,305824451296099
0,306237964082278
0,305039722151659
0,300446815508726
0,296823466229958
0,295669733242083
0,298536826500293
0,296345776311686
0,292891647283994
0,292381626272397
0,288667516777729
0,288884924493753
0,289173248833597
0,290144464884459
0,289136339963217
0,290530140969237
0,291052179597241
0,291443519388951
0,29086266505794
0,291117682179796
0,290834924651003
0,292917379426772
0,295357923183894
0,295273810927796
0,297233774587665
0,297130809039946
0,29650294329178
0,298828725331499
0,301116428850776
0,2964687823327
0,299896877740503
0,302982858229601
0,303325433257869
0,306463803784592
0,305565702961939
0,30255862312224
0,303172861429404
0,30231440737754
0,303439702041973
0,303794059398628
0,302465179885885
0,301649038286782
0,300178494866936
0,302408943878665
0,299820371538741
0,300289090064181
0,296917983860313
0,295192108920322
0,29722609816022
0,298348224871389
0,294841273293323
0,293334153729625
0,292643959191898
0,292530964179385
0,290743052353246
0,29096318807939
0,28844459299105
0,286504865188011
0,285113111648342
0,282747843072444
0,279326181408086
0,276567666877478
0,274639488866768
0,26925598059072
0,266500094888082
0,266035213651924
0,262301861923174
0,260783493118292
0,258348005638624
0,255742522636399
0,255590661128354
0,252305643504427
0,253102418989992
0,252706336307233
0,253153828352185
0,252781327823642
0,255468905209833
0,255348575794802
0,256066082597633
0,256550349313666
0,257135017761764
0,258583424366453
0,257373208735055
0,25629224637853
0,258260321270572
0,254826264953286
0,254897544035161
0,258452516828097
0,256434001684215
0,255570804699319
0,255323620395132
0,252141285997995
0,255216372025498
0,253804556606204
0,25136295698688
0,251741134888778
0,252154212714303
0,252248801863884
0,249882822457525
0,251813300503437
0,25081012202285
0,249921557649558
0,250130913957412
0,249954494317728
0,246895366263809
0,250254551137532
0,247242546826561
0,249123670097416
0,249045832486024
0,248298055499801
0,25015578183269
0,252230791616257
0,250881972757072
0,250940767425279
0,251708822046942
0,24759977830943
0,250511333893369
0,253210893776714
0,253143310414685
0,255461409426722
0,254758115530486
0,255166396355038
0,258279402200326
0,254576977884411
0,25753666074942
0,257244435633214
0,261586474199335
0,263431227746881
0,260910711420132
0,262539701194999
0,267399584645583
0,267398316606973
0,267667143929947
0,269708927034656
0,267910367617334
0,269708133493917
0,2724414687737
0,27336289412375
0,2736993517691
0,275654552991998
0,277205367647913
0,276028085066835
0,278537486187436
0,282633484867212
0,284295778030624
0,281684173379082
0,287272594658854
0,285808544481752
0,286773551748574
0,287984082551198
0,291939740574849
0,290175021895207
0,293735066544644
0,29673804741644
0,298524581004178
0,299788783331991
0,299505984194036
0,300425159656106
0,306343058633272
0,311540765377937
0,310083243203086
0,307373653065505
0,310650473184153
0,310956167983276
0,314965714301991
0,315876394266971
0,322391803990006
0,324694550812221
0,328851509286765
0,321356775997312
0,331815726885824
0,327186884967989
0,329658185781821
0,330165977649453
0,335953838304739
0,341011033808898
0,340091963139471
0,336942284383907
0,344477724968966
0,349258227917361
0,344700670051033
0,349421486975613
0,355705424892881
0,356988663238875
0,36279953110224
0,359526327605829
0,359852611971571
0,367345807137531
0,372703630647502
0,376771106385159
0,384509652559106
0,378294980369425
0,378073994520433
0,382569512661042
0,382225254352123
0,382714200418687
0,387922894632338
0,394824616359342
0,397714510372276
0,396375387963349
0,399659851592251
0,404316483017586
0,401651443421853
0,40054898532092
0,411426167361521
0,409885125131209
0,420006130374535
0,420113999563872
0,421195213267837
0,417579947103566
0,42928682162675
0,436672716392445
0,432048752578913
0,429563993537845
0,443661996643018
0,437235072507357
0,443597816885113
0,446012911107749
0,450031337584063
0,454335072519951
0,45214865316341
0,452235270953552
0,45766082404657
0,464062011860275
0,470270571331972
0,473841566174329
0,467926943168754
0,461389720326385
0,472252189300796
0,472987368354817
0,476438577887818
0,485804452845766
0,498289006730434
0,504982961580114
0,498182820179074
0,497615610986479
0,493784068302419
0,498933984832232
0,510499523976527
0,499478723477098
0,50774473659351
0,514797434787985
0,531176519899004
0,518334395326374
0,527449401273375
0,52050691437936
0,543998022740265
0,539380760029791
0,533755957076958
0,536004516752239
0,562819270728628
0,559748458568637
0,562334542247579
0,559165206912775
0,564561548072542
0,552155343138402
0,566937177101523
0,565774208126212
0,578230273296946
0,583776137689264
0,582671258434661
0,593342725035109
0,618228409811375
0,598807615418801
0,594352912930974
0,588058442844446
0,592204565533448
0,593532225716345
0,616723455076404
0,611007064658379
0,613630838810155
0,622646188298844
0,621188392388094
0,620332181370861
0,645204130977682
0,628646004777456
0,624544139557923
0,624132807714881
0,663856128442509
0,64776106140153
0,650463958701501
0,649222841758796
0,651297865956633
0,661932400088728
0,644436110495765
0,669794267536321
0,685084261678747
0,681073495967212
0,678958966149145
0,677544910329509
0,695455480568769
0,682231327168571
0,69015849426429
0,677772527447484
0,712583119788377
0,720739490706078
0,691585150715909
0,694761683887152
0,754228567465953
0,720362268183965
0,716377910912331
0,728183440977692
0,747936712699449
0,746207505273289
0,726723446048857
0,729991833052572
0,73250175757059
0,733982123194564
0,750710331980993
0,750648041229079
0,740624899646534
0,765940503046034
0,784205334330716
0,763352747636231
0,77415507418171
0,781612267167019
0,824007843945229
0,776935142370356
0,782726815085263
0,771338665641101
0,797798396545162
0,8059057148865
0,79276729889364
0,821475004427788
0,819358927299862
0,814586997919683
0,814332076685448
0,855775044496185
0,884814993020526
0,860325343156526
0,848693815042487
0,795277141574539
0,865348646278204
0,855157108204965
0,910400763768536
0,855546228272445
0,881399188772113
0,886983049228987
0,823312162672941
0,857567765622008
0,911870274493324
0,86250207234402
0,828216671036519
0,855360672511877
0,865939494482772
0,840465084156282
0,962596894696337
0,962079606579066
0,935900143940555
0,900654140550757
0,960005838664606
0,910582986730917
0,934040435674864
0,874272146039852
0,9557585404708
0,972205113007424
0,922867498816953
0,93453298953549
0,946250469278136
0,888834755069802
1,01031614884125
1,05352293003263
1,00890593161848
1,01100335106853
0,994035047931614
0,965865035041287
0,930898214858392
0,957998797846276
1,00873059524841
0,967690612033482
0,983557621125008
1,03638669341591
0,956849577069588
0,970373084883977
0,988794773064357
1,06475848696944
1,01840896429898
0,835219971429497
1,06635658034843
1,18208520906009
1,08228045598343
1,00890091855102
1,03484438481042
0,974783587365005
0,945251171064358
0,934516506108867
1,10797971820085
1,11790783165869
1,0653788032739
1,22327767114425
1,47911076124672
1,14321046396051
0,98791846113727
0,959144636551836
0,95315322274893
1,08159621322692
0,990662730953043
1,05415326584606
1,17727309672145
1,19777703577729
1,09228022289645
1,03619389163638
1,10187216275148
1,24270238786339
1,16791082941091
1,0875217605502
1,302544166717
1,05686060170834
1,21047268894096
1,13744063627988
1,03413216181445
1,11151694552295
1,41463062669754
0,996474427062939
1,16143279559079
1,66943544105891
1,44765867848035
1,22724753831344
1,12502242802453
1,20551323369573
1,50661267608947
1,32160386440227
1,17846993063035
1,12468165745999
1,10088550609953
1,45535266140497
5
1,12605497189468
0,983815765337243
0,947744503767903
1,0288026540558
1,54363201648005
1,32901615525404
5
5
5
5
1,16878803356954
2,25577718158934
5
1,41049434315393
1,24167964087173
5
0,983351681776985
1,34442213441659
5
1,02930531917129
1,01444881926426
0,865938763803512
0,900660492017018
1,20014075794946
0,606821597858825
1,5375515728801
5
