3596
4000,36533379555
650,420452594757
1
2
2
0,0143077109444718
0,00541444822552382
0,0193294799553408
0,00963870811051594
0,008838589133805
0,00590937685828158
0,0168710927503491
0,0058223926317271
0,0127249246673339
0,00643398433454103
0,0104970906741522
0,00976284469996205
0,0137911544925398
0,00556484209585492
0,0135861731174644
0,00592096575553971
0,0140775493068274
0,0065269731477671
0,0110870017494726
0,011666824350752
0,015727332798889
0,0099908372038154
0,0104421272111049
0,00644281415348057
0,0122886156710502
0,0099767475571542
0,0176806350099362
0,00076817129845467
0,0135564353049635
0,0187648074762856
0,0166247702944869
0,00635229695058521
0,0142083668849596
0,0161385002930521
0,0099349422927311
0,00300817690819736
0,023287127431871
0,0143334817037118
0,0198840018899314
0,00192057044984042
0,0121424447464962
0,0020455940114575
0,0176279916010942
0,0139911796913958
0,0132521331963782
0,0114010153156115
0,016404594498962
0,00795932239311004
0,0127667766578539
0,013990346810622
0,0141528471788172
0,0020166938807445
0,0068557272168874
0,0102135887450354
0,019331788067985
0,0142795583367224
0,014995699256868
0,00520747303244413
0,00754453702364596
0,010126602856228
0,018837990115619
0,007717646025544
0,00716110414010344
0,0143317279944781
0,0124258255041439
0,00577181144368454
0,0118140907584899
0,0120521587093064
0,0180532703142562
0,00764030704440385
0,0136839795398464
0,011171114405995
0,0249758181970428
0,00236263489766952
0,0128775471141475
0,00474175128898166
0,0156765723020526
0,0144103651425274
0,0164037372833312
0,00144835808439587
0,0159295734954123
0,00445399941282682
0,00994311671484878
0,00788253554827133
0,0112339680964519
0,0104296851688855
0,0274241510634258
0,00249011975687552
0,0273797952585932
0,00408332836373619
0,0180582290232732
0,00773666354217944
0,0204747778085527
0,0096899919554263
0,0180830210449923
0,0123724213818245
0,0271979641024446
0,00303653178126052
0,0158033039076627
-0,00205501340394099
0,0286333695552934
0,00354611947574332
0,0391086835964392
0,0080522566809426
-0,0103427144355327
0,0226621900097359
0,00423729299916362
0,0147290402342059
0,0170521477184278
0,00604922270013428
0,0134623657460399
0,00331759636273838
0,0140682014350796
0,00127070362759608
0,0178410066899017
-0,00866042564134572
0,0380796287199971
0,00225773691037918
0,0181443367903177
0,00703176526542618
0,0243857819834436
-0,0172556299795361
0,0296525274021444
0,0016175485865714
0,0154152879000405
0,0065133485457566
0,0175268788456661
0,00657214421318964
0,0262093625734238
0,00261870533961589
0,0183856353197003
0,00776943760242742
0,0217266272638735
0,00657265734292189
0,0162429723069072
0,0163404106984139
0,00795661215466894
0,0130565829010876
0,00573176160858577
0,0081815445966916
0,011887501066437
0,00796050271968713
0,0208617181254322
0,00244513175279444
0,0317665076418847
0,0115998165973316
0,0155815747929026
0,0128323832465231
0,0192234770742831
-0,00160408937897421
0,0152179673801479
0,0104109505822622
0,0256990699352403
0,000109120360046937
0,0220641510271862
-0,035821456440186
0,0580520103349746
-0,00267261095417555
0,021591508723952
0,0173543081807594
0,0157284615842191
0,0219551845420364
0,0105463978589451
0,0102540414286118
0,00570929191340914
0,0135698326256674
0,00391623862370503
0,00725453575777563
0,0193086119336151
0,00708315394230103
0,0113549868841774
0,015765092638508
0,0159206848238502
0,00395760412909368
0,0218814271826519
-0,000968432979276139
0,0110064270755182
0,00844449003532811
0,0221109360248611
0,00422470796989696
0,0245872810278137
0,0138221981332559
0,00993423710812194
0,0164778633499387
0,0210988125262742
0,0113135200645324
0,024423598164516
0,0160013177526941
0,0138228554394098
0,00602285462744089
0,0169746862083571
0,0123900238214496
0,0205371719085184
0,0119576403008687
0,0190439584129147
0,0157594851787519
0,00154635855250919
0,0203677437996324
0,0183296890803623
0,0149731530202117
0,0170647914337863
0,00612395312164528
0,0211421578283292
0,00935080694256065
0,0176624561107055
0,0127273510852033
0,00195041153725289
0,0191864763327434
0,0114137163282951
0,0138018339988418
0,0178785116039684
0,024345789037824
-0,00942228595391404
0,0254226896003877
0,0136432814913209
0,0162054870418247
0,0160628302390366
0,0190055020387049
0,0149838525963109
0,0174467648646947
0,0114700683097402
0,00948537541274577
0,0199581192214504
0,0185199270466011
0,0169044247433333
0,00834751354159494
0,0148433212905623
0,0125347183259477
0,0202889303197374
0,0154124339127484
0,0185495119015038
0,0197128464040498
0,0239658421016943
0,013166322434752
0,0250173585924491
0,00547004679809508
0,0210478756496206
0,0110723648237529
0,0107390647190679
0,0168332158982101
0,0174960474398482
0,0180519616931356
0,0200172771704029
0,0118999709548857
0,0169129842828641
0,0194977142792517
0,0160623260874649
0,0344227900692286
0,0168152725855799
0,0243730546008499
0,00101591432938337
0,029073007359079
0,0140350519360498
0,0209086503943439
0,0114504143396524
0,0198896071080035
0,00511508168933178
0,020168619238284
0,0230074416749259
0,0229759108294302
0,0109371573415365
0,0199930487760294
0,0136713194677561
0,00925410322370063
0,0248243022950261
0,018943359088281
0,0309116112395926
0,0104012824336912
0,0116313369434475
0,0331552113939687
0,0106628991836301
0,0177596893490899
0,0250619337007586
-0,010817760622417
0,0313741600228823
0,0257741880732955
0,0246796510922605
0,022685006995468
0,0262703284737473
0,0129558875848873
0,0300167846796921
0,0297528331397252
0,0513841309647831
0,0325054544405593
0,0194398645980789
0,0381275530605339
0,0161528060937874
0,0337779975778958
0,0223943621955356
0,0361768175237454
0,0230692278735345
0,0296646406409256
0,017923403523434
0,0309615923410087
0,0262905667984803
0,0260502106829137
0,0282629426707612
0,0300334980157568
0,0263270511845086
0,0209789982772006
0,0302904620152077
0,0284022552985827
0,0308624169077034
0,0210878072878742
0,0366007434709964
0,023220798980642
0,029789592749152
0,0229532980426368
0,0228779279613904
0,0392893700557584
0,0408281093596406
0,0323987505336223
0,0463817961424787
0,0378272019873777
0,0343694512668303
0,0319517016086228
0,0397685595688691
0,0270595829930764
0,0442422791223442
0,0357083928623271
0,045551709150957
0,0317588581820742
0,0512710798785679
0,0437906663094687
0,0386675110511827
0,050249977553422
0,0465093283559596
0,0532117811466444
0,0500959013150008
0,0482770142360425
0,0415103456523072
0,0456687965855821
0,0651239311871989
0,0329925641875015
0,0648025518240687
0,0564592893679224
0,0668450207611589
0,0604555928058242
0,0658383986469139
0,0707352857222906
0,0648112912252237
0,0653735966197764
0,0744216376184112
0,0742768214481071
0,0687957575420268
0,0819309835973787
0,074496445510052
0,0905721484034601
0,0782040741816521
0,0847429187549823
0,0687217759159636
0,10090365511858
0,0679745815355066
0,101485961880394
0,0938532392135892
0,0852887821060641
0,112036274317672
0,0954225603883229
0,110579828541576
0,102377802551546
0,113042678892541
0,0992526761585537
0,120921573265775
0,107582664694611
0,120789664044703
0,118482156036974
0,125389953796151
0,128959547780791
0,127264045936423
0,130390024376072
0,140937853435871
0,132581714871587
0,142181006260928
0,150208791916206
0,1480458061268
0,13540341920071
0,154737886263406
0,156018099974355
0,149716733914208
0,153226368265546
0,154174861655136
0,167789716253681
0,157358691692772
0,170040743494842
0,168481757291704
0,172153655630775
0,167694383690762
0,179263013429086
0,170996984922059
0,184383107205206
0,167582882018863
0,201301848155285
0,174689840560717
0,188643265790833
0,185877623516793
0,198805652728356
0,195954596246322
0,201019193855407
0,206092094813241
0,208431131695108
0,198608536752839
0,203649386855999
0,209612439125924
0,20519088768258
0,197897770648864
0,212247724985959
0,229359076219209
0,209163492198237
0,216441089961859
0,223527684973912
0,20971068643872
0,235289002876943
0,21319783018654
0,238345444256528
0,236238008172493
0,231085137614893
0,236505173251229
0,25198637550532
0,226215947206074
0,231185447806486
0,257686131742574
0,236774202087002
0,247401906588896
0,246490348623242
0,247202730119131
0,248972410419978
0,242470100211313
0,259202302434
0,266625778887648
0,265255360539937
0,260635180077638
0,269823911741393
0,267495080994726
0,279101312841963
0,249924795512937
0,278720789110739
0,265048226076428
0,288927832931414
0,280367909000862
0,300729704421829
0,28332503567762
0,284381775637796
0,282642214145077
0,258833217110762
0,289013814851647
0,282045679602668
0,280039196073552
0,294394036761373
0,292809083097696
0,302910798829321
0,300224345691044
0,303734222234152
0,302654294517331
0,302015481585967
0,302096766885501
0,319183625264965
0,310016781550159
0,328373928967221
0,294763452375764
0,322098467419127
0,311329740803356
0,311472744006889
0,34780855654723
0,332461980466295
0,345184479099719
0,328588376242749
0,331342657927024
0,34593601262948
0,336334987469114
0,344082267978543
0,344683035865054
0,345076530380195
0,330872319376327
0,330013922393253
0,352868630730556
0,358717021093725
0,341782444821058
0,369226304705707
0,360723263954598
0,364903756472345
0,350218391699702
0,378517374807494
0,346393804762898
0,376857499021161
0,367747855215598
0,382903722598894
0,359116096475202
0,371910402204237
0,383957732466213
0,385586720683577
0,381573012273877
0,38593605116051
0,384426570308525
0,398201672569585
0,389460740147175
0,410270142222344
0,39021476263648
0,4134299741087
0,407683239546078
0,40825833373226
0,402463579912975
0,421576442719415
0,398686919279464
0,425459277659886
0,420968412615858
0,429220890097218
0,421511614723269
0,429684964867068
0,419227218780497
0,414335030399864
0,41489658896906
0,443994986413996
0,422309720700074
0,440308462110903
0,411407039410715
0,472147107656416
0,417426052653007
0,455875366040951
0,431547338695301
0,452748869330493
0,439758456256492
0,469281030739736
0,45710702163762
0,477341508985478
0,470477223411863
0,475147498067152
0,466224408613385
0,483057938637044
0,450192015669014
0,460863058399696
0,460217679078953
0,506330048639962
0,454029774066478
0,469875718482079
0,469906343388741
0,479851072356438
0,479282684100099
0,488892790244478
0,482674410692653
0,518526091044953
0,474279655590646
0,522320565509138
0,500752154510383
0,513716864532798
0,488523387300167
0,521230706723776
0,509798150554242
0,523410086170004
0,505603373193771
0,570517473946072
0,519017776721135
0,517807440629519
0,511924981757507
0,558456362215952
0,534121625953194
0,541968333106388
0,526641802673247
0,545628357737239
0,524481400067909
0,541451012679225
0,54369367487761
0,536065979215845
0,536563374347248
0,548674008483
0,553544927280401
0,545736793737963
0,567186001134601
0,572027328489891
0,558206971807254
0,54796395795443
0,541187417161447
0,581008128672836
0,566756922187581
0,593942005506274
0,561981319890403
0,578322786788213
0,525522312681004
0,609893956298503
0,58129637507216
0,595898660775926
0,589721581112359
0,615584930521057
0,597272901618096
0,627768485044903
0,599114713760007
0,642227324665403
0,586630845330033
0,599788390739032
0,59913321998143
0,62207257913007
0,592363698075746
0,622054125942827
0,609994500920576
0,660979332514914
0,619308086692952
0,658010326481383
0,609651012074771
0,668688498701913
0,61421673719191
0,681928856626424
0,606540014269193
0,624817469673331
0,61844775182524
0,652783015513567
0,631873867951473
0,67652977478817
0,625993272192184
0,668557896191971
0,627706159940139
0,665242050343334
0,667501461757458
0,728423295184578
0,667527329383734
0,703979376712328
0,628059796746468
0,70122728543566
0,693881094492624
0,698291778971052
0,64728106568898
0,67867629619323
0,67268629989201
0,700709180219728
0,669197599229082
0,726855986848852
0,66402269504883
0,74089586609304
0,674324086339376
0,67628703528459
0,642379115532784
0,719957899811781
0,698934892533799
0,744693453043964
0,697912934396836
0,693649971038316
0,68133475677619
0,727936593364692
0,674203967207768
0,731683824843127
0,733947038847231
0,74545455251001
0,711365020699016
0,764120906360347
0,70811003719389
0,74492722804027
0,696074729258196
0,760474227809355
0,721430524960854
0,739862958360163
0,724558580130358
0,729277578800567
0,700245976223583
0,758569394019793
0,726291151292019
0,748073831794028
0,774498086973491
0,771110428075571
0,714931110737179
0,788941287352643
0,716098613120723
0,766865570421748
0,729275437961233
0,792566532603423
0,732539065687177
0,783712284595017
0,744490217174786
0,80517342771193
0,76544079872495
0,79289823886493
0,743396857653501
0,780501542451968
0,741371836239256
0,801205510990415
0,744705631722796
0,803059574063273
0,716222994688343
0,803189815088059
0,730102639833614
0,792016547871278
0,757847683655822
0,785032045189395
0,755971513527604
0,791749662467251
0,76573401777305
0,781875953953653
0,777034588829461
0,815170233716457
0,769533573407562
0,789088319974173
0,745257218179912
0,798115568068879
0,743204690547766
0,824947015431798
0,77083941946409
0,780435733026271
0,790157708229249
0,77375703023227
0,759831405142866
0,812746631967945
0,761382483583571
0,842295994710236
0,74539242181846
0,793088986830347
0,785735361679746
0,773628379790406
0,75177484144302
0,838722244655338
0,765984234750676
0,767721053638206
0,761873595429926
0,773045556682725
0,783440631599269
0,779692556541965
0,771737025161675
0,796165160239102
0,802284604546639
0,799024303848871
0,776242637266568
0,79048968174491
0,769774987728089
0,822994215044966
0,76623534942136
0,810874704269955
0,776241882514963
0,813354269109903
0,744085855379936
0,834161613934249
0,75655866403644
0,80740286170384
0,76340869842556
0,808067930959645
0,755260829796557
0,79664326238765
0,767284753390163
0,815142579095845
0,783236795957243
0,802870899922938
0,784080939711128
0,781794630183718
0,782066130607016
0,800636061892071
0,770256796030267
0,783123377356214
0,800750718054523
0,813310702722888
0,771330221398992
0,787229049750861
0,76288763806712
0,81924154325395
0,76309246169985
0,817777507809766
0,767572681857055
0,799973663457181
0,742234227273315
0,774888752696532
0,761901319148467
0,806800895333582
0,78929721923181
0,830657009287205
0,778852919833738
0,805998816170804
0,80101216550589
0,800378775806577
0,777427950290905
0,808306916930399
0,775419398432908
0,810631520457155
0,80440600384043
0,803826982540761
0,790919757630173
0,81241221356477
0,773328244650595
0,787658732880985
0,7815085381774
0,821354123739918
0,777496134721083
0,8069310272506
0,762446981007789
0,831353605458128
0,766985844244789
0,788848618667731
0,811090579573836
0,78274644093124
0,759765734810538
0,813867567339833
0,797541934505857
0,812181516649004
0,773065841776761
0,77344856765932
0,796551074566288
0,794044659345522
0,748271973773774
0,840005108437169
0,767338949939812
0,806492485427752
0,765251502776014
0,794455699073028
0,76135670758275
0,781421730384938
0,780204973622674
0,82551629823137
0,766806439060232
0,790255395163728
0,771285297944335
0,807379717854541
0,751742732842103
0,799262656886818
0,755471571205785
0,797325659186803
0,775741551697086
0,794803713120063
0,75693960908774
0,809315698675635
0,784499967685354
0,802051356462044
0,773828728379716
0,807688116301859
0,779772081569408
0,781703796635055
0,761869521156362
0,779693051129031
0,768832313819684
0,815731925513723
0,748867102871268
0,808195468758019
0,753374449104959
0,791291639418848
0,746556959519421
0,767389650507277
0,749282731330814
0,781422079772971
0,760705209360124
0,763385601322883
0,75688499246422
0,767448946883703
0,750852345859929
0,763485260759844
0,751631623062616
0,765294309273324
0,717261360146878
0,794399318838054
0,759491656762455
0,749305692073457
0,742756567938287
0,7631144423514
0,721529735079357
0,766706568301928
0,750855586711051
0,763171941842248
0,718936743674571
0,737129760556628
0,724978053643088
0,749740550544554
0,727311119976162
0,744604729372153
0,716762305560508
0,750062522731345
0,719041378931494
0,743302696551559
0,719258783988192
0,74321278912911
0,719010393362041
0,714354835869779
0,70520897023399
0,716898046236557
0,704323851681165
0,718539322006529
0,690805784073124
0,715909536104019
0,689975993871064
0,702597990688636
0,683267695047929
0,68718565200865
0,662264696079955
0,701130367405419
0,68778690952178
0,699092096613782
0,675411296040589
0,69246163920619
0,662419043866661
0,673583171866511
0,664548282131264
0,683797365426583
0,650050174330973
0,678013774614659
0,655059106253798
0,67025636856099
0,655642607983035
0,656884958199938
0,643195706154552
0,675105104900265
0,630368793501704
0,646572680557775
0,636737371669175
0,650262165080682
0,636680717895857
0,640728554925882
0,601780386046888
0,628690232090589
0,605295499414596
0,620743833735305
0,604150294679109
0,615073065184181
0,597732973059307
0,606241088721217
0,579210296017198
0,5989528436298
0,594798527320234
0,609623208709357
0,596101042044162
0,596165024600741
0,564151950937047
0,590939476770023
0,580679518551418
0,582702011940382
0,569577388437792
0,568121685954991
0,558911758175451
0,578635762014107
0,553516931014804
0,561371647880948
0,557431435145447
0,569575863733586
0,538400077708318
0,550745208086002
0,537818314277226
0,543230288956608
0,534468644466283
0,542614771793259
0,530622506769214
0,527424839174754
0,518881148301218
0,535793761551156
0,515625783017735
0,51619387007252
0,50737900924699
0,525070514462865
0,50719662666005
0,503264763894999
0,492141576772251
0,507379847916759
0,491608319488032
0,493563470606798
0,467320603983446
0,488749275749896
0,481654092946013
0,484715114077044
0,467998829066356
0,484335618041628
0,468764583456438
0,477126261494329
0,470732385007159
0,476881489228191
0,452642377820443
0,4636475332429
0,449484502345846
0,455360163111998
0,438913623424664
0,451675089747263
0,444674294259279
0,452192391343941
0,435454196257449
0,443151680824782
0,42231431765517
0,434554893322519
0,432662647781329
0,430032996507241
0,415480008765466
0,42671463154024
0,416561330278967
0,422267251699339
0,409956317304839
0,41191517406317
0,403145878636592
0,402326840846897
0,398967673363613
0,4104902922728
0,393085450594468
0,402286389136531
0,396681733047154
0,390020582393033
0,386987556920985
0,387841938872945
0,381665719415556
0,387991950389249
0,37572913280737
0,3701368937733
0,366944178042188
0,375843431721089
0,368225576184908
0,369108422756358
0,359229311454785
0,354809626599133
0,355869683160248
0,35888530884394
0,346328863080122
0,348969021496076
0,346771974172002
0,346041139405554
0,341184942143115
0,352033041935848
0,34452533585155
0,341267299315799
0,335501199840777
0,333836504905814
0,327152714240732
0,332706089046537
0,327462169546973
0,32366435097464
0,315193320614459
0,320520924482592
0,318083088382062
0,323043336570621
0,318132955404174
0,31104979373287
0,311668451818401
0,307374571889916
0,300397279055373
0,303081083114499
0,297052032184428
0,310852132112384
0,293610125285282
0,300302035948492
0,293483882321182
0,288016302808135
0,285614961090468
0,289646524702692
0,281809999656792
0,284640824512712
0,276872494542767
0,281070254227614
0,273659007296864
0,279757392867415
0,271607287722553
0,275057340522754
0,268135460236421
0,270511932607417
0,263174212736155
0,267482165750208
0,261119724547586
0,265568890458906
0,255064792908389
0,260938448985095
0,254337548192925
0,259332519348153
0,254787015978157
0,255471944997063
0,247422789454575
0,249445752286497
0,243777102122879
0,241844150152092
0,232598014023729
0,244491886634511
0,235380728801844
0,235217486620139
0,238029975609384
0,233411403826239
0,227010981928604
0,229939520658622
0,229282910699151
0,235561683772547
0,221285332604577
0,224074770793919
0,22205792212877
0,22378204192265
0,217563478797381
0,216761163517504
0,212867995948427
0,220397590131426
0,214752092864023
0,212392668708165
0,210710975269268
0,209984703525217
0,204347947081744
0,211503738758893
0,205043556015521
0,201093745495669
0,202407374819447
0,206696128893952
0,20034199759717
0,200325162204819
0,197529712206242
0,195470157825595
0,193138506260527
0,19520140186488
0,18314526632703
0,190485437170198
0,193671515661071
0,191247842108723
0,185151109178072
0,187277617092815
0,185698751203993
0,18914615029636
0,181292814757296
0,182155678169823
0,175880293338428
0,180377568640383
0,17413979610346
0,180254484898993
0,171538227808615
0,175624533700538
0,174964166137951
0,174620848329334
0,166783761669479
0,171546452724166
0,169785265104565
0,168094937080008
0,166547047788448
0,166376089435628
0,161230961331045
0,169337366734876
0,162782187928567
0,160535866563064
0,156712636295029
0,159879413408432
0,158886247691915
0,161753689041355
0,157760984161158
0,161045832950588
0,157391772774166
0,159386345495963
0,151114470795314
0,150614467257348
0,150259970111046
0,153611720934419
0,153251813087842
0,155854305421784
0,144867130499973
0,149816762191681
0,144939674316778
0,147200098400677
0,141115007455108
0,144780600352087
0,143209021622983
0,142682699788303
0,143248309999034
0,143032292172171
0,141132128555199
0,141026295503641
0,137115243140512
0,140866094599409
0,135778940164809
0,139722954443345
0,136750266008959
0,135844991997422
0,131575546087286
0,139564685250273
0,134806900318307
0,128656308869881
0,132568571585862
0,133352462670387
0,1289806408157
0,133988413841304
0,1256256520446
0,128630871572603
0,125022671997964
0,129018789102951
0,128876348702706
0,128723785460664
0,125658734919987
0,124301305739028
0,1213603570349
0,121969766083724
0,118633891715748
0,121974153016611
0,115875951712634
0,122379389898323
0,118573336153625
0,120675460746548
0,115128002361031
0,11621042582561
0,116409084997234
0,114657101357237
0,111808289586925
0,114776986381277
0,107680360429122
0,111842935229544
0,108360205173374
0,108300204707521
0,107256819686929
0,112398372896956
0,109853800506996
0,10452461623376
0,106434582279618
0,110655009479162
0,102288762444937
0,104209040384501
0,100507952934556
0,105650431723575
0,105343997566533
0,103913213616178
0,104312398290517
0,101605124928263
0,100568070314356
0,103174879805348
0,0964438851441572
0,103795875153109
0,0967867758396068
0,0976042140629236
0,0981509958460832
0,0965117335536662
0,0952603978909742
0,0998807633395361
0,0966873443892574
0,0976127670750215
0,0966492482689687
0,0979496241298293
0,0930127907977328
0,091569677700481
0,0929764102906254
0,0933718009498431
0,0905117461278768
0,0950714348451615
0,0912499688463149
0,0918536549124969
0,0897366612220641
0,0890154496455312
0,0850913256579785
0,0889084216497459
0,0899559220653054
0,0882767639393828
0,0838651972281684
0,084330833472825
0,0827667349329947
0,0888824471919917
0,0861652934783935
0,0927913226361446
0,0867357945757203
0,0855407662470025
0,0823106387273542
0,0806185572728257
0,0830953492750652
0,0900339740278964
0,0832100177665467
0,0807930767935687
0,0772996892688412
0,0840190068654501
0,0809004935095697
0,0790893898068765
0,0798777600643583
0,0837636315899118
0,0781494948606911
0,0788418970937888
0,0756048502709534
0,0803060185722739
0,0782979443653942
0,0752896510147187
0,0746696374199139
0,0783706935083035
0,0742964678898563
0,0785768728974817
0,0751932717556379
0,0752716136293639
0,0754734835699249
0,0756269506442196
0,0718714357990213
0,0718626891572142
0,0736622605172985
0,0739677028754951
0,065103488609956
0,0744672217219822
0,0723087909390211
0,0715595298711759
0,0700138491217278
0,0710613529496489
0,0724388057631411
0,0692402976793344
0,0653710018179837
0,0691099119061851
0,0665906402874403
0,0691587770330597
0,0691082070696388
0,069355425219208
0,0641876618852168
0,0648782681789763
0,069067419742706
0,0695531754536047
0,0657248936111428
0,0663443667394924
0,0647332442738454
0,0651236668639495
0,063767840831144
0,0629862464455172
0,0618776685860955
0,0645881659846828
0,0640630561240361
0,0655764992230177
0,0673542757213034
0,0662234321144357
0,0630179830883835
0,0622872913520128
0,063418666994856
0,0670751128202501
0,0606530428241043
0,0630330723028147
0,0600614216275494
0,061429633778229
0,0637873893700183
0,0623611876248661
0,0576763512077142
0,0615490127354228
0,0605628952153105
0,0598894729675641
0,0615060749765849
0,063428227658935
0,061792129199239
0,0607602642880011
0,059053364551646
0,0610072572314766
0,0575757833522833
0,0569943453312196
0,05834611744777
0,059630884142316
0,0547601122755527
0,0576683554726855
0,0596938232256694
0,0624948872065518
0,0572139873453195
0,0598600069865974
0,0559590833752837
0,0574696713614022
0,0582847912231148
0,0572598443890118
0,0535215395079274
0,057922401491855
0,0551348272745897
0,056155562334314
0,0572484237066022
0,0581404631414726
0,0535290241462379
0,0586378180540995
0,0552331935915922
0,0549985133139904
0,054578221686216
0,0531406608920607
0,0536356122815592
0,0561105916511262
0,0570872463793588
0,0560636875270832
0,051486819712085
0,0538003488474476
0,0555165887292572
0,0524518936237174
0,0555186710005415
0,0570033087105267
0,0563963444589922
0,0540389757446756
0,0502418979913098
0,0511228947527346
0,0530443090359942
0,0532002817266446
0,0489529748422629
0,0514686559541914
0,0504497960047863
0,051968523931302
0,0522481831384397
0,0550513580954823
0,0515670059447486
0,0490076222997528
0,0535242327845177
0,0508945421596155
0,0468501624649212
0,0517012694886751
0,0507345323908266
0,0491346977018407
0,0499288731602166
0,0507563404518877
0,0493945744258567
0,0529358415893347
0,0507844165352388
0,05228146428173
0,0478884003739095
0,0474592986490601
0,0480672060309921
0,0481231040033483
0,0512382469809255
0,0530091236138446
0,0501056971496167
0,0510086629635746
0,0479787012442459
0,0468453071507671
0,0467400934891864
0,045976610255339
0,0489598859080823
0,0514275930919971
0,0461168106860705
0,0509310341376252
0,0488985270840259
0,0492506492419487
0,0470185174150018
0,0441596704791238
0,0457995849933343
0,0518494740499167
0,0497213655301123
0,0474076499739186
0,0497196574397889
0,0488201368903778
0,0484736249108192
0,0464741783365582
0,0443896863296299
0,0489987859575191
0,0493363754778669
0,0461193614708421
0,0454998409037038
0,0490150441279632
0,0475717358601877
0,0477068641359466
0,0478188384580703
0,0455284230619933
0,0459253135513745
0,0446241151998634
0,0461295853066907
0,0464531831823577
0,0418556356433291
0,045374564141715
0,0478904221892272
0,0484989601392609
0,0464958113861503
0,0425830028446977
0,0447765991819788
0,0482741331776304
0,0425577936627143
0,0416447141352111
0,0462487948146243
0,0424886120508331
0,0452270649674433
0,0472253421419073
0,0463560495593638
0,0460984779052781
0,0440979115213217
0,045760823466338
0,0452486007131188
0,0428427231688189
0,0464662685047105
0,0441296001401382
0,043700100751497
0,0426162298911671
0,0447457474994292
0,0491419544282618
0,0455810538816444
0,044283821816438
0,0395920969990909
0,0461902337074354
0,0443961518350427
0,0436302258689962
0,0427555132797508
0,0466584432593986
0,0418876915780551
0,0430800387567878
0,0423038770875368
0,0443847541835572
0,0456243144910406
0,0451519834927008
0,0434015802238427
0,0459534298382999
0,0460796206896004
0,0450365245150648
0,0458594879520499
0,0452161291154576
0,0442147077178285
0,0447972370330215
0,0436116643791353
0,0421476043543661
0,0457456514963312
0,0428448677019914
0,0417247612608114
0,0428739608343067
0,0439821252160107
0,0453975555924274
0,0428627423600837
0,0410871634242429
0,0438113644071863
0,0442909838680181
0,0435105759487351
0,0448160250717555
0,0438130423232025
0,0440047744830201
0,0407775383584416
0,0403184671934452
0,0428609173220222
0,044677634926021
0,0431161487167544
0,0484936277918598
0,0434224976611474
0,0431081836565562
0,0438941009919532
0,0451645139904822
0,0406711432587499
0,0409233363625906
0,0417559828217071
0,0437781743216734
0,0446568073578858
0,0435359642475761
0,0443812173983096
0,0431232447861185
0,0439688281898718
0,0445785592379274
0,0428054410175963
0,0434025493651062
0,0424009110804035
0,0441940877801228
0,0432369748103962
0,0416226923886515
0,0430828609442692
0,0437804093297644
0,041096350731591
0,041871590805051
0,0410522184741621
0,0443280777067303
0,0434606906957376
0,0414644307189507
0,041403976542595
0,044109050592999
0,040717112792759
0,0405759749517619
0,0449030928279144
0,0428202288012968
0,0450932971874123
0,0436897397572645
0,0410655766045379
0,0414912040748234
0,0442492914525819
0,0436933966924988
0,0425085045582382
0,0414892241244734
0,0428062760096644
0,042949590351157
0,0412671169247026
0,0418226141831634
0,0450238406492527
0,0423685797422263
0,0413385327349306
0,0410409527571608
0,0424013655342952
0,0428095852834591
0,0439612784978949
0,0409943378129742
0,0428579405751944
0,0446017219574715
0,044933550350597
0,0429979503149768
0,0448481110123357
0,0458964776240039
0,043483203705793
0,0430709097342902
0,04440570470412
0,0426735814205573
0,0435542849907946
0,042810688652509
0,0407334582826897
0,0417963509126513
0,043209018965941
0,0432753884234232
0,0445021486821593
0,0408457950131574
0,0446927086536845
0,0415569156326815
0,0458867485269888
0,0437014201686235
0,0404059789241526
0,0441161370395937
0,0445427981339135
0,044666985466218
0,0443236888231816
0,0430637871003207
0,043072627997319
0,0440033266484645
0,0443278344469601
0,043913426790811
0,0430229405648935
0,0407283985273215
0,0434405532772334
0,0452139604755378
0,0409957030621263
0,0441622540090969
0,0438189970651298
0,0440381479681758
0,0411229905485338
0,0413136599281675
0,0436735703184336
0,0453936594858954
0,0430463895488784
0,040284725629359
0,0407102610597654
0,0452704641180312
0,0439302229864908
0,0438397786375265
0,0455581101943291
0,0437895502360802
0,0439195195175483
0,0448390710714035
0,0459637185228615
0,041061462128562
0,0446602386730699
0,0450765327522526
0,0442980743072645
0,0438933903737534
0,0444772403688088
0,0463774459425626
0,045243695374219
0,0438313829545756
0,0459915502129156
0,0443571865283456
0,0447999027768984
0,0452279742484165
0,0433757153566096
0,0436896359370922
0,0442014088867783
0,0459171884514002
0,045717872447241
0,0424387773173644
0,0416166184659598
0,0433584564291318
0,0479056740959311
0,0443504380838609
0,0448578250839384
0,0463350615594443
0,0456651063838959
0,0454130721466478
0,0435745062832415
0,0449622874276027
0,0444730464804101
0,047447768624353
0,0424063824194965
0,0429391513363216
0,0435773172998617
0,0445540621725877
0,0469201587352718
0,0444025156105293
0,0465210555495265
0,0444250215295905
0,0473889960296758
0,0437830991146045
0,0469882651758098
0,0438741833279443
0,0452244090292136
0,0441929833873041
0,0424107620700944
0,0447866554632055
0,0460666661390454
0,0455878697657954
0,046358124250729
0,0443351947500663
0,0489855360930787
0,0467299429003884
0,046743926213195
0,0449498442296875
0,0448702547117216
0,0446646789816538
0,0434969260100952
0,0482080889184067
0,0470126026929068
0,043268499885011
0,04312246486484
0,0457484543740215
0,0447404274828211
0,0429599392390047
0,0450159922389991
0,0444512409368605
0,0473107715713219
0,0457472453205364
0,0447591619668606
0,0458266545647579
0,0487817894631676
0,0461595916000342
0,0472505098246358
0,0470884561444198
0,0469745364825531
0,0471097820645335
0,0477305232609516
0,0457598877569112
0,0491872680386755
0,0453620512097278
0,0463410602841182
0,0467657731734543
0,0473067527537252
0,0448011220723061
0,0498410591690554
0,0473869397259365
0,0495254859842138
0,0469696102744198
0,0485762145780434
0,0473952662618662
0,0472713913550165
0,0472453128984294
0,0469433570086294
0,0458951547633066
0,0494008221260157
0,0462137563080481
0,0493510732436893
0,0471086531746558
0,0488190411187434
0,0467811023809624
0,0502413031851335
0,0465935227031772
0,0498254399188857
0,0467687013055047
0,0483926916562544
0,0494123248431833
0,0484113813055811
0,0486767234205476
0,0479156871093049
0,0462210435297323
0,0479553626669045
0,048309535649666
0,0473317257010171
0,0479373896996678
0,0480847133926769
0,0475756908223708
0,0495334167989711
0,0484445110126947
0,050452062196877
0,04957726127852
0,0476024019363882
0,047809705043756
0,050010408988105
0,0484244859855737
0,0485036509776169
0,0461770995703411
0,0509841240195734
0,0462328146814373
0,0504848681269216
0,0475151362178027
0,05024657731891
0,047463552280458
0,0528813789104472
0,0464372882831671
0,0507278655714349
0,0470186266449169
0,0509628237064722
0,0496202132128295
0,0531501555748222
0,0519194027781782
0,0476355312019347
0,0502405178903377
0,0520262056527921
0,0490128892560395
0,0529689312978398
0,0517516539061256
0,0527370453163777
0,0493516377046424
0,050813000654254
0,0514490070131277
0,0533388624543992
0,0520001691895854
0,0565056526028467
0,0516451825537396
0,0546227852665729
0,0523318273259559
0,0560997541220371
0,0555911415856952
0,0536644673570704
0,0494067376528064
0,0544031508280484
0,0504334100000176
0,0579448951707857
0,0508248258793234
0,058669877061768
0,0509820106121824
0,0568062952648671
0,0506930931902064
0,0550154501179897
0,0474062282364148
0,0589097563569965
0,047036884220978
0,0556343158354894
0,049439577567651
0,0538425698833628
0,0484692289786758
0,0550465241792899
0,0451295920358697
0,0544320139977288
0,0513391783239416
0,0584479867684874
0,0478434253264684
0,0598469905934583
0,0493867337027799
0,0579080971665957
0,0500969531782943
0,0547256740286831
0,0482157625075627
0,0571565627992391
0,0475948405034898
0,0581839447762803
0,044926996735368
0,0597185267933723
0,0491855731101685
0,0552507527226943
0,0550586035136817
0,0558616972801774
0,0516400109709685
0,0555691695048115
0,0544645234844778
0,0585446379105184
0,0575038622133245
0,0554996575017064
0,0578450559905825
0,0536263402282008
0,0605366456272055
0,0504617353982618
0,0689718000363715
0,0440030654595986
0,0769013945675948
0,0441447549679795
0,0757762841618137
0,03550802375402
0,0786961481277393
0,0384668970362628
0,074432698118544
0,0404898072519077
0,0732414234875149
0,0469536689050029
0,0622440685343366
0,0535362205889512
0,0582494063512924
0,0562957291927148
0,0550810245395034
0,0597147145803196
0,0567259093869883
0,0584132518366713
0,0588365291676479
0,058215670072517
0,0596698456193766
0,0560385645629189
0,0625053954113653
0,0573502204435076
0,0602977473816127
0,0574852303746725
0,0589769139908235
0,0572269137503615
0,0586630032775265
0,0579503467721264
0,0633977146014207
0,0596328733434563
0,0606074538034293
0,0575976345811916
0,0589075183119352
0,0600509219453761
0,0613546646639329
0,0598434881091749
0,0602646709455148
0,0582053928649003
0,0616631730614544
0,0605796993807549
0,0627212443760461
0,0615670238333119
0,0594281478021739
0,058708427133984
0,0627697704882135
0,0614842070663024
0,0630034563107504
0,0612068847491022
0,0621095088477618
0,062241335558565
0,063243086134491
0,0586178604778755
0,0621176655644339
0,0615140176305904
0,0632468970404054
0,0611686784552706
0,0630203421098308
0,058756841656485
0,06251563152773
0,0627233891285203
0,0622607975290619
0,0641963169072548
0,0654626699216244
0,0611767207976325
0,0637320134011834
0,0640081260952351
0,0643872168029679
0,0633719920420418
0,0645588289227344
0,0644523795019431
0,063092259331241
0,0628182595451326
0,0645317512393393
0,0648843961796861
0,0631531635545829
0,0616550693882771
0,0659126657938438
0,0660339331246219
0,0661961327681707
0,0641937783433191
0,0668045808510078
0,0673980113651001
0,0624965309932417
0,0657195040579785
0,0646364648918467
0,0674681069181277
0,0676006796219268
0,0658991174141325
0,0681650865921959
0,0665903214313808
0,0661102782814871
0,0685866848817927
0,0655132862613663
0,070246680548337
0,0686344261653131
0,0649668469382517
0,069129752689493
0,0669200353235783
0,0672654491500604
0,0688787067243396
0,0686581447877987
0,0676214052875449
0,0701473060494082
0,0683153846245031
0,0682833116506133
0,0672575029173805
0,0685747978415423
0,0697311476027604
0,0682916151833549
0,0711203586402944
0,0700640254707054
0,0695645564335861
0,0702313677504334
0,0688342161115358
0,0703480996608649
0,0719835955654828
0,0713599183335377
0,0711185723493107
0,0693627391372376
0,0727493016752424
0,0727442092277511
0,0721537691053513
0,0714425895141075
0,0714711569604382
0,0720768487059967
0,0731563727128692
0,0726491478246863
0,0731674393540105
0,0717771279730254
0,0727231040763896
0,0717135475474924
0,0731255412533091
0,071671838316111
0,0751432681907732
0,0763335291321148
0,0711042174408993
0,073224545725999
0,0726834213631078
0,0719362095404234
0,0726395499074544
0,0756296540175557
0,0726841363822053
0,073852595570021
0,0756564719563363
0,0758485497635054
0,0742769569582263
0,0744332402999257
0,0752360448084751
0,0762169146510836
0,0753461649811879
0,0744416397848644
0,07629675441142
0,0734136618387819
0,0758588136079666
0,0740029477389584
0,0749872617381024
0,0772162667593961
0,0773497214005656
0,0749552446077454
0,0763889268621647
0,0760555382795616
0,0755093163266694
0,0772367269343982
0,0781928445470995
0,0765970526655506
0,0750001114534483
0,0796975832269384
0,0768885893237279
0,0756238985436646
0,0800993879966331
0,0784366924646189
0,078851423695675
0,0786759985958041
0,0769411744954042
0,0783540814519453
0,0780745298537398
0,079793248486723
0,0778657577153341
0,0750095128938376
0,0781526409152378
0,0795854923553775
0,0786226595003819
0,0783106330159477
0,0760886454178029
0,0787920389321098
0,0809889191749801
0,0785006293395474
0,080028573332842
0,0780454400943529
0,0787822603741748
0,081204884118656
0,0787646327358608
0,0805564511559478
0,0800133719614473
0,0796369146554701
0,0800850498845519
0,0775091331494286
0,0794700453418766
0,0806002784680925
0,081071085343651
0,0784406096928596
0,0798405803904607
0,0785109560167276
0,0795815985890526
0,0809284182570838
0,0799688616405813
0,0795063686106699
0,0797622359282837
0,0817415572679828
0,0812343669146095
0,0783209217942478
0,0781158429156802
0,0815928304224095
0,0822962615241578
0,0823381052287211
0,0798530015920316
0,0803777371395228
0,0815948143251037
0,0783009358417488
0,0809533871124498
0,0786907857770867
0,0826327649818819
0,0821099859898008
0,0786491864498701
0,0805001667547164
0,0796655335777449
0,0795017114499867
0,0821230013523239
0,0802713943833324
0,0795080691784145
0,0782735469455327
0,0788073816239721
0,0798091521875687
0,0832066713288642
0,0817131091893482
0,0781638569825675
0,0810535013190408
0,0793289295670208
0,0793516159868476
0,0812904821596948
0,0815021765809317
0,0806360311391665
0,0815105396467822
0,0813589306200321
0,0792737981218297
0,0814566975947804
0,0803512804584359
0,0799385324868671
0,0766955913968948
0,0804882157585354
0,0793603792496297
0,0793201636056562
0,0788641347789869
0,0795146877103716
0,0771945048134322
0,0784356573043775
0,0791298645323314
0,0805609005590612
0,0785880720472794
0,0792519865880333
0,0800050980463377
0,0779455065893575
0,0788713506473268
0,0781556776544211
0,0779877890209353
0,0807994428005624
0,077508606101919
0,0799593172265455
0,0746789040280616
0,0784138590903086
0,077789398218985
0,0768621373597877
0,0764306201531024
0,080252031801496
0,0768990675139312
0,0774182600891458
0,0769973861562707
0,0791702355438401
0,0766167503675811
0,0777466776755944
0,0785790896548301
0,0758484036866856
0,075401625027732
0,0767767125819254
0,0749210921823236
0,0771249344428689
0,0754799158700479
0,0737088909245476
0,0754464560519767
0,0747670098806433
0,0751574167913385
0,0784797094063005
0,0767028486852671
0,0734187912708039
0,0751098394083699
0,0746054789830879
0,074444695944037
0,0734847541207187
0,0748489579764595
0,0742622860063188
0,0707816838653509
0,0746362633984907
0,072338941388582
0,0754513867168527
0,0715322926954376
0,0725351828328279
0,0730309253911652
0,0714007377305444
0,0714624441145892
0,0726071880768313
0,0717073213991355
0,0710852739180333
0,0726085596446445
0,0728520118557431
0,0711849102551515
0,0706437545168106
0,0718578267419099
0,0716734177988304
0,0713371131963676
0,0731471823596331
0,071967621836879
0,070697479180596
0,0712806899013945
0,0683617137079963
0,0682799207425756
0,0746440764190582
0,0706412742019663
0,069879557521906
0,0673727400715599
0,069185122611997
0,068220734685812
0,0684945061718346
0,0673483923338623
0,0686421633764123
0,0668974841828281
0,0685110155071967
0,0675863041943025
0,0678080131607277
0,0678979649192075
0,0674029351288154
0,0649800690152693
0,0671960115135939
0,0639377471691429
0,0658237173290883
0,0676073874409878
0,0671403102544362
0,0662654675141945
0,0680272911655854
0,0645923325167031
0,0673114305561889
0,0632275685073606
0,0659054131962189
0,0670063244947538
0,0659831140401685
0,0650054483855702
0,0650009351588199
0,0645538223974733
0,0613627878902228
0,0620431489422433
0,0625372904547152
0,0664414422473585
0,0653930294212257
0,0625732952188148
0,0642339511551197
0,0640770286230107
0,0642784699916681
0,0626592274250588
0,0605592266575518
0,0628608600845151
0,064468060707947
0,0634534616059666
0,0621858402032815
0,0616019347245368
0,0618825515480439
0,0612245742317599
0,0623794192112046
0,0612780258583089
0,0583675342316519
0,0626444112999407
0,0616311731977008
0,0611819906548531
0,0610768377825546
0,0603253915357521
0,0586598184311289
0,0582637079691094
0,059993535838863
0,0585230477961544
0,0605589391059786
0,057113826146912
0,0584413144902061
0,055265258457305
0,0580510195166228
0,0571978962123795
0,0581841118403011
0,0578659936945674
0,0571435984401177
0,0573849247281057
0,0582387953548445
0,0572783274262559
0,0578622408295936
0,0571738445340872
0,0587310999801265
0,057090332678036
0,0575696026270216
0,0569284045576039
0,060147168823759
0,0524986602705319
0,0585695797551916
0,0529375053150059
0,0564608435353113
0,0553750046051762
0,0571217404273142
0,0534224405808021
0,0570268443274475
0,0560002629464965
0,0581785976457272
0,054529424384194
0,0558478033461897
0,0529903402933109
0,0561899905285295
0,0543105027808653
0,0548379966730821
0,0536177200573362
0,0558315338160528
0,0551393202319219
0,0567290867057161
0,0564130146406113
0,0552512647166123
0,050471871978511
0,0577651961595388
0,0479011384973664
0,0564566882374214
0,0514859722917513
0,0550178340208011
0,0553451751790216
0,0527025460872335
0,0520012308158905
0,0536601011635096
0,0544907499281922
0,0543929339405064
0,0537449964880321
0,0518838367765269
0,0536201297448556
0,0511839865987544
0,0531687357308919
0,0512694133679822
0,0518458338726914
0,0524969554525635
0,0531105234007852
0,0522467360519672
0,0509634256935336
0,0520010144838574
0,0489899581364029
0,0494170504380085
0,0513503728475325
0,053368533281591
0,053574133696186
0,0519632456549444
0,052390003273016
0,0497715457298932
0,0510265304770734
0,0517478853893613
0,0561451248066868
0,0471901209983211
0,0531505322066295
0,0488531584063259
0,0504076398177791
0,0497406466180802
0,05139697687214
0,0488746376755175
0,0497234022241244
0,0521222345546709
0,0506750719818038
0,0520321105298432
0,0501403432867781
0,0504764674410617
0,0487767030680595
0,0496140336105398
0,0517417774071744
0,0514557372731897
0,0487686468875414
0,0544093590520963
0,0507278286478542
0,0520569854130811
0,0525593681309186
0,0480901489856269
0,0526362402666578
0,0490750394764788
0,0486701981895343
0,0480580632159764
0,0531095620680581
0,0489978419767919
0,0530555257923568
0,047563221535483
0,0503594719604881
0,0501080041186989
0,0522496062097972
0,0488406865681544
0,0529476225972132
0,0481382564713115
0,0527681823013277
0,0468604218496443
0,0503069753278168
0,0491704721654537
0,0525099326260013
0,0471973426056903
0,052563028294517
0,0467780703509154
0,0514063333550253
0,0478467311070044
0,0534833878789406
0,0564027558448302
0,0469897014599038
0,0549197167584634
0,0443314678745053
0,0513101254505333
0,0492168755849103
0,0526096279744557
0,0531487667894368
0,0529252865318616
0,0510219522743205
0,0506671685667966
0,0499541017278888
0,0539433087076284
0,050180021424698
0,0494807226510021
0,0556805215553254
0,0501687868798139
0,0528821460342437
0,0524243945903336
0,0441510138890073
0,0611342925956759
0,0496488042908297
0,0519471130041358
0,050009866418884
0,0527665638519383
0,0536907229209229
0,0528345798472364
0,0501819605255789
0,0520505097640065
0,0542932831204069
0,0525681846286375
0,0531627424775597
0,0500320813198679
0,0530809531451446
0,0547950927233364
0,0551150292001871
0,0571411784067086
0,051725567347608
0,05277583132693
0,0541856339341433
0,0528945145980337
0,0530790793362477
0,052298145530643
0,0554480691535968
0,0544930648925771
0,0593961992235559
0,0549691060383677
0,0550191051897921
0,0558727162560474
0,0556678159129553
0,0587895392145788
0,0550540076851387
0,0540825221410558
0,0593481897434896
0,0528714739858627
0,0684636289307113
0,0496996578525845
0,0654329517738383
0,0530431165984488
0,0637381463783097
0,05567997660839
0,0614736932514793
0,0536723449630033
0,061612827033277
0,0610810804567704
0,0598609353934626
0,0615941647102875
0,0576960669648918
0,0662010639612931
0,0590195282707642
0,0601248587795129
0,0596264768482223
0,0633278922798986
0,059338523161291
0,0659534221477442
0,0537621327926624
0,0732026697010102
0,0667018791600069
0,0635373903613875
0,0690197395958567
0,0611482368359974
0,0756710813830021
0,0660540150209949
0,0651980967084752
0,0682458779234625
0,0665702578535377
0,0731775443646554
0,0649378837727211
0,0735548283089883
0,0689878261803709
0,0667975478578732
0,0753755516745033
0,0701877177162828
0,0762956465517705
0,0759981431477567
0,0740155321552494
0,0768200709883622
0,0777013393642433
0,0710244671641025
0,0714516649418361
0,0907426617766163
0,0728873375712742
0,0953908147479758
0,0754495524499629
0,0882850472695903
0,0816662973608461
0,0893148357582373
0,0789990922660993
0,0898041670287775
0,0817970980832913
0,0891322100871676
0,0839115310632557
0,0985047722037377
0,081798795670334
0,0938500817966768
0,0938299836360689
0,0893310556205169
0,0844217975596971
0,107445233714577
0,0947302124796186
0,104295706705435
0,0981248103548722
0,103302930556166
0,101711504046324
0,103502311996554
0,1041325597093
0,102157587172943
0,106742347648775
0,109210281814935
0,11013974249227
0,111125714598663
0,107317145982951
0,119069748029092
0,112482629630781
0,130258894577291
0,113323577333258
0,128957958742695
0,121195918245332
0,131192037373572
0,136862400817266
0,131697595813449
0,135048592097061
0,135688515950605
0,140656921284094
0,141524117396281
0,14224998156109
0,144978625193923
0,146654246094759
0,157329078039622
0,145399554322861
0,168388776601252
0,152614519067613
0,170421378087584
0,152317305612221
0,183502494554163
0,182847881905871
0,170025116200374
0,186736242607991
0,172239646900892
0,201428397761539
0,185442543913122
0,192457326472413
0,196265589139338
0,199245286249881
0,197705546366566
0,205856869028531
0,20813195847819
0,216639284155284
0,220332859013625
0,217071589759559
0,205872629455643
0,249426705385437
0,242492291928646
0,24635951111052
0,240721941735997
0,248709452350324
0,254233692954856
0,256474211862066
0,253258217048132
0,265292401124958
0,242911242669626
0,289664448730693
0,277124878888042
0,288305058941195
0,277648635234026
0,293496311690145
0,296018119935331
0,292026283034479
0,315478678863876
0,302392765751897
0,3166555250284
0,309960822965228
0,329091841453423
0,319422387360336
0,3272917336245
0,335434488311883
0,334902014645624
0,344241465928144
0,344355424664824
0,35020914884568
0,353646146697143
0,359844301858186
0,352324822386559
0,362575994305701
0,373241608193725
0,394031379293133
0,405594001112911
0,373530521077807
0,390244262388062
0,379088285489361
0,400353743528844
0,401300404218056
0,403428796082719
0,410713475443229
0,400763869600059
0,41274502086939
0,40646805091143
0,414801697298278
0,416368760056967
0,419102777696398
0,418111697359861
0,414244450168894
0,427606931952805
0,394258217288746
0,461789269305595
0,425367578046454
0,422130421761389
0,411304477516853
0,419825362686742
0,419601131999834
0,423120969474374
0,405836774424608
0,416482274686328
0,40749055634321
0,409505398333716
0,398591121353205
0,395302845539701
0,420034916433182
0,389060252416542
0,383494236894709
0,383260531043289
0,377978325099845
0,379686797988126
0,35959763824413
0,381977040603914
0,358428516721647
0,349514058895671
0,350954438955932
0,348790635518262
0,337782832141292
0,333654942409017
0,329827708941793
0,331106526563837
0,323782781453554
0,319099733760324
0,312066827560114
0,3049426455068
0,303579296289925
0,296125014189373
0,298109316043088
0,283829757240883
0,285809586630723
0,282691510476962
0,275136687095726
0,270212285496908
0,267144297486497
0,268270708552251
0,26599614025669
0,265397368523507
0,263413395534895
0,251273781128356
0,25332562032515
0,246014674588514
0,247063170164848
0,239128307182438
0,236750082072433
0,237533309182658
0,235011667851785
0,230597794868314
0,229907114744569
0,220616731608695
0,22503267672695
0,223241972055318
0,218026687948003
0,215390919893303
0,217256065495715
0,216328960869098
0,198142687038854
0,220375522349811
0,205546585536434
0,212628290528868
0,203112352444166
0,204550084073264
0,201859393665074
0,195919743527384
0,205160700084325
0,19630385783822
0,196752844848788
0,192064386537358
0,189438959039057
0,195392455766084
0,187931733194058
0,190682196779829
0,19195034253205
0,164827581371077
0,207105036975855
0,185766295895301
0,2172877398042
0,182548302510018
0,18563417046835
0,17633078003553
0,187587622038741
0,182457029930931
0,17685382672683
0,180426942100149
0,17146700504393
0,187868681690184
0,173916262332951
0,177129878330651
0,171506675338524
0,170167096174971
0,177397719914862
0,170531872229702
0,157101774420343
0,169357294680464
0,167716943308255
0,159203050148254
0,182088108323144
0,168437152413044
0,172243711618046
0,163688164902195
0,165529493074445
0,15888104952381
0,161336175549595
0,171440925700458
0,158519061374739
0,163035355397647
0,156911351587122
0,165095421906874
0,159354281395407
0,165615880821608
0,151076977607504
0,15290841604232
0,161193257480467
0,153008451843871
0,169264726660531
0,14551190611565
0,167684255955262
0,154937146550619
0,158504935087945
0,146276518393905
0,163096338140171
0,154435881800244
0,150560264971193
0,149124748063504
0,146452407797391
0,151097824745653
0,154434313304483
0,144714001018487
0,158175214398971
0,150055735919899
0,15430762918857
0,148550583491193
0,15024739512796
0,151640315095361
0,146553249248122
0,14430929864885
0,146281445504647
0,139353354026408
0,146450907972563
0,135195693682203
0,151930385651585
0,141194657675905
0,146658767854168
0,145071940788188
0,141982235297035
0,141068684255497
0,143149837512164
0,138612660187327
0,147805457190648
0,142149308034687
0,146976933707519
0,134023962837966
0,142716991136562
0,140079523760411
0,139157573435939
0,141200771234673
0,138122336455144
0,137669119776776
0,138676131997696
0,137993042656237
0,139133988355618
0,140051464852812
0,142466062521174
0,133470830027094
0,144956966322164
0,143938674036688
0,133796654525474
0,155901843977758
0,132522341398814
0,149524495921086
0,13827240829525
0,140546397649948
0,141854935466814
0,138665042941431
0,141912253402847
0,138050330956947
0,143257358156202
0,142941944128786
0,13751285353062
0,143241769690334
0,135804681142422
0,142763734942619
0,131079809995671
0,155351446045324
0,126705510981927
0,139895708652734
0,137863183722173
0,138031104380808
0,141926186323503
0,14322221897725
0,142347633266605
0,138010715668053
0,139339419554952
0,140976591294563
0,141208239026249
0,142901216289183
0,136480389070773
0,141164013543934
0,138746575306294
0,138929629320924
0,134785989285534
0,138370337755159
0,143182671679809
0,139145274771565
0,139610727613981
0,141083852669137
0,134915883705651
0,14830694072106
0,131942374839339
0,140783879486228
0,134905004791722
0,139581191466589
0,139741842154165
0,135387235388546
0,139896200606108
0,137656931163713
0,135123584027961
0,139221673034156
0,139938149508968
0,139961896307131
0,133122534741188
0,145458385300979
0,133902296280382
0,144538714259003
0,125506916443624
0,146633513093354
0,142561907421364
0,144090227048543
0,141029283172815
0,13600207795503
0,140018994808777
0,138977145657751
0,14207556460062
0,136875005653879
0,139007184381439
0,137881956833103
0,1386338775437
0,136727963282938
0,136051515247249
0,137960526304491
0,137829749016929
0,141424139807899
0,133179032978157
0,140103601246636
0,132933555410583
0,137989300151237
0,133590968262171
0,139321167035326
0,135634664156037
0,13680256942083
0,13922068293816
0,141934627121962
0,135104669911483
0,137542131358373
0,134383442978842
0,13732959559303
0,13613613664768
0,136101802476187
0,133490354454666
0,13497063956882
0,142793558203698
0,133814924561006
0,135428749694763
0,133903269584287
0,137007667499332
0,136983720802218
0,136644736118267
0,133821342535541
0,137768805222783
0,133914931588846
0,137917492824359
0,134638457782605
0,136852689032218
0,138990276623096
0,141148180084356
0,141024503946483
0,134806999018195
0,136816624551829
0,138297686100322
0,137440014933794
0,134087655117603
0,13475570758078
0,133182395820278
0,133625936902914
0,139733614646104
0,131337835038398
0,137960044149306
0,130146976307949
0,138786642570503
0,135480022541566
0,133262299106043
0,134111193253681
0,135048323488651
0,135786115954539
0,132959850568234
0,13075529460369
0,137334419024483
0,132154988107062
0,132940717927728
0,133255299290535
0,133951450978331
0,135402697129387
0,133353189684695
0,131231621797329
0,129574652274104
0,133021964673046
0,135542952404284
0,132017258129767
0,133290172470775
0,132678624571291
0,134516572078905
0,134646445607307
0,137517407101528
0,13847282843538
0,131497604098291
0,131645493400552
0,132972378907584
0,13336258023189
0,129381174876303
0,129239888727056
0,131005689017055
0,134857671094815
0,131600927623108
0,131118969868515
0,129827303838227
0,131219975416318
0,134459867825266
0,13095395307233
0,127561414650888
0,132133444554136
0,133054417678201
0,133218880172532
0,129367518991277
0,130898400338179
0,132941315953368
0,131888372438787
0,1333303136149
0,129522426258036
0,130238677210748
0,131326950268874
0,134007526897498
0,130078346212261
0,128661893581822
0,131083437241175
0,134230395730068
0,13336752645887
0,127357120040959
0,129422524863823
0,13234599095221
0,134505781873255
0,129812868362268
0,131542018446357
0,127577159457673
0,131353847431563
0,131572627707309
0,125968332776145
0,128183578875364
0,133226223254562
0,132180267319955
0,127056132592719
0,125355539943684
0,130698645391924
0,131106646779889
0,130954221466471
0,127336465115117
0,125605448420921
0,129525983052224
0,130513392856466
0,131181047380601
0,127650619156509
0,127514860354762
0,12981205399582
0,131198571642672
0,128359778471327
0,126369092481753
0,127608144019941
0,129769946556741
0,12890695947721
0,131115699457391
0,126080523726843
0,130109716021836
0,129917505333665
0,130782771557277
0,126359475162781
0,126186132820285
0,128893233443039
0,132738064622962
0,130743530966032
0,129316358640092
0,128849481697203
0,131386259113073
0,13025849582591
0,130832636980658
0,126867555696554
0,128849867785277
0,129860502154435
0,130887169296048
0,126967401497758
0,129555096525653
0,130301223695518
0,131912446768249
0,131444320926968
0,129154286576362
0,12640440187302
0,130981971936262
0,131528157730759
0,127031511904997
0,125154360285307
0,130692915182736
0,132241958461669
0,130266274696712
0,125948378021081
0,126328527724398
0,129657887338657
0,131135229660657
0,127874042108862
0,127624536626132
0,128478507037092
0,128901532131725
0,128970978853885
0,127380112198885
0,12744921927816
0,129119574649489
0,130173326280962
0,128925225020933
0,12752132875761
0,126852140072898
0,127631751758639
0,127137265803831
0,128383600910261
0,125636133502793
0,12637115274344
0,127890508303405
0,128465006638466
0,129637117605823
0,124386359001567
0,127319208756526
0,126855434547155
0,127546041784003
0,126081328052149
0,126435491060197
0,126131784878402
0,127051376635709
0,126835378711398
0,128066157076011
0,124938540608109
0,125466846245366
0,128136995747066
0,125276916806431
0,124642797625934
0,125265814080681
0,125760317786275
0,124553074482018
0,12371443177793
0,125248300838235
0,124463321017734
0,125201490257985
0,1259085556114
0,124733451147458
0,125589981220248
0,1237789858312
0,125715431491681
0,124074586587852
0,124358870058119
0,125089328550293
0,12546640799993
0,125222328384115
0,123723367096625
0,122639046124504
0,122834874067674
0,125095964282315
0,124969553630756
0,123243647212582
0,123335379719659
0,121595556504003
0,124636868709808
0,124012710863063
0,121813423576889
0,123914319892751
0,122517933284377
0,125968556589508
0,124242247786623
0,123756889842604
0,122607024244545
0,125321245803275
0,125937535843265
0,124218969471614
0,123499595725582
0,124912736784702
0,12756485990036
0,12780442951354
0,127438393358518
0,126719116412576
0,128597330828388
0,131086113606047
0,130200883629955
0,13057616418862
0,129308906555995
0,13275169702878
0,132658638284271
0,132069068009366
0,133235509721302
0,134067597247727
0,133958288303613
0,136585170184722
0,135013558904173
0,133927055839063
0,133953091205829
0,136550530400606
0,136695561299651
0,137274095306963
0,134952659206358
0,132665308686179
0,134499376451716
0,136478324308861
0,133687791859082
0,133038492072308
0,133168075737423
0,134861172444537
0,135732922194216
0,131287568805899
0,130635757965796
0,133477285271234
0,133947343072011
0,133625948597659
0,131917210743785
0,131236390501192
0,133620032221109
0,135378744923804
0,134552494401814
0,131777673390732
0,132113336574137
0,136550870502127
0,136725951908994
0,135284263676342
0,135847742174312
0,137552558487305
0,138136382303049
0,139345806466633
0,137532829263173
0,136392825779339
0,138642472702009
0,141314914689958
0,141658321032618
0,137849778983776
0,14455894670669
0,144119354319005
0,144146040688732
0,143131599298244
0,141156502620369
0,142280919078757
0,143542980231426
0,141288020236686
0,138779512226079
0,139532005324827
0,142544741796614
0,141523896341299
0,140042620835728
0,139113655298543
0,142330166081604
0,14037970466374
0,143238988269081
0,139887301724346
0,14005486306299
0,140562423195634
0,144600814677475
0,145232983417648
0,143181547241551
0,144631431680488
0,147196917340527
0,14826655424626
0,147593031548589
0,145319738616117
0,14781774818861
0,148011852702514
0,15101280720537
0,150151655512418
0,150395984362579
0,152202383975086
0,152398092052821
0,153811673311957
0,152279456878442
0,153208642249797
0,156518733665367
0,155766791417521
0,159457892699478
0,156474471506381
0,15675498107071
0,159594566138938
0,162269711727702
0,163488531142988
0,162305651656286
0,161439091322945
0,163339239215313
0,165150845121849
0,164167538618136
0,164034236420072
0,163797657471134
0,165106627089827
0,163259795978651
0,163118972568767
0,161416441844285
0,160059880232941
0,159539147553205
0,161627846538831
0,155339105513077
0,154245557167647
0,154101591009448
0,15703855645127
0,156369053498075
0,156327952700102
0,156183158751794
0,155135933935704
0,155969610476739
0,158475353148219
0,152119071135221
0,156098192277122
0,159305886837529
0,159685037447952
0,156955468833973
0,15839016079095
0,156300367552833
0,160406609220243
0,162261026665794
0,161805455821181
0,158741210255496
0,162820464715348
0,163290148618902
0,162534713618866
0,163260161562267
0,160370964110858
0,165531477615393
0,165146889483789
0,163201859931563
0,160761349347633
0,163784302605323
0,165006577324507
0,16472200459566
0,164312819810386
0,160165308387555
0,166086767584505
0,163958248475372
0,167149346688718
0,160861407822149
0,16240998074502
0,163528802399156
0,163381387574779
0,160876592780179
0,160728060851957
0,157837617850719
0,160492098582187
0,16271237637103
0,160756220521255
0,158793180973083
0,16115038047267
0,159124401632052
0,159643381672966
0,155625317224352
0,152328880084325
0,157630412021094
0,15611467652268
0,149910540083368
0,147355501401658
0,148000759684116
0,149201949632281
0,152060753691632
0,146959724231942
0,146748379032294
0,146090374243282
0,147763600078929
0,148689839598349
0,146283240906521
0,147801296032341
0,148034963317422
0,15139682505248
0,154955053608582
0,153095387950644
0,14636614864414
0,152801008671312
0,153990739596409
0,152048136441262
0,152181362801366
0,151260677388341
0,15189145352957
0,153647682021438
0,153026799183674
0,148591502361664
0,15115049178562
0,149654318439872
0,154326329056727
0,15068460391301
0,151362578633659
0,151814364174034
0,150608521208607
0,154254053373529
0,152618327361638
0,149779619202608
0,153579298136665
0,15308532837386
0,150755860552893
0,147662672542242
0,152106455923738
0,152351225301563
0,155388402739231
0,150273623860007
0,151121695657606
0,152477057576669
0,156018153146396
0,152529265852714
0,155415667782041
0,15421727338951
0,153810648313452
0,158306531066729
0,156285493141101
0,15600132430879
0,158168523767061
0,159508287324135
0,159399573667014
0,158012830288577
0,157817106560511
0,158801923473409
0,160328628451683
0,165867232398786
0,161149270597643
0,15829276065548
0,164372450044128
0,162717261503921
0,164088863736848
0,165065441165044
0,165153463638665
0,167269005027649
0,171188544301836
0,166912286702567
0,166031719827659
0,167969689316445
0,173861869911061
0,173866725268681
0,172751673961654
0,172501050623861
0,17648725627451
0,17848466936524
0,178246329902379
0,179334683166357
0,176676132240362
0,180546831513839
0,180064769971115
0,182437875246722
0,180698114738664
0,182031431101064
0,184963049236306
0,183680928011951
0,185605917336832
0,185167396533779
0,188085374240412
0,189549254952005
0,190977524456779
0,191777790181566
0,193158302974835
0,188428984929678
0,194045188413254
0,196326349999922
0,1978016671282
0,194882481953808
0,198775914189519
0,201423893884813
0,203744643397233
0,205836823470729
0,204958359229429
0,205227630099573
0,208529127389982
0,207921847699917
0,213163355663208
0,213644605219561
0,214818775956416
0,212521779189457
0,213800049324302
0,214790286671601
0,218973732084437
0,213915610233155
0,216221466980905
0,221607157174974
0,219442963046525
0,227026453187363
0,230116297183249
0,221181941601343
0,236456976897149
0,236927401278877
0,234685594457936
0,238741275773856
0,239804165028358
0,232969607987841
0,242857247110298
0,240687231102831
0,23982195679895
0,245389320477946
0,250802417412945
0,248748727534041
0,254136627392212
0,250302448021632
0,256122655977729
0,252985555618963
0,254406793496672
0,257367445816099
0,264518426271828
0,259280816465715
0,263338883951585
0,264301534631253
0,266532473604919
0,27394160689964
0,273642658536431
0,272274271022416
0,270594349860196
0,272591931502376
0,275923653214812
0,28168004674517
0,278745501730866
0,279513669666567
0,284617384583003
0,282773522058277
0,294817620002651
0,293623509420312
0,288378621320721
0,295981306781536
0,298192962271429
0,297840290135806
0,308640876270793
0,306520329619644
0,304100467736176
0,30339854495946
0,310191570716365
0,314408478497393
0,311752861486844
0,309193111880383
0,328279084007712
0,31712143565546
0,313951034634237
0,324097800779163
0,3287861275307
0,328427536094792
0,333944620981513
0,323977672132009
0,341988603739538
0,348133428931831
0,337030403856774
0,338803387299197
0,346844602309422
0,337387615236887
0,348044314934386
0,353570173991173
0,361243776774564
0,352197136853215
0,363976615072469
0,357436032553767
0,35914532919744
0,373489261615743
0,365831065568308
0,360952701734571
0,368572171533375
0,36764595369003
0,376091564648159
0,362989145220399
0,385284443304108
0,37965760102111
0,385500651439724
0,390591605888294
0,392619025932529
0,404458194209644
0,391701458901517
0,375590791553996
0,402363602486456
0,398715801688375
0,404839172660654
0,400906152132683
0,400876100854624
0,417604833223327
0,42490973955456
0,417271801834349
0,418500035236538
0,427785722012785
0,431876995308004
0,412157650157485
0,417180859747158
0,426924709731839
0,447701342262629
0,426358252419042
0,431847928131737
0,433045346882879
0,440553567994408
0,44160902723849
0,442239390483279
0,437702799604533
0,458689929644933
0,447582522280279
0,444620032211965
0,454095189417645
0,452712830862897
0,453529648371723
0,474642421768054
0,456961551256064
0,468273070664029
0,459137124460089
0,486685890902423
0,510434588274766
0,478986316693349
0,478398875359743
0,489308894933233
0,499739052396522
0,483439247000336
0,4830053103398
0,475604660121799
0,490533309487533
0,518899274322815
0,510488820322782
0,505173686339318
0,503665933053873
0,506785681267193
0,514531423920603
0,531124570026232
0,514027647926416
0,524279452702941
0,555842770173482
0,526921499587041
0,503645904957798
0,532900164601982
0,548116440597249
0,544537715034506
0,560053888365478
0,55211277481848
0,536994270979159
0,54148990571248
0,535868312777444
0,552868455206576
0,5650908798455
0,542546723975127
0,549535040303562
0,541304638964288
0,546996716246267
0,568855960704786
0,573843409619124
0,556647208620874
0,566557453700957
0,578393066347682
0,602964135719879
0,594379868918959
0,555315175551604
0,565144323735502
0,586435342165596
0,601362461163217
0,59358405478692
0,549303591929111
0,57964473599659
0,586403417529629
0,634372323162472
0,624744146494216
0,559671585725551
0,620111389257695
0,628702397400339
0,641231386392704
0,658962380595767
0,599722893634642
0,588824414766878
0,65629457502886
0,659568754053155
0,596084401229463
0,613251173009131
0,623924579802766
0,644285899996075
0,720081684895094
0,642047030093928
0,61401525131663
0,629032435527591
0,600378779472554
0,610643812349864
0,645559698495967
0,676405322582566
0,816112421170502
0,691832344766056
0,654624193638496
0,620478576734463
0,690568053334268
0,714855363781386
0,646940274645271
0,642803326234965
0,690850332799156
0,773253718121369
0,705812922993649
0,639311214339669
0,666614848310524
0,65757733562662
0,78647551398266
0,728134843733199
0,672824853930436
0,639750050244978
0,70924597403691
0,735833852445249
0,741454700040396
0,632220429351065
0,658226459920729
0,690339913162221
0,853830438070582
0,732997165477731
0,809808004966085
0,766349103497458
0,816661573334726
0,796284508768821
0,85032178202291
0,600920761867501
0,727351900639469
0,780653891585727
0,852768337360596
0,771413180919394
0,692200610913184
0,805395098360304
0,828688739005148
0,729692398036404
0,800739598576989
0,773411706366659
1,09485370990527
0,75424597813655
0,777839617251339
0,785344892337135
0,681128179007063
0,817174617116022
0,835830883677895
0,703295302052963
0,671822929822665
0,645302044308967
0,916044589185922
0,820513603773338
0,808327759966103
0,514011819135269
0,582094505646099
1,14172220844338
0,756044904290151
0,686355402271855
0,876765618944928
0,792153746338721
1,16083696542825
1,05309520623752
0,630737786682957
0,65892462567262
5
0,725032864871231
0,708883360576425
0,709899685512975
0,630682639267734
5
5
0,557087937268101
0,706798505002915
1,1207195819646
