3596
4000,36533379555
650,420452594757
1
2
2
0,0293223476862542
0,0123966102598057
0,0284910514170918
0,0151938293292471
0,0230939070296878
0,0232427047437892
0,0285909332423986
0,0143501264200691
0,0317569664752329
0,0135707056442204
0,022825390256088
0,0147257289851927
0,0278971829007528
0,0142291656760019
0,029474926269456
0,0177835322277815
0,0269539977972692
0,0167319269725706
0,0261095545800581
0,0147266121456229
0,021161928148298
0,0227653344947747
0,0251175198261317
0,013873701697434
0,0321179361222141
0,0231664803977887
0,0298874413601161
0,0194747371268449
0,0372066095236757
0,0224651226431484
0,0279896998666086
0,0174691513776439
0,0304602677925821
0,0154397472765594
0,0211221128731069
0,0127336185645316
0,0352097167327664
0,0200159207222598
0,0281904720353515
0,0130917620065106
0,0316286537910719
0,012026169160236
0,0294219785089059
0,0216535173220867
0,0240378749659531
0,0154841916533457
0,0255322632718711
0,0152683931135514
0,0267329089593106
0,0186092385308159
0,0313480708645362
0,0194127042800749
0,0220896801612421
0,0245164283847902
0,0361147063549134
0,0226522112850128
0,0246203802208755
0,0185014291616744
0,030337657671851
0,0189778003302107
0,0292774532030615
0,0234105943350405
0,0181329115101681
0,0287878005211786
0,0222439266062232
0,0221730870784675
0,0266572192794152
0,0172602586387543
0,0239628135746753
0,0260363037485394
0,0258914031724321
0,0230312058693747
0,0336393060641742
0,0114564393231512
0,0251921093415754
0,0126851465620662
0,0327639745389675
0,0133598089407966
0,0260717994608302
0,0116281491942519
0,0292452563257132
0,019119668176781
0,0230537156452268
0,018503538045881
0,0269458823336041
0,0211250373706122
0,0389080607382013
0,0162067226087669
0,0475714054257676
0,0160224885009491
0,0331230631715856
0,0215696917625374
0,0364357515116312
0,0216422407725359
0,0326059821342705
0,02022686401334
0,0317729266332344
0,0153312309276478
0,0350941152265414
0,00989846764807092
0,0469374309402613
0,0014258806292756
0,0593090310139325
0,0162666561485218
0,0242678427284605
0,0319319707297443
0,0192035865858324
0,0299891328852658
0,0178077576383141
0,0214191558877603
0,0248527952902256
0,0198899109623715
0,0307794468054888
0,0127563163517073
0,0347453274762795
0,00969651205753862
0,047951679717439
0,0110834627596501
0,0333056856812709
0,0190662917677858
0,0470888512060148
-0,00464980231242776
0,0435643171191058
0,00852631041418654
0,038788888293562
0,0148345137365654
0,0352863147939126
0,0167532555344809
0,0437997269145751
0,00973873562460557
0,0333507797722161
0,0115433775952149
0,036302625363324
0,00875644589102168
0,0366759883859316
0,0229147705010744
0,0298806644607949
0,0244470586761297
0,0229767511504986
0,0258058064931721
0,0207162608877148
0,0183065872021812
0,0399565152520142
0,00666825888670697
0,0503179500879451
0,0219562184568984
0,025567831587751
0,0279436723401828
0,0410438258742708
0,00517506067362259
0,0387577881051166
0,0224682699006768
0,0444542109260822
0,0110868930679835
0,0439649925006654
-0,0234437776918873
0,0690103956206905
-0,0177945510151008
0,0554440527183248
0,0194482467519805
0,0315250360501678
0,0275491766026535
0,0242553602149583
0,0171995868293081
0,021661893350917
0,0250107804098622
0,0261064873848456
0,0275241769179503
0,0370104000138832
0,0272262259932026
0,030777176082364
0,028557838192
0,0344501019576781
0,0141797245301739
0,0401574651357741
0,00951898913413464
0,0382566057231553
0,0171847404130091
0,0340309950473354
0,013349286888304
0,0379779025495627
0,011010298791032
0,0281401147450535
0,0224796751929078
0,0337596458101128
0,0170140110164875
0,0435872999896572
0,0299765809840177
0,0422835417443293
0,0230335976566869
0,0455045203998902
0,0239443189436879
0,0452712728715522
0,0136940768102873
0,0338510231459379
0,0332582896957589
0,023201420792544
0,0277617207093315
0,0306634683529452
0,0228257882430696
0,0292436253439072
0,0166963953694917
0,0362406275501677
0,0180899493458137
0,0394951577531328
0,0202568804419501
0,0223533595332073
0,0348772559622973
0,027427084100207
0,0239481322637666
0,037640356321799
0,0437797421616801
0,0216971707803937
0,031703520815446
0,0176251207948441
0,0292858407033543
0,0339931840993896
0,0335424045891555
0,0350711416552168
0,0310442017952036
0,0287297730952935
0,0240102708024163
0,0345366618433344
0,0238943728097665
0,0312718568354664
0,0248635351867159
0,0321110126659239
0,0229492451398644
0,0383850549492751
0,0254029120958818
0,0351628313892749
0,0320479167156868
0,0379067232737869
0,0224361108053085
0,0442421576363696
0,0266110127901361
0,0469715944125008
0,0260142254664985
0,0338956927342853
0,025162140567919
0,0429779996480537
0,0258015584460557
0,0341116938201712
0,0261572144637275
0,0444666636840066
0,0306415035229877
0,0372707124610265
0,0397628633827666
0,033701971296243
0,0484091140359154
0,0217629916301874
0,0512874666734168
0,0290941482002283
0,0381277124821
0,0246339017242517
0,0432989584999632
0,0333730587739798
0,0338043606895286
0,0381089227911903
0,0438413550911871
0,0277336510477739
0,0403448676260421
0,036538922672419
0,0361671407305491
0,0504229439519299
0,0339138856362682
0,0541930951446654
0,0372922286626694
0,0396615970849347
0,0467083586170324
0,0277428795167464
0,0409004450129497
0,0554421617550772
0,0218436765809675
0,0523932115941071
0,0491484448053249
0,0444923246651895
0,0296602419186862
0,0512095181888112
0,0300998696947587
0,0627442466610567
0,0435020403439576
0,0849852332622615
0,0613086023560097
0,0487164701277042
0,0519631332986646
0,0316308026552859
0,056344580825467
0,0418751292890869
0,0532535596567061
0,0420834355596581
0,0579084463782003
0,0417889415678545
0,0613838713901322
0,0436033436028353
0,0549852159971284
0,0517568374920222
0,0521043319404288
0,0546554595846105
0,0507813446888363
0,0528228401641604
0,05189574427812
0,0592255460748777
0,0473075896243612
0,0635510429773221
0,0465685584926046
0,0605778092585814
0,0600701337486044
0,0546558531130956
0,0668634824418879
0,0647420083286185
0,0578085390174924
0,0699524721544278
0,0675394484486902
0,0712503910888916
0,0610528438814258
0,0693769502621473
0,0607182382739818
0,0768145040518352
0,0696188894975091
0,0894712891912976
0,0626102023546836
0,0876702044952466
0,0786798714800387
0,0798271372698342
0,0837174546149052
0,0880963574405755
0,0869500613312098
0,0854945603004433
0,105777193216162
0,088715095755793
0,0861752204317367
0,119923799304248
0,0764636977308796
0,114819104990586
0,0913062521597147
0,110797332380301
0,10412684420025
0,118908359395558
0,114081311185146
0,116070976242743
0,118870966107833
0,135417799192507
0,131698535002285
0,12647273503286
0,137221625600681
0,146976702903005
0,168849492795385
0,137006451721117
0,144225053629594
0,140219862094916
0,176790364001771
0,138179408707818
0,182335330386698
0,158255741874167
0,161329466719542
0,189106621823127
0,169148324402213
0,189896308651463
0,181099078344316
0,199215152826268
0,187884431208393
0,207320826009888
0,198518689129649
0,223298392064359
0,213770866884712
0,227171194215451
0,23091176674538
0,228453740429182
0,227178510715764
0,238561783598874
0,231773092508955
0,25587629038977
0,242177897429482
0,289136984184713
0,241464212101127
0,275648094498621
0,269752231745473
0,263190064514068
0,27739454074301
0,269161010345343
0,27613199295138
0,280698880027764
0,293182211008096
0,297856953819424
0,295392895447766
0,2922331065737
0,315215694701842
0,300827654841223
0,324812292562649
0,31793269329647
0,334782672658906
0,328097383287318
0,339830643837994
0,313506391402738
0,348673186782932
0,34349761470373
0,373908408873083
0,354400581347637
0,368297532472609
0,341403101136186
0,354657249803424
0,359241799703868
0,350833522879405
0,362573514641687
0,376671030479188
0,397358050685678
0,388994034986987
0,388744881888738
0,380144106250154
0,378180077147925
0,398680260180348
0,395960139166632
0,431324930485968
0,422494757563647
0,427726454434336
0,401428671645405
0,427163523760426
0,415668733981629
0,422092559193835
0,432171363149917
0,419148168654292
0,42588225392742
0,424645183669655
0,432319325866946
0,429275861119377
0,462707523253129
0,462725582745134
0,458560088268431
0,466962146782287
0,455505574550275
0,484182798555465
0,490834508204209
0,477318525871819
0,46900545100618
0,479430522555472
0,455080389309345
0,498404133586363
0,475052509338656
0,509461512971241
0,506013158472471
0,505080505231654
0,513180047676011
0,494409527930518
0,489714503434957
0,50602528970829
0,497659924552352
0,520790682256935
0,525596973607784
0,545115045301808
0,542450074168793
0,544676554764525
0,531649041643488
0,553254306748123
0,534047670904092
0,541159090290373
0,549336257059596
0,54821967438188
0,565555503475567
0,584087497967101
0,55309712522295
0,606888206406412
0,587735309306032
0,598587319831293
0,607087439759509
0,578795713863152
0,581880426770074
0,581662212870797
0,595068557836444
0,584416082962688
0,594385205780679
0,626320616895628
0,613282524474424
0,634309742100278
0,624753196244328
0,609244241488774
0,607388274377967
0,670065330209948
0,631984769630836
0,677376906395706
0,6400408311202
0,622439247944636
0,624174221044016
0,653526670035348
0,643164082742794
0,675530524446494
0,656506718551295
0,682954335761073
0,677741126548553
0,662870672069809
0,663566543921023
0,717213821562762
0,672958029261546
0,6976972064712
0,688767274204565
0,727952289235318
0,692445791156245
0,707270161868564
0,681990621352612
0,73866808062734
0,712887896656992
0,74316705930181
0,702767098167487
0,754193320891475
0,748176999502608
0,764975642323668
0,740052179048316
0,763721500412648
0,698107668080794
0,767771235204997
0,754801004558264
0,809799460564249
0,746162380095967
0,759551244322514
0,825916530488457
0,808215636151935
0,760921347627162
0,867960291829624
0,765565715340131
0,806436038666637
0,790868559897366
0,803107320194789
0,820065877881654
0,899131160254526
0,821264639389013
0,823809854836144
0,818332652011441
0,840722219698252
0,776992958169975
0,858961033491769
0,820160358168191
0,893346645881824
0,819000309842169
0,867158163924104
0,83862221886248
0,930412720416497
0,855942510734972
0,936638902503425
0,832340682378128
0,922704405797401
0,840068478417638
0,857059017451135
0,896088242558267
1,03448162303691
0,915812529296235
0,949044819437231
0,921473911905371
0,986022275795132
0,879535893869983
0,96924780588991
0,926628686774985
0,986207782728712
0,94292931462841
0,941172582799753
0,908365979223802
0,965093176171537
0,870986967598031
1,02597910925995
0,995433217740186
0,987269494795518
0,983138430691337
1,00669258501146
0,942408381394439
1,00266502725521
0,97644322760343
1,07139554072613
0,953068088152949
1,04064246673324
0,974638491338533
1,03284729897649
0,982057525178461
0,960340231984791
0,925374827215198
1,07322554683389
0,968156862207766
1,16488123011882
1,00049026453674
1,06494378074569
1,0398093507494
1,07776785952308
1,04894615757011
1,17938109319007
1,02655786610516
1,11930903056186
1,03016016507415
1,29819658820046
1,0814018410568
1,16441028453527
1,06220124188435
1,27682568558675
1,07138266508545
1,13281569791509
1,03427124568493
1,17723530049106
1,09361711442087
1,13502285581248
1,07469973103027
1,17002835653459
1,05742982851028
1,2768546056251
1,19346041205059
1,19839017998861
1,06500506818133
1,14728430534017
1,03782310749687
1,23312163315382
1,14593097954044
1,24159900751483
1,10117186832101
1,20157876239536
1,08098500746595
1,31595048247314
1,15393994575262
1,32138530161311
1,1192494893427
1,30726401837214
1,15143983015347
1,21643689501663
1,32038890010966
1,33068886768578
1,19483152175311
1,26737566293903
1,25679744954243
1,51327901520423
1,28370582883119
1,25822189974929
1,2253117997745
1,2880806816303
1,27249197669861
1,27038671733845
1,31504780146649
1,37879167603178
1,14781385073195
1,25822015206705
1,20343110141391
1,40852010165317
1,21201566627151
1,38403080693992
1,24534269471169
1,31236081818508
1,31765904774827
1,22984192522242
1,18832693004199
1,43462647941728
1,29760179125655
1,52302322201449
1,28514012430743
1,47450131742674
1,27993795785882
1,20623967344025
1,25337182956811
1,41560046350567
1,23601522985686
1,51987565979082
1,32135055149615
1,4764367447515
1,39718512748561
1,66434809688987
1,33767579452201
1,50563135784416
1,35568294659898
1,39243817109329
1,33829370804993
1,50641580831364
1,28510483110462
1,45318901200018
1,33174640535073
1,38683534355764
1,3218126614548
1,37682959313252
1,29358739835352
1,45225737849504
1,4022635632181
1,3690974328791
1,22262558452519
1,61060791952853
1,18638879452456
1,46375035927342
1,28748714838267
1,60199816596437
1,37033515301404
1,31840215106508
1,34106718353185
1,52798460367529
1,32464333629455
1,34705770904457
1,52647579264692
1,89640206372361
1,49683675872839
1,63054233692093
1,26831789160855
1,44330236504145
1,44087251742301
1,36215209372974
1,41965628598856
1,39874226488574
1,36860069236177
1,404345946037
1,29390254452354
1,4636914286661
1,40334213433673
1,48997211794255
1,35118328457126
1,60533449743131
1,30407599757906
1,43120260165894
1,27958389272978
1,47747962340691
1,45649578662985
1,59970718319218
1,38977239968949
1,61062050728075
1,36048400315714
1,42170511214516
1,54786855491231
1,39123705974518
1,35209885776069
1,47513354436554
1,38215605559164
1,3791218192847
1,3721989613883
1,47599777106792
1,50457149731813
1,63181021856938
1,39333620561139
1,44103893815429
1,3213317724664
1,57686270810172
1,27795200103366
1,51573279322328
1,31533852327889
1,49028571369998
1,28595577667958
1,4491901795914
1,30334913757509
1,45842137060299
1,43246759063774
1,47136706101417
1,46283353552173
1,508783343944
1,33077886510161
1,32874396900538
1,31500464462623
1,44133758387155
1,35889275834238
1,42681826409368
1,42328525922112
1,45239349091289
1,3733078450798
1,53525510595875
1,45430425341334
1,39461627302537
1,47641402326756
1,4739678684379
1,34356540577031
1,43293750652374
1,38352491009859
1,52392862961935
1,35012474030669
1,53160259998896
1,33137093737373
1,42786311184389
1,35429832016738
1,48429124024371
1,35781550943654
1,30718106353228
1,35917589077327
1,43059360420491
1,41637375850254
1,61208471705212
1,37191677143272
1,4243819152869
1,3035472175757
1,44561697221537
1,42433291489419
1,44187472930044
1,32786639258679
1,49162393352982
1,34049897245328
1,45153312194181
1,34442769556388
1,45663301298418
1,32621830520606
1,39659708525073
1,36594429049074
1,3911678448912
1,36502240798501
1,47310852604308
1,37628915525559
1,42151562777895
1,403393541112
1,46483039282692
1,32147789956116
1,32201722005319
1,37963637139909
1,4023426361754
1,45167593671018
1,49327418314296
1,30756367290676
1,48591424423322
1,46412470504659
1,38243067048117
1,34558973694446
1,42254485536701
1,3295987972212
1,32693056383825
1,39945620128849
1,31896529301959
1,3594483160009
1,46333469084149
1,28660455137391
1,42878769017738
1,4024444775658
1,41656700631935
1,39071518787436
1,34661862879841
1,31861014067361
1,34986509364374
1,3715867570536
1,39715201640358
1,42528156956797
1,43812316464568
1,39060270528952
1,36749516977209
1,41350420065045
1,37669652939289
1,31534532591736
1,34192999369013
1,38851068040775
1,32782676312096
1,29114550177915
1,39972832456906
1,31699184611566
1,39861015332988
1,31115272537937
1,3998521063143
1,24202349388084
1,41896724228555
1,29731414010627
1,34845479590719
1,25917499407223
1,34160069036527
1,2900862732746
1,3058288629424
1,30817103946444
1,32652925067016
1,23554179021333
1,32135367653198
1,25331847999965
1,38954919000458
1,32699488073172
1,25974616470206
1,23198730113996
1,27925805155041
1,26658203811759
1,32357563818583
1,24852464384738
1,30048307344105
1,27506159224938
1,24477710905374
1,19401638186694
1,33000132291748
1,24799331606972
1,32031799795857
1,20825496615801
1,18328265423831
1,22508377083426
1,2151642850829
1,21710661498897
1,24471401530216
1,16805144649767
1,21825052876103
1,12580448439683
1,31394728289864
1,14095711058419
1,14647110047156
1,11623073987406
1,1953011725051
1,12429920830448
1,15691179473473
1,16177044755966
1,16039100322685
1,15247526232813
1,14614624884469
1,11747252127053
1,15437046063935
1,09847159693009
1,11485241831213
1,09033115432554
1,17027005587777
1,0718202392918
1,10650038129322
1,0659088238477
1,11801747477087
1,0636418455244
1,1131519147639
1,03003030247791
1,05367935052315
1,01860150520183
1,06130318281994
1,02218376626033
1,02915777776152
1,03776855838161
1,05703099175013
1,00005279066057
1,05528689450575
0,993341962530372
1,01244201849223
0,975437237003171
0,988158128524504
1,01309694333493
1,00878986873193
0,971973517522755
0,97235544998547
0,926023883643568
0,963201394701587
0,966585003423982
0,960466696380113
0,926088182963504
0,962015377756707
0,906855497752111
0,940168773597846
0,874366020034972
0,930315266032829
0,922809085563
0,932037642071274
0,903887241261843
0,87113464218848
0,884605155884344
0,919394487774349
0,861042635389774
0,894743680937393
0,874886067134553
0,853234775262073
0,848879124483912
0,860138954946287
0,834973870903037
0,868161911821569
0,799541373126299
0,83741450882341
0,821444160112519
0,814804920621062
0,778714974363984
0,834125585304137
0,773408975592812
0,822561127165319
0,794391432074734
0,810523137311547
0,791582214775186
0,798925925306269
0,783517474937106
0,790341172139472
0,768142932239874
0,788601280907964
0,738562292075423
0,744256915964059
0,738818875115747
0,751399443669406
0,736800008013367
0,733734122542672
0,709569529358328
0,735303273462021
0,711406099767081
0,726146718792188
0,704658590282955
0,696417695653206
0,695325949015735
0,712257209765782
0,691697078174542
0,695665946470538
0,657944932511876
0,687680310524588
0,6578074048399
0,674000165584122
0,659407601446257
0,667467081646572
0,653259884447309
0,657537276313492
0,636537359486096
0,651413843859581
0,632679711910526
0,644484172496374
0,630367479080999
0,618666232910839
0,603614234126737
0,614933277270545
0,587524526889615
0,610023859888588
0,590198747368496
0,608121160175591
0,58466028718024
0,586874512125593
0,591270391271642
0,586242592608001
0,568550689408311
0,580095249609265
0,562951632114408
0,56985837570545
0,548442583773719
0,560950606344228
0,552424628871452
0,546765683957778
0,538305913403816
0,554636067574643
0,535905677868792
0,545799661352753
0,520758198127605
0,530557019550753
0,506438583207307
0,528347261737096
0,512665107617146
0,519974261866618
0,510000610329255
0,503556385045043
0,490105629351072
0,500245539856126
0,49265776290013
0,494568872758009
0,484980001993705
0,488827368045634
0,46567437134897
0,475654678542515
0,464115628197888
0,484836178572173
0,466480183991004
0,468083620007828
0,460800391204323
0,456150600628132
0,455446085330747
0,46018359429382
0,454991568129775
0,452384703670224
0,441052718887823
0,447855512148244
0,436328196266086
0,441520709114871
0,426505041171802
0,434350092453175
0,42309020214849
0,429014600306264
0,408727154423467
0,42343035879969
0,412709511090725
0,414491356905125
0,400022568328096
0,411323027052351
0,397684689947532
0,408753465133315
0,399054312353562
0,406061476843677
0,385938868012624
0,384925764326112
0,377532538473772
0,384811540138368
0,379888243631636
0,383120889035549
0,374339008912519
0,374868663752991
0,365270693573235
0,372975223957997
0,362340873755906
0,369646738896873
0,35931365360287
0,359143303121199
0,345920362058913
0,3559495691916
0,350471605849919
0,35192401285857
0,342394049897013
0,347516059118889
0,338261421192278
0,343822115443098
0,33375450014763
0,335185945811285
0,325870987653553
0,337972889633901
0,327053415903195
0,338381329762525
0,320293026451932
0,324587004013475
0,31722598201297
0,321022310846887
0,314304983564803
0,319759802989842
0,309344044744262
0,308058536235062
0,305991692146288
0,312914952906785
0,298184040455173
0,302143433946676
0,297864427494718
0,309068668597546
0,287806234217926
0,301221123379034
0,28518573944168
0,291720456291045
0,286546753020492
0,291443262184187
0,285123278609356
0,28501600332864
0,278722744743237
0,282027695914128
0,273601046830414
0,279332897859158
0,270608589004286
0,282815010701905
0,271096784449147
0,270993205658688
0,261682921812466
0,269911579716784
0,263671068051524
0,266432609927979
0,25405489413594
0,263434716753144
0,255748640844977
0,26229197079756
0,254115661057004
0,260557562686475
0,254343914698975
0,258412856133401
0,241629430673526
0,244069193345355
0,244550163977937
0,253132877096274
0,244064859910047
0,243892141027211
0,241683927130713
0,24296379909813
0,236917833713452
0,241565798721908
0,239777405585332
0,238604282477734
0,229383102950904
0,238660835333409
0,231113814348416
0,228532721099572
0,21923101125651
0,225406513181028
0,221844926004541
0,226044504023189
0,215434729804126
0,22723702604964
0,221850877089706
0,230158190495963
0,220227314079666
0,222435055764786
0,212782795782144
0,216081447691695
0,211263561210169
0,218124720560672
0,209956326340596
0,217296126403448
0,206144875806193
0,213088904194717
0,210749131164957
0,21245321019442
0,212319580776115
0,211030128318251
0,199849740078908
0,204200511903103
0,200747106436586
0,206007317055418
0,197149202231714
0,197327665672631
0,193077637762545
0,198857724213989
0,19364948080325
0,197624154085812
0,187556705957607
0,191037798935017
0,191889111943392
0,18866796243462
0,180164799826452
0,188184933891969
0,180380941782497
0,185478235999939
0,177541347340467
0,18178343273081
0,179160220081984
0,185299230510472
0,174746884364323
0,180196096852288
0,174632545519194
0,178673590832838
0,168305291369869
0,174649713636133
0,166004569989576
0,171135012213797
0,170667933587994
0,173669878570574
0,168274249283699
0,169687562346825
0,164987972487894
0,168716173269424
0,16374542918933
0,169331716651921
0,162547221521217
0,161319695667655
0,155393895849216
0,157158018563755
0,156979902820888
0,160730270476157
0,157637714314344
0,161567127697347
0,155198209973547
0,155406580252202
0,148179230675956
0,151531991975688
0,146447941136211
0,152923133152622
0,151354128012323
0,154116841841475
0,148240342731861
0,149089306076735
0,146784571742575
0,148071934203384
0,142508378263366
0,145949090509422
0,140380949969794
0,143824747071563
0,138526860527449
0,14048043022991
0,136167346643328
0,149658195490614
0,141020280183834
0,143446382483432
0,139247694465858
0,139393565685179
0,133406842395932
0,137430756858793
0,133823283482179
0,140982248470031
0,128606096386501
0,137961101235517
0,132448306420803
0,133070398476047
0,127421405776676
0,132063820739569
0,127887221783565
0,130554089971512
0,124347145700065
0,128869520797476
0,121590023339512
0,12616190096926
0,1240987155052
0,124359869113493
0,118912857842739
0,124807082846952
0,120884890242811
0,125491412388726
0,120023678531996
0,11858824985272
0,11444862669018
0,118213393817613
0,112527117164927
0,119496944078191
0,113830138824128
0,115991565205346
0,110414697063403
0,11636053675353
0,115496784084014
0,115777742779359
0,11035429273503
0,11491610592635
0,114186046897566
0,111932718161413
0,10389941517497
0,109938518955297
0,108032599617095
0,108280946888817
0,107596264835195
0,109704888495136
0,104340164778535
0,107657279667429
0,105242042686624
0,107354595617145
0,105648578914184
0,101435771689568
0,101080414781603
0,10394574301479
0,101278452715809
0,105805550858023
0,0996534267236965
0,0993456252487372
0,100415475651198
0,10361829440884
0,100577969136121
0,103619842967549
0,0961287584920697
0,0966770132361227
0,0936181979366335
0,100901840181943
0,0991001950731709
0,0981446096015015
0,0932862325631967
0,09800984507796
0,0970661536582205
0,0958678159784304
0,0914940475819438
0,0956880648981937
0,0931736088929024
0,0943052946642503
0,0931899519586224
0,0931566694027299
0,0919783795856791
0,0942617569867096
0,0904744600522777
0,0924886222486365
0,0866214770727994
0,0895363870451149
0,0885435367821734
0,0914289608089724
0,0874096741879401
0,0916412343904561
0,0879745166551032
0,0914166470550995
0,0875511642923476
0,0884063435425642
0,0852624328936947
0,0884992838708231
0,084622546903911
0,09098109940091
0,0856149547582132
0,0866635716535121
0,0844519454176601
0,0842151044377522
0,0834427456834987
0,0898169746463304
0,0835774259622999
0,0862008545565071
0,0832903505567151
0,0844587965070637
0,0823606646162027
0,0827286631523765
0,0804925332478497
0,08346990045789
0,0827259897438061
0,0833583362434516
0,0781972945967774
0,0806395772775268
0,0817113665656428
0,0832600410921279
0,0823930250580789
0,0815406239161809
0,0801433023988366
0,0783319256041981
0,0770896726249855
0,0796723709004507
0,0784681366145099
0,0814742818956959
0,0748785309017877
0,080686118201422
0,0786203915502893
0,0799789141044158
0,0783465380752484
0,0787513414674319
0,0751615028417512
0,0722090746884227
0,0770969378582376
0,0796872602832426
0,0714188452630999
0,0751229349361585
0,0750368845095046
0,0778580353357069
0,076767276973697
0,0780144319054632
0,073643870315545
0,0796389702383887
0,0773122980334445
0,0767301850676306
0,0733992899054031
0,0688766534965339
0,0686131031791939
0,0737493714529076
0,0754366446063342
0,076296683654799
0,0723674333857526
0,0736810827906295
0,068796897148975
0,0716962995826058
0,0740312858427427
0,0729371156045155
0,0714375715544017
0,0762697777649439
0,0712442498334039
0,0741490312865857
0,0712228843417999
0,0729332737604184
0,073273241869423
0,0695171351492312
0,0669118608902948
0,0713087380325263
0,0675589264923846
0,0718747103507086
0,0738445151932929
0,0721582466242415
0,0689819626916647
0,0736600623381538
0,0691907017196626
0,070759451477806
0,0717464166760159
0,0717513810335157
0,0688153506996812
0,0716801047623635
0,0720596888618774
0,069696692288911
0,0686853480447791
0,0680438744941667
0,0667705595581529
0,0659214901913523
0,0679207965946761
0,0704173092979242
0,0653059112543141
0,0662175928460893
0,0653972290595069
0,0703826976695465
0,0676735022985739
0,067850903195737
0,0683332599420941
0,0703093768820926
0,06535826212848
0,0657641109763538
0,0663096221818269
0,0637967996216476
0,0649431719694193
0,0674153249135883
0,0668171823529107
0,0652935923207562
0,0639053233404457
0,0684379215593274
0,0660784605358171
0,0642929377634856
0,0691511266321823
0,0682976204901478
0,0650120341519288
0,0636969729422632
0,0656616105005386
0,0684753895722295
0,0646740358101919
0,0650291913049452
0,0592983834283032
0,0650644176633847
0,0627223201112075
0,0644823720574087
0,062660621229647
0,065029985729621
0,0618510717242944
0,0637272824413034
0,0635623390307624
0,0664572031354954
0,0644396966055763
0,063179726309104
0,0608525617329358
0,0604643970856995
0,0622690897817418
0,0642078418482129
0,0654272941176312
0,065323173767424
0,0626292433036194
0,0657690739600801
0,064110408963657
0,0629611181190453
0,0655432302858105
0,0628242977874287
0,0642372505498164
0,0676543000241272
0,0628607018994905
0,0632328740721483
0,0617008269584238
0,05850778985516
0,0600149346129322
0,0646206002158182
0,0633422389422961
0,0630663673684463
0,0631911018678318
0,0649791505946001
0,060799237010981
0,0615038715371669
0,0623788768252262
0,0649128712760887
0,0582837467779625
0,0629251140975422
0,0617505656526551
0,0621529361498681
0,0631894151385778
0,0646539156821883
0,0598445127631436
0,0608188098779154
0,0605958129698426
0,0615191140827493
0,0597285972535847
0,0633373342487185
0,0600727469691223
0,060102418938104
0,0607356728117625
0,0630173546876214
0,0618456351244124
0,060252320520725
0,0602251922912074
0,0620165245980052
0,0587774844406085
0,0606469664190885
0,0602985962208087
0,0613410314447209
0,0606526184621993
0,0615476436398055
0,0595973216444995
0,0619732004907855
0,0619615879243798
0,058939019626833
0,0583107715729768
0,0636585469044106
0,0597260727642061
0,0595451404619615
0,0606473489992488
0,0618564973829376
0,0637780338808012
0,0621495198656811
0,0606864116220598
0,0608068572307137
0,0638132488457293
0,0617608561401494
0,0599206506939414
0,0586802985658374
0,0592290421644177
0,0627719430373848
0,061067257804488
0,0580772824329312
0,0625403084342509
0,0627847666351653
0,0592880950871221
0,0597217710755002
0,060150334319431
0,060690306357562
0,0602340462358566
0,0604398510587211
0,0611924559718306
0,0638797447951036
0,0606782142570206
0,0599320811060819
0,0599197574762019
0,0614011064654011
0,062074464204579
0,0634152832714678
0,0648132340501339
0,0635072146715985
0,0620792960394449
0,0619666069573234
0,0627016551488594
0,0641651809791798
0,0621484234211591
0,0594588140325937
0,0623410410588559
0,0626454778847192
0,059656432145849
0,0603016930798742
0,063331179108831
0,0629466197075796
0,062762390536678
0,0632917746281318
0,0630747967348964
0,0615102403562966
0,0616647984711697
0,0649858661719492
0,062899637085941
0,0626127361054781
0,0614237697210668
0,063086001558617
0,0603323603773388
0,0605809881540172
0,063125533771262
0,0631550941197623
0,0620210778075701
0,0637812699305664
0,0614056251577303
0,0615252800863461
0,0612793632442549
0,0645312442892147
0,0592722707160619
0,0607359439990977
0,0630864104207336
0,0622659513763419
0,0596314033956153
0,0652367126441665
0,0650868574910997
0,0632822786832496
0,061639368471261
0,061668991330686
0,0638581621110055
0,0640718547895336
0,0635316386662986
0,0623277686829968
0,0633917511192832
0,0638016521295023
0,0647847104634063
0,0644411525892162
0,0652904871343963
0,0637837699892652
0,0637861934106088
0,0641215976995035
0,0649857772437749
0,0644940612034136
0,0653597015342694
0,0623787386284446
0,0679764493922876
0,0644166162741976
0,0631101560578442
0,0649563246886143
0,064533967132067
0,0652727952019101
0,0626139831512675
0,0666093208994183
0,0664382038015646
0,0623322964889173
0,0647935999062462
0,065307175647577
0,0642056311233692
0,0684638416811892
0,0672611533269526
0,0651847733512666
0,0627121367881811
0,0674168554053637
0,0652785694790134
0,0647295676158301
0,0656387857486821
0,0657755017660338
0,0678908417419736
0,0673604360803379
0,0668013988086494
0,0648868408004447
0,0669063450997082
0,0658259621670701
0,0666757758642718
0,0634043058884122
0,0664872275778891
0,0667988062866474
0,0657185705405988
0,0661084617230628
0,0639008023606306
0,0655224601389669
0,0684439999192179
0,0644710468253481
0,0690206563449526
0,0670008773996475
0,0680439302651009
0,0653398968632492
0,0652513929804757
0,0649674511038634
0,0656388079733644
0,0692870240611221
0,0684721994579217
0,0671695246435967
0,0661205996691541
0,0664767464105596
0,0680530065655279
0,0673117780248843
0,0702018766812552
0,0685365745258368
0,0710135904991129
0,0691739329055082
0,0695289706574721
0,066328581918846
0,0715833647229422
0,0680660315021275
0,0683764098553411
0,0689109482604925
0,0683981493314192
0,0664255345011227
0,0679799748460901
0,0685483609904912
0,0714508869534176
0,0700147554202577
0,0687873247918055
0,0693443709314668
0,0683640670360449
0,0683408196116866
0,0703466911570488
0,0678561229849762
0,071733724475376
0,0697507871989784
0,0715213066102796
0,07037376141213
0,0714487806951481
0,0715842354370143
0,0719126758992221
0,0679833787118063
0,0709022280347781
0,0698140994239988
0,0712876400545233
0,069905500107201
0,0711411406601364
0,0712778844460787
0,0716193695515193
0,0683891408155406
0,0744499525695697
0,0689164547821836
0,0719090901554747
0,0742006843191449
0,0725211061771822
0,0702519984919581
0,0720864996310117
0,0713228953169705
0,0742439877244281
0,0685239594330657
0,0713518846365758
0,0711610273861473
0,0751595050068702
0,0727810388474671
0,0762132236433797
0,0714577383273548
0,0747111394820945
0,0764186599654374
0,0734099133314706
0,0690891412563398
0,0722980067881632
0,0711914799566061
0,0745006536863383
0,0711581089104073
0,0772557472708734
0,0725519297917013
0,0747782636512868
0,0737800404811258
0,0760922420627129
0,0705486561265502
0,0768716049512947
0,0714700530735449
0,0753271530027664
0,0735262542867754
0,0772290968650082
0,0722926860697231
0,0775629970374532
0,0758615383268847
0,0747240748836153
0,0732253749355927
0,0793394553388073
0,076217833172464
0,0817338352828848
0,0758730670434951
0,0806795813209798
0,0777800721846183
0,0797866622927235
0,0772607731772857
0,0818800939965094
0,0764609838676067
0,0824244789607363
0,0796506379120501
0,0858735842862344
0,0750580628337417
0,0879340299976616
0,0782463561168898
0,0843370388374774
0,0793028780572344
0,0837812781287373
0,0759499365686066
0,089212141459541
0,0811829772650062
0,088115020640314
0,077991133933673
0,0888617055567181
0,0767272922811985
0,0851599022912398
0,0753119008456861
0,0887540440460887
0,0814315162971769
0,0855294949987637
0,0804096553097845
0,0869797883630973
0,0738954704137308
0,0890507017474291
0,070366340171972
0,085928532256605
0,0773266779294391
0,0889483748601871
0,0733843206816737
0,0982485150123311
0,0710982356678196
0,0914782109465794
0,0772363317433073
0,0920158330974767
0,0706315941181123
0,0923132029689503
0,0738319667880677
0,0925739833871833
0,0677909837315862
0,0999685246171496
0,0719520292044701
0,0988162161184619
0,0793624398787503
0,0944133164969633
0,0716046026794747
0,091143869062669
0,0748857674080383
0,0984838116458046
0,0817697297223944
0,0930353195181876
0,0795061218324925
0,0876913301192982
0,0914686373995254
0,0889846389652227
0,0996360933285983
0,076060747003058
0,10786102905095
0,0728755860040979
0,111267449232028
0,0601703883545395
0,119709964473993
0,060037308097828
0,115301431186778
0,0623165988223317
0,117368945848318
0,0690821511116184
0,104780581468514
0,0785210113072455
0,0949685701676194
0,0858447644042941
0,0897810723179576
0,0947029353712895
0,0880688426011674
0,0904074504150328
0,0903301991929206
0,0887223076923031
0,094830121860261
0,0872138715920861
0,094568333689221
0,0859518879448368
0,0968223672459079
0,0875095432565438
0,096158847501133
0,0896353887878139
0,0948551602347273
0,0909176163577589
0,0958720535357897
0,0928133531789749
0,0940790758585078
0,0910162060640645
0,0970734821135384
0,088998658921047
0,0974982010550073
0,0917481959878273
0,0964984080388989
0,0926941728308727
0,0962671366399414
0,0958876513687558
0,0959338101660998
0,0922667579849385
0,0961100788359623
0,0927164892659516
0,096938644324291
0,0956128542947285
0,0980295981109323
0,0966402573638144
0,0977102611166558
0,0946917693563679
0,0992996080979742
0,0942928228567903
0,0986794180060093
0,0953004853605191
0,0999150133683609
0,0969101406956959
0,100917473190627
0,0956314786606935
0,0972910102819886
0,0963252364816573
0,101414043070776
0,0986567193327856
0,102756467741927
0,0974040832933461
0,102782383310334
0,101301256275998
0,103119419911104
0,0964996075703748
0,100797314358027
0,100304489532142
0,10109745112092
0,100142091711998
0,103409456672159
0,101553343550797
0,103101232620594
0,098465369582918
0,103096661499205
0,102240570749076
0,105130906201211
0,103157536891758
0,105857097984133
0,103400735043875
0,102718504064509
0,103300378126339
0,104634100474783
0,101660267339066
0,105381946489771
0,10812705854865
0,107450527839909
0,103585361489506
0,106226465588769
0,104644282826973
0,106068371459969
0,109884884696486
0,108690898957021
0,105212204534821
0,107884527879878
0,107376245992163
0,107269685860883
0,10883273545532
0,111562680992578
0,109164492322043
0,109361517979603
0,106436962593811
0,108772400357069
0,108777988825176
0,11070228181859
0,110322296598959
0,106767397218206
0,111601279050942
0,111365028378003
0,111984639145194
0,111288260842895
0,111388710782743
0,112047064651375
0,11450167733361
0,113533695428891
0,111950761059291
0,113634449113672
0,112749635631522
0,112896444093675
0,113613965185434
0,116045742182118
0,113826194451741
0,114289079545181
0,114976418212733
0,118089828406971
0,117221552766126
0,115207434316018
0,115124052371139
0,117464986922119
0,117752802976697
0,114831570919778
0,117593718434558
0,117674655781052
0,115179719543577
0,117859843543576
0,119456193362169
0,11691385530938
0,119787729539628
0,121140767011339
0,116670832225037
0,119654907602115
0,119681313392595
0,118219035400652
0,121433394034593
0,119430518487296
0,118991262956251
0,12236386145522
0,122550170554657
0,120270862090359
0,120022548891221
0,121810187083397
0,121702669509172
0,120341527222685
0,121339459023206
0,123057101287028
0,123266342835932
0,120040483488474
0,124718071763646
0,122992148730744
0,122265387790386
0,122500667285016
0,123942099062451
0,124292091982182
0,123140277744143
0,123956319509454
0,1270469060423
0,123559131245804
0,125334275050757
0,126111222277978
0,126469692723714
0,124493825527401
0,126402022216187
0,125760908919689
0,125934614463824
0,124037289435345
0,125646619570258
0,123878092167335
0,128440071749782
0,124625819123191
0,125537225439633
0,128706404652037
0,127468050380271
0,126151278138319
0,127013051486228
0,125940499722748
0,126679464668676
0,126540721814996
0,127494864160347
0,130233733383709
0,127183646221556
0,127314553790891
0,128859761954988
0,129857768732117
0,129759591691705
0,130386295285146
0,130733491245989
0,127864936988741
0,129690056200453
0,124442380439877
0,130285658700017
0,127853163580644
0,131701826349349
0,127547123953802
0,130502599181245
0,131009781892702
0,12960670064924
0,130663189635136
0,133003985184794
0,129555081505018
0,130932412506585
0,12834684268787
0,129483443072035
0,13204922359871
0,129464644633074
0,129728961535328
0,130075491663502
0,127734101853022
0,130190705823307
0,128818425212471
0,131519433048129
0,128436939368172
0,128155301729754
0,129808543842232
0,129214429961184
0,128602302638038
0,130246810059245
0,126976935715191
0,128299086696914
0,129065170684331
0,12994302463633
0,130838290134204
0,130549245984673
0,129904677602776
0,125669695877223
0,12783658186436
0,129452183678083
0,129244682559077
0,130884320081298
0,127474545933224
0,132587128574689
0,125937943105778
0,130242594245151
0,128367907586507
0,126173075673046
0,127922360734776
0,126306850869144
0,126068073110171
0,128590407746439
0,128949988367874
0,128141005462592
0,128718902594944
0,127449555108904
0,126975528419484
0,129016566463144
0,127452726878583
0,129025863336728
0,12724457809758
0,127587058094123
0,128162752593124
0,127699169401657
0,124925702820464
0,126129137490647
0,126305812611275
0,12594097854904
0,125578112420985
0,128005310974667
0,121724590188508
0,126720354581656
0,125234034279399
0,126134236113986
0,121662251488761
0,129725471967241
0,12293809254346
0,123670940151541
0,124042903986825
0,125411379220837
0,12358325378527
0,12294086270143
0,12506689349631
0,122837836344793
0,122076966759437
0,124287895479546
0,121511481082933
0,126820071601171
0,121576037930134
0,119662614084826
0,121455130380834
0,12240838690015
0,120458862747637
0,122129350951303
0,119502315661348
0,119494645810893
0,120455078480345
0,119923296787348
0,121088929951015
0,117721999675803
0,119141671193678
0,118705717585667
0,117246094071018
0,11981674449566
0,115330437413443
0,12224222755864
0,117649687669807
0,119786569543795
0,116039203332752
0,117358434699425
0,115442370538704
0,118212745939385
0,115289508748863
0,115650594583943
0,112890702278321
0,114411860821798
0,116628544825449
0,115432440720729
0,115081889871949
0,113701289822317
0,115110577354314
0,116511603631092
0,11623088532007
0,115397317742879
0,113957895795003
0,11490116331521
0,109895879871718
0,116869582490267
0,110686848823674
0,111698963855369
0,110605107857331
0,1121565336882
0,108341869972794
0,110423780579251
0,10956193559729
0,109770039656365
0,108672437417222
0,109465409052203
0,107511594410999
0,11001289039715
0,106795735986291
0,108475942612515
0,105650161770784
0,109292387412162
0,104744810154614
0,107154604651617
0,105308207457305
0,108644347379818
0,104823177564139
0,107736012938938
0,104438225049154
0,10700038852743
0,100389842928316
0,107387442318888
0,104883510048652
0,105175957253739
0,104831586832542
0,105745901835711
0,103539750151288
0,10014269773394
0,100484573265888
0,102394933723922
0,102195634797548
0,102023956006565
0,100504041246495
0,10111942259556
0,103301026114841
0,101212356775401
0,101298386273616
0,09980368704297
0,0993840026740241
0,101809627938302
0,0998485427546741
0,100186828274957
0,100382186620007
0,0985595266802947
0,0979821452227315
0,0992763542411421
0,0986853518304088
0,0980724321199833
0,10100666142813
0,0965297522851474
0,100119645605268
0,0994791345560482
0,0979913218791994
0,0960490560219448
0,0951386628757159
0,0941135287326787
0,0927693692236476
0,0957063924800917
0,0962084677880503
0,0952407639467429
0,0957121022133361
0,0965005246027941
0,0950722451708666
0,0933508963980481
0,0917641021522847
0,0928889901179123
0,0932840011098065
0,0913174959646573
0,0920254806805903
0,093478699077078
0,0923530563987273
0,0923670857635727
0,0937343614758173
0,0920672915905337
0,0943068199842259
0,0997277455735851
0,0837287811342882
0,0946805510648285
0,0874913217121654
0,0905985105004398
0,0888258270280559
0,0920570236246089
0,0880717981323562
0,0906340990257789
0,0887732281408285
0,0931735247894685
0,0889753802172934
0,0895508228750865
0,08682334837044
0,0919206117992735
0,0880758151049888
0,0900411020903986
0,0873027633310989
0,0900587073409627
0,0876616726033577
0,0913334588004839
0,0898359958329428
0,0895429253428403
0,083357863688004
0,0931455411475322
0,0811078615901909
0,0972533598674943
0,0818303384060473
0,0903435339250027
0,0866890120512678
0,0866390654108933
0,0873150074341711
0,088417614236366
0,0853324215723482
0,0865295633915956
0,0879954477861861
0,083370933846566
0,0892180105640768
0,0867775998533718
0,0855601969211839
0,0845933850922916
0,0858455791815952
0,0857774025821717
0,0861543374054209
0,0865321542286335
0,0839353043660903
0,0853351120064319
0,0833483909195245
0,0864208240411565
0,0847035066680159
0,0861736486511682
0,0846041630009395
0,0855673546175866
0,0856331675962849
0,0811534874822262
0,0837911278196111
0,0880048039930666
0,0946026596600552
0,0791718682117614
0,0906803632437386
0,0804084440044657
0,0835444389979106
0,0835469857067366
0,0829524164690287
0,0833705747887304
0,0830408928595288
0,0811593391323318
0,0847133240207247
0,0839270218577363
0,0822516603351971
0,0836851397236665
0,0806110627993899
0,0831797160270164
0,0825528247696851
0,0839897647015508
0,0806264684421141
0,0884762503445186
0,0820385192357398
0,0888245304900332
0,0859346002616358
0,0807985228463987
0,0838338984392806
0,0841722007601347
0,0839758590487281
0,081166051367095
0,0862995484871926
0,0828231952176178
0,0865335275739739
0,079249678695434
0,0839331637778775
0,0838014630089196
0,0850733755932986
0,0815076135380211
0,086414837748936
0,0788470060322359
0,0873615395136233
0,0814190349790511
0,0844199888336527
0,0822653529698714
0,0879898778124905
0,0790342758364881
0,0901403039364269
0,0787352715783665
0,089048261016891
0,0782159794068747
0,0942315857923282
0,088383672525202
0,0801876016761852
0,0917279145058559
0,0784691595279154
0,0872751767777524
0,0825925366356284
0,086911082035776
0,0881183603959537
0,0866145152443378
0,0857329506936976
0,0873785068010807
0,0840240698629608
0,0873675100930227
0,0851286312144158
0,0901532176646979
0,0964085974937036
0,08165468995427
0,0862981349740569
0,0867025080543972
0,0812345904507285
0,0998758004241647
0,0834166932712078
0,0900863453433587
0,0849902638251259
0,0876906792975051
0,0864937288775903
0,0886897279914449
0,0848738371340114
0,0892685428612464
0,090663810568116
0,0889452979240592
0,0913930721654302
0,0834563759639738
0,0914987174131978
0,0913418984314807
0,0920634394686328
0,0933805051090548
0,088609327086818
0,0917531851015499
0,0899849188753115
0,0902655063066362
0,0912070371432009
0,0912163025791508
0,0940092700622598
0,0959279803942775
0,0972364094935819
0,0922516102073112
0,0971074111991464
0,095137892778331
0,0915208732439641
0,0975374170671806
0,0952322093195045
0,0962169429421731
0,0987332180692367
0,0951993108962614
0,113763773006818
0,0864034920053324
0,10968573050052
0,088057065262195
0,10386716142557
0,091609365642975
0,103861122550699
0,0912803858951796
0,106318641786686
0,0981052473873959
0,101357825587123
0,103384930577851
0,101545365769303
0,106647964464272
0,100334587552756
0,103798833832192
0,10476408094854
0,107828768697738
0,102228226531913
0,11011366079768
0,0993399404173879
0,129238311116573
0,107616542606505
0,109074288227671
0,114702428808526
0,103975246152618
0,130059488440352
0,109112465292267
0,112050793819996
0,114568540545566
0,113580619629711
0,120058782940072
0,113524668795389
0,130204762718007
0,119020799360655
0,117052379384551
0,127944423031303
0,11851857131449
0,13444150345807
0,128453380988714
0,127551306381482
0,126912800956338
0,131748053543177
0,128111873953165
0,13520124755133
0,14566017348723
0,12734870787279
0,159853665127563
0,13612867705266
0,151617360240718
0,140823453325789
0,15097771584564
0,141241792289969
0,157831720350691
0,143360997742918
0,151881674753791
0,14694234091438
0,169691333488712
0,143789288006266
0,161776666850958
0,153621506357482
0,159768184396616
0,164109917231197
0,180764710660917
0,15803808500031
0,170448159114193
0,165142367913461
0,180658023286693
0,168843082414377
0,172184084986181
0,177619467818986
0,178444994346915
0,181037504155962
0,186119856170687
0,18931314275869
0,190323812521289
0,187372787428451
0,199097221979264
0,189859437587143
0,22045545906067
0,196824173555372
0,22322074691781
0,207624853900024
0,22752572802159
0,221022450151807
0,221664495204459
0,225966804947443
0,225095177537558
0,232424115521778
0,234656625377226
0,240048681566041
0,242172480949166
0,249123323677939
0,265077736814996
0,243904121856474
0,278593265567153
0,258321621519528
0,284459063809479
0,253871823290193
0,353015973482207
0,298764554960894
0,29055880102711
0,309293150589186
0,295850206875312
0,350699942071408
0,314178854441527
0,316245339194682
0,327128946023291
0,333481530955038
0,333327838825756
0,347281467443464
0,354245186620627
0,362507758017468
0,363939195057749
0,365299020935185
0,37441394210713
0,417073422595583
0,394691435591797
0,401814464367305
0,394261453945977
0,414096951686494
0,420073134286885
0,427451909088715
0,429548677407741
0,446143972385694
0,429114589722605
0,489485186256316
0,452469182815636
0,473113025574468
0,46721908964298
0,496309881643441
0,491422516971445
0,49812724480134
0,525729802306374
0,502232991644815
0,526550791202824
0,512665919510413
0,536869515199132
0,532520111964037
0,563146622450472
0,558474966307531
0,556830346807325
0,56649938989433
0,570106009506259
0,581875097224259
0,589465200170329
0,597078340484612
0,591922855632525
0,617350712784609
0,655379299347798
0,665249185594321
0,654062615951318
0,612524246092887
0,645191582252341
0,623925117118662
0,673891791110213
0,666462234840171
0,663335555716573
0,676180103234452
0,655993560594621
0,668073374280545
0,677029035399181
0,680287105702031
0,67506850173849
0,688711666299569
0,691994014035495
0,692114039731926
0,702764937319885
0,691260784399205
0,771778216356103
0,684088985742588
0,689475349855614
0,670165491034648
0,692812103471458
0,686571467549756
0,678684178598
0,670413968538219
0,690609824287622
0,65392248370179
0,667174561384347
0,657700452970796
0,668612331934208
0,680192495736268
0,630436605845622
0,624881025787979
0,63358705731535
0,615522483445312
0,607538407141668
0,612461474425366
0,655584734394669
0,578539869467744
0,573455384035104
0,578222988928889
0,571174022455223
0,552116799780613
0,551201546451371
0,544181155962838
0,544517332511548
0,523221180688684
0,522660088044753
0,515153600878059
0,505596480689713
0,504663683427196
0,493211428874686
0,482474885010765
0,47186617341967
0,476532650733407
0,469393733413334
0,459905415557648
0,450359754331344
0,441152612942717
0,439594722224442
0,441236295982371
0,434856524257744
0,42287500030391
0,41948785921584
0,419324742989387
0,405823979899255
0,402711387963939
0,397668037998903
0,395540533596913
0,389420107613656
0,386586000427915
0,383265402292789
0,37920031792611
0,366270927578907
0,366551880340431
0,364515808262279
0,364382206011022
0,356088726663784
0,356414448597345
0,358605982980809
0,357480265629552
0,37174125202864
0,339629969639094
0,351674252493859
0,336850951237114
0,341377225309647
0,334441018787618
0,340253547843203
0,347106159816662
0,325937048721708
0,324953305688413
0,32189069697748
0,313229766247538
0,326550005508151
0,314173871013048
0,315477683640741
0,317846748597533
0,296004198686961
0,352993250707913
0,300580565185819
0,349381521628831
0,300110198520519
0,308473489292179
0,296431072310481
0,31760561700759
0,29899164700052
0,293313892999578
0,301422306548758
0,296337244168529
0,308465361353341
0,283929929523459
0,290590517924977
0,287651765644325
0,28874508618522
0,297123669422868
0,290830084533989
0,281880071965542
0,288311359105382
0,278474951663598
0,303274474576335
0,315111295990912
0,281938671461705
0,271481480864202
0,269144917594571
0,276612391203012
0,271371491366633
0,275231593312204
0,276656224757372
0,260989995757558
0,273594391009898
0,259882508403304
0,274655708219032
0,265142664728048
0,274642032356139
0,251215278038947
0,264443049427394
0,270919938686876
0,256782050318098
0,283845248084808
0,253014491242871
0,272931430345084
0,253555847586096
0,257898802968339
0,247548595237296
0,275913576013797
0,256121409441841
0,250902578439358
0,253297650881613
0,248959843449775
0,252928278867086
0,254063323150719
0,240796910049026
0,258276612877252
0,248228842234106
0,262599722233576
0,266895814101416
0,254193793711413
0,244231808025621
0,241811881664814
0,23971083438373
0,243690701096087
0,234322363078874
0,246391766668702
0,222594058709504
0,249879784337631
0,233325598692678
0,245031791130103
0,241709417270027
0,235596706218257
0,230521558759852
0,232823771995815
0,233516291004278
0,248081132435584
0,237353011545156
0,243825205552931
0,226018764004369
0,238757541883807
0,230921061217652
0,22806022155514
0,229207612988057
0,229889979007325
0,229916990952339
0,234046291205759
0,235230174949408
0,233180222230092
0,227243654901783
0,237828843243288
0,229078112245802
0,241209690999434
0,231666532322797
0,222092964965519
0,255407685740436
0,224235589925099
0,246323793470417
0,230744661124443
0,234956972534672
0,233729411427273
0,230944061834737
0,235636320277835
0,234763299332268
0,247437234280846
0,238725867055708
0,232194002801521
0,241232231195682
0,228421383190965
0,242814061708115
0,232001238818598
0,259677794470414
0,216313689251141
0,260705704849987
0,230915922358668
0,235016481210435
0,232625368200136
0,232060937393142
0,236702188685745
0,233668959001175
0,236727855105085
0,238975403272639
0,238404791597102
0,237943282151156
0,234552494468385
0,240779194056485
0,232184977246676
0,236084532489056
0,233181899828227
0,234698390266134
0,236697513373137
0,234092311350979
0,234141912418443
0,243083074268354
0,23419392676807
0,243230304138472
0,226988774393633
0,240123367215497
0,230667550546372
0,240042996649619
0,235379908941416
0,232657651556207
0,236942635980384
0,231466077960685
0,232059740105644
0,238729626727262
0,234881536406751
0,241081603632911
0,231640439354225
0,24467937830825
0,221974921570326
0,247296704222932
0,224439370958645
0,254757415378171
0,234084540427843
0,236156977429617
0,237333097490925
0,235978562959303
0,237912586932118
0,23221568308523
0,23778941254614
0,233255246829213
0,236470734801498
0,234316331520251
0,233055951873678
0,234309663298333
0,235685832708083
0,237551202469625
0,235680226150059
0,239228966758373
0,22898906700749
0,23471972761482
0,229360542264202
0,23762277155131
0,230376600142845
0,241973577252266
0,235460145694548
0,233843001814063
0,238830894013225
0,238633916780198
0,232580786736082
0,235078681118122
0,228435342789649
0,235787368057996
0,231215753714238
0,232953226511478
0,231461644550438
0,232872497744605
0,236584235528841
0,230191708358611
0,234239845112177
0,231918120540745
0,232616586066094
0,231640568788225
0,237719779243392
0,233626232886917
0,240016334484052
0,234635340778301
0,235123766302105
0,234023605180376
0,238128004141901
0,23888617713617
0,235276907592789
0,23828578186686
0,23077848439648
0,233674793195925
0,235423188410906
0,233775464110703
0,228882009715886
0,230542989501981
0,227462756466375
0,229258797760555
0,238411033646808
0,224952251993664
0,237897241943799
0,225325897894875
0,232337626471993
0,228064042262737
0,22923520996057
0,224976085833938
0,228307132929598
0,230308260594581
0,228528426806566
0,226827104313826
0,229971144553011
0,228682965459377
0,226798802413543
0,227195861766433
0,229228124096726
0,226309994433345
0,227006635537048
0,225841059999858
0,225156994731227
0,22411749780106
0,228602436346247
0,222961509294228
0,226799109615462
0,22940471678833
0,235394977642187
0,225957198650941
0,228643143695016
0,228603720822681
0,227007137962571
0,227569751742544
0,223994003400457
0,226929304818304
0,222329580005639
0,224144550942513
0,222426079997208
0,225380704796151
0,221944880091142
0,224826628823031
0,22507364800234
0,225606777947836
0,225862892378854
0,227339247465424
0,222328293850974
0,225794183539524
0,223578880902652
0,227114651830479
0,224985487270571
0,222351816403787
0,223532350626341
0,222542874560205
0,225057152068055
0,225247979119537
0,225638962565319
0,221742695239063
0,224677228776299
0,225398711650857
0,223741475626023
0,222314862990979
0,221892855960268
0,223421543867877
0,221488560825952
0,221937914054067
0,222996954383907
0,224296931854848
0,220340089420659
0,221029549370995
0,220695600066956
0,221761258840007
0,219770713284432
0,223407414003714
0,220081664701095
0,220228128648347
0,222042866437929
0,218698805530199
0,217394525224547
0,221521107692502
0,220652621466614
0,218038366303576
0,219143226331197
0,218883328477869
0,219031997775577
0,219794476144418
0,218908264983633
0,219420433636149
0,221124951085899
0,217992559372536
0,218007704922054
0,217879573252348
0,217596650174132
0,218905670597989
0,21814886537913
0,218935123304586
0,220345566032154
0,218081205269378
0,219962030257658
0,220535880477676
0,220727528719998
0,216498797734053
0,221440266218432
0,223272349669725
0,220288341360132
0,222728265973339
0,223820408798163
0,219653516636822
0,221517680792885
0,22167011704612
0,220436378942892
0,2208900901141
0,223927339880149
0,220025730695197
0,219906334189512
0,221419093404114
0,222391546733824
0,219453031069803
0,220837708780228
0,22371808202852
0,223266484398042
0,220589282155306
0,22221166118929
0,220405307148108
0,218135028922287
0,220257330844827
0,219555425326895
0,221665921694841
0,221505573946093
0,221171894294541
0,21998293650451
0,219068084292464
0,219787619959719
0,22041764381996
0,219966612598512
0,218419133945923
0,218389883798623
0,218545770402585
0,219631999431262
0,218204446110092
0,220378686783434
0,219538984717865
0,220703992683237
0,220880406536381
0,217124896804674
0,219480305732784
0,218519475309321
0,219489683116289
0,216444576389674
0,218715476009663
0,216633662706393
0,218244184419082
0,220543053775573
0,217143159774731
0,21591116062074
0,218917660130425
0,21785167408893
0,217475746672759
0,216850832342006
0,217273631029372
0,21418185562927
0,214378544744562
0,217348392652272
0,215647963820086
0,215747562532974
0,214492074662531
0,215551530832733
0,215718887007643
0,212593615307765
0,215477464650729
0,213548748015609
0,214288530478789
0,213839000054103
0,213568369591545
0,214363948171423
0,21473977561393
0,214473080966678
0,213412307591024
0,214103426120248
0,214828364016864
0,214448740258835
0,212541146915
0,213468624574849
0,213137540458931
0,21310308902689
0,212489460277646
0,210383555010245
0,210767022812158
0,210567489119254
0,211393803379172
0,212013739197851
0,2117798262356
0,212316417275614
0,210107204722512
0,210898816589378
0,210587874420571
0,212022782432173
0,210907127027726
0,214571477108988
0,212331191422366
0,213208864566644
0,21307729933372
0,215873231728114
0,214963511330173
0,216504091179562
0,215998855174935
0,216285913937931
0,220133522987463
0,22227558907306
0,222118808556506
0,22391162293386
0,223931449047723
0,226044245338527
0,226010016799423
0,227600684702681
0,228427523795309
0,23162285051641
0,232185275075625
0,232403542588659
0,232666810034036
0,235267996459629
0,234996283194743
0,236320078805239
0,237929958509266
0,238285439572498
0,23749978980167
0,238361662493467
0,238270804962392
0,238749271696294
0,237823895203388
0,238179627879295
0,236463592359825
0,236482522566086
0,237324314132318
0,236847837478505
0,235522694816026
0,237930519975514
0,236399869261445
0,237187857586205
0,23613329548364
0,236962417507918
0,235112339023047
0,237279274707702
0,236516910165432
0,234583681571107
0,234262672283259
0,236624784819971
0,236981481192993
0,234645620411206
0,23720475432581
0,237908023671309
0,239952685399174
0,240432382521169
0,239559151355666
0,243679746540284
0,242322438674666
0,243666816310854
0,242960139814014
0,245381669563939
0,245632190144675
0,249257098956034
0,251821495727724
0,249618730677009
0,252081813577164
0,253470513916492
0,252915172464247
0,253559356655642
0,252966136600234
0,254111314526236
0,252621454650909
0,250632393839386
0,250591636172847
0,251434943644673
0,250315462945829
0,25009889141736
0,249183701257831
0,248423172338349
0,251297182912682
0,249200152786497
0,249813524146099
0,250291319584677
0,251487864228701
0,250901812046871
0,257973325661002
0,257992778348639
0,25949528181543
0,261809369020716
0,261363357588255
0,261661428886001
0,265872576091491
0,265252028170806
0,266640858621927
0,266844385914619
0,269164722064674
0,269817027478319
0,274459713165693
0,272422981654532
0,276642481421459
0,277347508317925
0,277202206418416
0,278138284253979
0,280468637807488
0,280799549742062
0,282517379832184
0,284503070525519
0,285173729650478
0,292060220704831
0,291720778236961
0,292637369247866
0,296547962050617
0,296519784112326
0,297500048608451
0,296511413667712
0,298368481271296
0,299719426246013
0,29611931583403
0,295143831961839
0,295325271052924
0,291435574607657
0,294093085815233
0,290375070011377
0,289747429733254
0,289632114682326
0,28386136957188
0,281146071090896
0,28455693557703
0,280670111531906
0,281449598137341
0,285165666076386
0,285743556041782
0,283194022880702
0,282680501680504
0,285363009137411
0,282106203681246
0,284931500423166
0,284843877552518
0,284465909687414
0,285424656463584
0,288826320920774
0,29001318706591
0,29276405052263
0,294107512614355
0,292331835016309
0,29376486396878
0,292973065313193
0,295241983771795
0,294103637004232
0,29592594502294
0,297118252930741
0,29759979570495
0,294190374868674
0,301891559571881
0,299801457410684
0,298445195698708
0,294887030214645
0,297312068882309
0,299576621280683
0,298492565022617
0,298531985612308
0,299162338182014
0,301700725387257
0,294320121803826
0,295410318803637
0,292489925330162
0,289904851518404
0,286427467024852
0,287927840462677
0,289782877210859
0,286526910068433
0,28800113225688
0,288710682448314
0,288415271806834
0,288392599106365
0,284156011824946
0,282714235662776
0,28234927339765
0,276796815797317
0,279834393277642
0,27616267469532
0,268346892727591
0,268386961050424
0,265232155439739
0,265439294514408
0,267453599778882
0,261837213341704
0,266034380240568
0,263223005443423
0,263071210064811
0,25768537156604
0,263073014162759
0,260337860504633
0,262751164158535
0,260202070015956
0,264565942291106
0,266513242748648
0,264883134493691
0,269193268635823
0,265691904001543
0,264317098992876
0,269038455741765
0,267024646960354
0,26630611592938
0,267167998790216
0,265252835512681
0,263593359154752
0,266282720721147
0,266053905593024
0,265921255365656
0,263647550062883
0,26473814656249
0,264528904884295
0,265258211344455
0,263591508021712
0,263827044855595
0,261039773951905
0,263488043926998
0,265723681984493
0,26567994392543
0,26201848646778
0,262227583429637
0,260724082002187
0,26383022626132
0,265134860866276
0,261979327451033
0,261760094879615
0,264671897806019
0,261853896062975
0,26533386131354
0,266313847644776
0,266262855849079
0,266055215990189
0,263901000650154
0,269113115864933
0,271815026409611
0,271469464781489
0,271853320344589
0,272550653228157
0,274020250844694
0,278198743750136
0,278921632303686
0,279573037319676
0,276323762961477
0,275988806264741
0,281609975110469
0,277332799520484
0,286402909855425
0,282703341349779
0,280122338948467
0,285191674498208
0,290801909534982
0,288684159603599
0,289937625032517
0,290085488557938
0,289823100438494
0,295142749462494
0,290977248980242
0,29671705784791
0,299636143422261
0,298300741667474
0,303085350003025
0,302806242830814
0,301889817498834
0,306570421147975
0,308263287657939
0,310916741266913
0,310864186874004
0,309258357556091
0,312518598926586
0,311946330741274
0,312126191724322
0,313119449195432
0,313362721310072
0,320788958847584
0,327993650157386
0,322725516623186
0,331353311287421
0,326058865745187
0,335072177216627
0,337402554887437
0,334776000752688
0,334034517544506
0,339915518334135
0,340526848767943
0,342767612754637
0,346970661315157
0,349711997813892
0,350278449992322
0,355917774806766
0,353406964029235
0,354303352792714
0,355793521750325
0,364006664961819
0,362188695767592
0,362259253649861
0,371666728315673
0,367440259399875
0,370345065780773
0,373049342601633
0,376932212524273
0,380605635915741
0,377069775965382
0,385267045954585
0,38310674080229
0,39277367197287
0,394923867813799
0,394708157144579
0,399633863899456
0,406754061914528
0,402545277495576
0,409025508894473
0,402851694505049
0,413346269760064
0,416188352850259
0,410288461924173
0,422245169322992
0,42789432987235
0,42133193202887
0,426197950422626
0,426165762238767
0,430241455766722
0,434140330014126
0,440782600171155
0,441609397347464
0,448303149242135
0,448372686520779
0,451210856582731
0,453800424993903
0,456228030798571
0,455177079041993
0,462770170633146
0,459712076825541
0,461727376066616
0,462086643047997
0,470403368068908
0,473309988180235
0,48488754386503
0,473033362595789
0,486718435339901
0,476862401199803
0,496275396274381
0,497538779685593
0,498884833271963
0,501652922811043
0,510195608346941
0,510403312361147
0,510046515601796
0,513214891091094
0,508587325837996
0,520608217274599
0,530106250635542
0,529834905643211
0,540757674526829
0,526460217810076
0,536177290523489
0,542801121840178
0,548004821484413
0,547723314013109
0,546785414695022
0,560667175793171
0,551297134540814
0,555618475929458
0,564522547203091
0,569713032897001
0,570331915093583
0,576370105312061
0,582188380727448
0,58702658386883
0,599130265311401
0,581394589831652
0,592657847624558
0,587205435989118
0,604369890883468
0,608255486410354
0,612593527577188
0,592646614716042
0,607560615670971
0,594323341888809
0,618494431796255
0,622734363322482
0,65749588249311
0,642741359010472
0,621604809650499
0,643374827237682
0,660311255977102
0,646088682196784
0,652870320608773
0,657133112256286
0,685793083770672
0,651942873469656
0,676988608443479
0,658382796160194
0,67188054913814
0,688330283464716
0,716145684203488
0,700530808315892
0,683261840678105
0,68487370505436
0,718518479960561
0,688343196668185
0,703250113195444
0,69161699505957
0,718439885050425
0,684044801567314
0,70741733638839
0,702180162719476
0,713444268401577
0,716488513545848
0,745243844137108
0,720942171308142
0,752821007976502
0,716962830636011
0,770321643323638
0,721602774593136
0,744365873764253
0,779515149911646
0,78367023257965
0,742821309520325
0,784777871321984
0,800290589215185
0,803225692492869
0,755678039530626
0,812043289722018
0,782716449945943
0,818143114670582
0,800272472970181
0,826460409725167
0,851728300990151
0,835565954935291
0,778394960308233
0,808546580536975
0,783674923207509
0,828580543392596
0,840939670278693
0,85944920608404
0,850597247395517
0,823674994574735
0,85382981453025
0,912534568449167
0,850032964704695
0,83658015707579
0,868761385965742
0,867846295299249
0,878226725165741
0,83649937005242
0,870980174909326
0,911778304501762
0,853705487341314
0,935079031383663
0,850653817858642
0,976959398822432
0,919223454471861
0,933337130949978
0,885769161975517
0,878681087307139
0,886429917560209
0,925318891032824
0,921024385209282
0,886114525506395
0,894194784510311
0,947406959986622
0,923580784805918
0,986048967656127
0,875982871023282
0,920707544785449
1,00203120739806
0,948666041297263
0,923102199819912
0,941430375510964
0,861886341334962
0,981574251982863
0,930325020492706
1,0459924565413
0,919142341999649
0,951464724181204
0,947887232254145
0,995540019922269
0,96073190425413
1,09369470240135
1,03733008633281
1,08522215053249
0,979012853071818
0,972779137540237
0,926070995487507
1,0921331557323
1,00281682911818
1,20110161162915
0,941195272969401
1,1414769141915
1,08300670333417
1,0150101759127
0,979230111110774
1,0302131832059
1,05605229737448
1,12598239212788
1,08395888953372
1,08540799681444
1,03215729086665
1,15861154938802
1,1454656189937
1,04541814991662
1,09122675210804
1,07061867572398
1,18115096896057
1,17418728156031
1,0582561124976
1,16619843664102
1,12049017753707
1,10334124429893
1,14956043163843
1,2589678924563
0,965991497785998
1,1399640131277
1,18582674845117
1,19149778584419
1,1294194021276
1,35828824844275
1,13032710554551
1,53167206153337
0,8518814988753
1,15571855842468
1,25787961490138
1,37484443521369
1,33556154110835
1,85434546727015
1,07979229674248
0,851416038935216
1,07265922925516
1,23999528838259
0,962658822620524
1,51760657376797
1,31340156633716
1,23779077419049
1,01208491676497
0,993762153834273
0,988027586429489
1,63312850562915
1,69227270327849
2,37285235025533
1,04092639370233
1,23156498096703
1,42140284548503
1,11625345511369
1,05078665175231
1,01037624097562
1,19901051118285
1,49008078697074
1,23029040524467
1,49658210133549
0,90304473482232
1,47881040859126
5
5
0,839920112790671
2,28445484172551
1,00182948383262
0,696078093870675
1,08692384739548
1,57137596650737
1,08967774997917
5
1,68466412849605
1,11323434694647
1,37708278544455
1,91642269441357
0,826949970460573
5
1,35120568604117
1,23608583634663
5
