3596
4000,36533379555
650,420452594757
1
2
2
0,0590921180783602
0,0493154018863613
0,0543599755555952
0,0530632340762716
0,0604243639134871
0,0586082436404197
0,0687148607339547
0,0453789767674342
0,0563463152325953
0,0549770005669176
0,061808263476446
0,0523564808261788
0,058727952845979
0,0549800108936241
0,0537416251391438
0,048775315479796
0,0533986662872732
0,0423283776567275
0,0521237861806511
0,048586193602013
0,0636941806112167
0,0529986330499944
0,0645573097918095
0,0516575917646816
0,0566539226136195
0,0645388521140237
0,0576040451581368
0,0539265731015132
0,0638348920223586
0,0559045378539011
0,0550968326056127
0,0494707528627746
0,057689993794332
0,0546899089220525
0,0542790112183587
0,0503500917290907
0,0544850203930842
0,054006398224172
0,0602404542889853
0,0549597189191892
0,0657701934303854
0,0534158329311953
0,0670914858599239
0,0540887512206739
0,0638266322807155
0,0581306749345196
0,058670692939863
0,0517930357299603
0,061079227061193
0,0535848128489408
0,0619123615044217
0,0492108312582409
0,068647856277796
0,0630657260675923
0,0543201032203778
0,0639800675575081
0,070868034073873
0,0441775699931834
0,0497479756889057
0,0488865873060338
0,0778774013836656
0,0745309308447705
0,0509148290329662
0,0526265572620201
0,049402878028883
0,0569021598027349
0,0593511547378782
0,0532827859405581
0,0504167123689331
0,0535592699707391
0,0587868578378994
0,0542455973281287
0,0703057209821196
0,0499327053775804
0,0613583311591444
0,0569987698011532
0,0489593332898734
0,0585952708247879
0,0510870767999142
0,0528142158456148
0,0738477210469106
0,0599215329956762
0,0564128854632275
0,0430906711151036
0,0507954766285696
0,0681535304483816
0,0569481973342748
0,0371411965727311
0,0817948320737164
0,0606002141833942
0,0619606120241665
0,0548696161376799
0,0542802439870594
0,0469418362340681
0,0518300923305685
0,0488541073327544
0,0579071243751016
0,0495342809262077
0,0570098150475877
0,0552086694921644
0,0564611344094971
0,0409217880392825
0,101781391973946
0,050094546127368
0,0903780965785841
0,0726789584102214
0,0385321316070385
0,0934162721297037
0,0660928729249943
0,0536225446888404
0,0515408530394622
0,0522915761246312
0,0529804995926748
0,0564317896801885
0,0510483124772404
0,060260922109382
0,0910648746691656
0,0508012613894922
0,0562968552528644
0,0503482666189742
0,0374481479918172
0,0597250679711201
0,110191024451895
0,0536172214748948
0,0709786181913736
0,0494860441289304
0,0504515925130944
0,0742997528065201
0,0891902369177973
0,0483884330052352
0,0555831416078581
0,0470296491122962
0,0501865681632999
0,0375466060425237
0,0940853947120944
0,0678493975901408
0,0536283751750152
0,0483025188478684
0,0618706132896224
0,102078105704827
0,0711914438993635
0,0489222481576496
0,0427260477541346
0,0338922091807026
0,0982712318466087
0,0659604013773255
0,0405625660257004
0,0630433834391476
0,0751356867972063
0,0496842229873835
0,0572400364343921
0,0425376460092167
0,0723277059365956
0,0582163369220469
0,0188727596092527
0,0470863022213524
0,128433882858942
0,0566651390031607
0,114131937832055
0,062821001688691
0,064104149244826
0,0568412111523248
0,0535953083654414
0,0468792989667306
0,0567821869469434
0,0400716222759359
0,0527533759531644
0,083637038746893
0,0523726429281411
0,0504177899703664
0,0850931561601494
0,0735976016168074
0,0443556750707894
0,0936374389949568
0,0793867869848775
0,0382591293917325
0,0946701031183813
0,0683683026500972
0,0441291178490659
0,0530815705422894
0,0845388296688439
0,0504794152629283
0,0579057539499052
0,0442054802748051
0,056680517481517
0,0656541515831697
0,0608257721048293
0,0502476457743735
0,0639289939073346
0,0336431430320317
0,0623109808097852
0,0940075110741377
0,0924057667334072
0,0643261398173062
0,0630442693857286
0,0288940118235318
0,0782980336000359
0,0973890812695254
0,0569984046912663
0,0506626567534206
0,048001914888857
0,0467622217065686
0,0489894788360673
0,0430332676487447
0,0473554095820174
0,0291779622561549
0,0892529104841754
0,0777392326487326
0,0477065956716499
0,0446602655061229
0,052441563569649
0,0423704635583277
0,0899574091834
0,08807054447755
0,0573966027086146
0,0527941880736571
0,0417302606146281
0,0579106073798067
0,0776740221469118
0,0532647211900734
0,0588291227669025
0,0476128982082041
0,0520986336777678
0,0455846191933939
0,0458099471338165
0,0550785772117545
0,0590462103629453
0,0474568355621505
0,0477755548006357
0,0512692852796384
0,0635708142868213
0,0585735266829611
0,0547872263486273
0,0527397586088954
0,0432814710811452
0,0514561723445261
0,0761868538269532
0,0575725795598122
0,0587517073438884
0,051352920675721
0,0549806214780924
0,051580398239771
0,055313206089385
0,0455316191806772
0,0495124702968278
0,0449227112898941
0,0932648948230251
0,0648940832887904
0,0521141136508146
0,0381561033689132
0,0653079511386472
0,0676324061382414
0,0462292604698875
0,0568394141170702
0,0540362460880191
0,0394190064969904
0,0438475616218769
0,0837005255348505
0,0692109216562448
0,0482743967132471
0,0650943302749765
0,0591120551815625
0,0525497298294515
0,0446320078576002
0,0279077428486876
0,114723701058769
0,0740647715959492
0,0350067566666022
0,109038909042711
0,0793929176979576
0,0733590724888001
0,0494367142778422
0,0102674872396973
0,146053148807354
0,118043669346524
0,0594484510462661
0,0608423973935402
0,0762356707294935
0,0587327412632078
0,048216798254889
0,0565735386982059
0,0456702711897889
0,0686353670519373
0,111312203732455
0,121500955478612
0,0397857993069759
0,0721470876096997
0,0945817202038942
0,0599100637960253
0,0577827807890297
0,0481503736990652
0,0517997940687612
0,0652231753478175
0,0710371929370862
0,074289936246899
0,0613181669195151
0,0510357662664145
0,0896612229030816
0,0692689235340104
0,0517083396699407
0,0650521697931691
0,0683080911040923
0,054852633531131
0,0549274436028782
0,0526481749827097
0,0602020297618651
0,054316071806301
0,0390926351057779
0,115984843878018
0,0825741123353898
0,0548771273313867
0,083320798466631
0,0645262242276661
0,0550777321600905
0,0548936771408981
0,0560933579193254
0,0587470558297976
0,0506308078714049
0,0455505422465551
0,0771630572701697
0,0687466014746266
0,0533721817034019
0,0555820602165542
0,0459691278281791
0,0603944662083185
0,0587098983456664
0,0569308472123312
0,0597441594884265
0,0597455866997706
0,0510077724550521
0,0813884234000776
0,0849561415297732
0,0412312053245128
0,0770641082496008
0,10887436429777
0,0657943163589787
0,0581736099267545
0,0616628993890306
0,0646137971269812
0,0621060270129378
0,061409155923012
0,0589612918437862
0,059845908843602
0,0858282336304441
0,077592460560085
0,0575703236644264
0,0583634534387487
0,111591028845643
0,136930169084689
0,0920576013198221
0,076189759457035
0,0452350330030376
0,0836044232360959
0,107561635164269
0,088531058906549
0,10001426771749
0,0738055234957291
0,0813098299903826
0,0706734005277059
0,0715792902834807
0,0745348742731277
0,0752243601663038
0,0814693921292432
0,0841367944694342
0,080589620457022
0,0800405568276823
0,0730179507565385
0,0825611112104616
0,126200230185874
0,104922038748712
0,0876756954203635
0,0911757918396015
0,0811024323468799
0,106241207528285
0,123952947873706
0,132255173278446
0,115890341812053
0,118850779272912
0,137706799619175
0,105645241473716
0,10338001182362
0,0924065868751601
0,103046123895004
0,107555107069795
0,105382734875237
0,103823872210085
0,102415455191169
0,108195041716612
0,104995917980954
0,107545173061966
0,104856520875749
0,10642185013993
0,138806456494745
0,128455548873987
0,11625768741825
0,105645245704243
0,121775963718648
0,168723005675952
0,172741455895296
0,134906328578113
0,133674134631723
0,133703145887295
0,122767716015592
0,135064239006142
0,130907691512912
0,133607148856152
0,126259376222211
0,159091259443001
0,166634004560036
0,153066865969235
0,155879681420438
0,14338325416665
0,164260119386845
0,161652574309719
0,151840477744345
0,184071142691275
0,17034677236266
0,134452220227679
0,164500979938654
0,180887974424098
0,165027799175167
0,182835292235263
0,161123273682638
0,155632265536087
0,166252710655563
0,176085108153009
0,164296827386807
0,180382262697434
0,188703829929321
0,17849646620376
0,176112162058419
0,187948650378851
0,183205478851688
0,191279436234571
0,184868745048538
0,184922339555489
0,195381815092609
0,195983974298025
0,196507781123994
0,185995964947313
0,204990199814252
0,220779815773459
0,21365605789776
0,217496454476999
0,19442462710401
0,210944668641187
0,212452169054761
0,211674181160515
0,19809174407857
0,201740747771854
0,211968305845946
0,215828467607777
0,215879447057781
0,224853654278824
0,213890954374159
0,227254194648362
0,23441766473378
0,238027661597231
0,237347907028294
0,226813889953089
0,231643010121673
0,230844433532585
0,24602322063875
0,267236871877923
0,275075102298117
0,280914167358289
0,257585148773653
0,256016086275907
0,259109343087786
0,267394067733941
0,263508534913202
0,260283628132937
0,266447356817883
0,274928406835321
0,268672204568376
0,27626408474662
0,276557702194807
0,293427998000658
0,282379002271846
0,28690006903745
0,288293441175039
0,273060238875778
0,283479365298988
0,305948461226103
0,286571358114477
0,320260981941675
0,317853557619081
0,309096366259281
0,31561169765655
0,326876889055413
0,312020571249122
0,309008745601774
0,307391964585111
0,320680229851734
0,314208109801937
0,323092484914968
0,323220052929372
0,348977391138794
0,331271899201532
0,333646685173351
0,336278571114754
0,350362955432126
0,345043035141594
0,347318996500395
0,346041674591356
0,339224480685416
0,354453252830211
0,382910064435017
0,357886585398255
0,363553842292759
0,348087075456323
0,367059223272627
0,384402186761742
0,377670135278658
0,386625867876717
0,389924715793637
0,375044748133179
0,384486166749866
0,37843121545494
0,388312948582698
0,391631219418412
0,391826731518705
0,392545425911074
0,397525135486533
0,397236288313576
0,433514187148959
0,424020880756335
0,416643345626792
0,402973475261277
0,410664502808127
0,412173422934082
0,428493083842056
0,435175299648109
0,441460746798977
0,447723010207297
0,442249115433791
0,441094936475098
0,443694488017903
0,445679029956395
0,44469969949977
0,447393723863631
0,450514716749146
0,451366346361833
0,468362369645111
0,445742284508412
0,433844712886281
0,465009970602729
0,490321479589369
0,450247763768374
0,484595834934933
0,477146818662359
0,490777101190722
0,489872066351441
0,492409571781189
0,489946666866935
0,518535434131696
0,497480851623339
0,498755210680013
0,496170497957522
0,523212045866409
0,488812389128863
0,515059626612966
0,498087036987954
0,517008039477963
0,515356363877004
0,5388672661467
0,486942682616745
0,526479833324206
0,506306963123145
0,529991964380923
0,532239992371575
0,542413064366325
0,550297392450486
0,554305268638979
0,5300965783592
0,552680802890081
0,542969783072055
0,560958914416371
0,545830370211406
0,576028417423144
0,571026975618522
0,587501151791264
0,561232254191778
0,597409245301969
0,586374799544389
0,591046001245899
0,578229159465578
0,571134670265874
0,580307883699617
0,598142325822379
0,563358404335064
0,595879297216589
0,601078530465517
0,612031109390041
0,598863014663978
0,611034884061467
0,596327787615972
0,634515216624864
0,601301874081503
0,612803840458668
0,592120283639683
0,624271493948864
0,5999699911072
0,649470461333116
0,615140543822228
0,620605768959753
0,635573380055176
0,645886734738088
0,655141292711235
0,632869628047089
0,628303153134057
0,651176350022618
0,647011413663077
0,656001593101355
0,641735744090456
0,6550548060415
0,651279276668629
0,662707397956291
0,653562352576646
0,688441517129884
0,676826653360788
0,680242816877723
0,649477451455512
0,671865441583389
0,658176699439255
0,683323811118679
0,676867042928119
0,68358072552982
0,649551583573924
0,682399757763659
0,68256483137905
0,701754060003236
0,67110235011987
0,678502462818999
0,685711482788647
0,737141160193635
0,706645315589045
0,727665715028556
0,676673375957627
0,689617242383503
0,701003844993822
0,690595050338751
0,686314633027213
0,730356453530501
0,694665579372947
0,734777953801576
0,699864236567033
0,715821785211488
0,719292452879466
0,753274777646095
0,711572096152323
0,721147672992935
0,702767257301223
0,721606914163642
0,738579922888583
0,759592894324085
0,721299261904021
0,762218740719234
0,754618258819013
0,744698620843625
0,697616705770844
0,762715179988154
0,768065603550331
0,739138992130396
0,747907338690746
0,772103328774787
0,741864397166169
0,769521731948402
0,758203667076658
0,773460808812548
0,72224513206559
0,764959038128514
0,751696514285706
0,783525617002156
0,758940140736421
0,788872430476602
0,736516661743149
0,765020834729909
0,741638718556595
0,76863087418647
0,779873430663181
0,782164476312194
0,78326705177997
0,788704722937037
0,774916094995549
0,781469285136922
0,775460657836504
0,786179332498502
0,808123500575114
0,777851694513792
0,788887558059205
0,792981955862042
0,778314077413082
0,801656174606499
0,793465038967268
0,792447754725252
0,74827733550847
0,793793431869982
0,77578131233257
0,813332083545137
0,741120209631405
0,803318639910529
0,785330745288568
0,806350772170788
0,756846170950274
0,795387166725346
0,756672088193347
0,791475401628561
0,770228324096331
0,778221823850187
0,792355426400473
0,811879542349304
0,766078650086215
0,827849537935128
0,809795704364348
0,812930189130344
0,804991095075497
0,79684548031845
0,774375444892487
0,818338585760121
0,789237259130697
0,792399191281285
0,793922597827321
0,844812614343802
0,784698246679782
0,810499863529026
0,817830470213811
0,80888933810071
0,785203261561513
0,822102227273722
0,81437327333378
0,820340551782045
0,766247143014688
0,817354088378069
0,774543207517329
0,824783682383885
0,821517747036308
0,800602992236733
0,805688846823381
0,812173003596155
0,790025545169848
0,82025701201833
0,798685029509155
0,832916480538117
0,793727153648905
0,817178464460202
0,783953886369248
0,810330982097686
0,785171603460864
0,820487561599414
0,797695184356544
0,814942854387545
0,785876644245058
0,817764280169437
0,786942955751477
0,820695677598147
0,79549552606538
0,82584278079895
0,796235399713296
0,797111779059723
0,780733717329223
0,806121629460487
0,806844529557826
0,816149419317239
0,7903734732221
0,841575519627808
0,803216715908301
0,832641794634244
0,788860506066659
0,825978134468236
0,7560321586794
0,82683616993463
0,790412333785683
0,809156479227925
0,786567585739317
0,82111638696053
0,790288159963015
0,823103192369586
0,796402987919222
0,81098101403841
0,77418073422238
0,808125272101505
0,789785258559862
0,812247243357447
0,803782064002931
0,792610088540946
0,780378878691779
0,79063822642427
0,767507879049547
0,793027742287132
0,795266838200241
0,810375149205691
0,77522434996492
0,79145202598139
0,784694240707564
0,782306337813063
0,761697555722731
0,792863003767136
0,782004501141666
0,808863819514454
0,771240229203875
0,780744856693307
0,765712128816885
0,795844304879752
0,766741637708474
0,785077267806446
0,753524040968384
0,792518054858876
0,755013895349251
0,771005274776537
0,746290469664536
0,75124458707222
0,753461905297976
0,792342372410124
0,768624556640898
0,785868145910573
0,745067012146492
0,77193103996298
0,737745662695783
0,750804884045301
0,756309690854447
0,773381865663569
0,751181287253369
0,771640054594422
0,747512419839056
0,769476373887488
0,74049588968733
0,750472184006335
0,738659857937096
0,736170657036846
0,726557437827742
0,755224970014544
0,71795156531055
0,725873105332403
0,72816091473155
0,747044962728974
0,715256891690233
0,745825158547251
0,747079238184521
0,74059600314927
0,717769927833385
0,738370275231637
0,721341632355951
0,718656869496955
0,711958094274587
0,716935131159319
0,715353524943084
0,710227714880676
0,699494105293312
0,711771716286163
0,686353172958395
0,715607908362718
0,695637015245943
0,717800552073443
0,699273486541033
0,708527702372118
0,670195204056562
0,69605932917178
0,684938393225299
0,684280849220459
0,672201192121479
0,69348519024562
0,674585688780688
0,679958281975617
0,668742243729206
0,686475153266063
0,673332771720085
0,68920449743075
0,666863759005365
0,673196902723329
0,65401680164096
0,680515676917585
0,663829726397827
0,659711398454395
0,65762044581808
0,669187693467572
0,641835932921226
0,649619441566875
0,6523758766127
0,642112202625311
0,64223181372403
0,653549905586867
0,644298744609309
0,64912544418373
0,623679042348998
0,636474990700004
0,609656699051363
0,622017153332016
0,611065895375151
0,643578893568859
0,607799237895332
0,628961902197596
0,604837639039768
0,625612346375019
0,608182731386588
0,621021544473546
0,605751044765466
0,611591082651441
0,587677194922012
0,603482161861656
0,587588086616973
0,608350576866092
0,586421811966496
0,601377658609034
0,573601499546541
0,58872535267534
0,5799387912672
0,579631946585233
0,567375019041636
0,58226250877787
0,563265342576959
0,566431123608705
0,571372686996287
0,569464885187262
0,553561373767368
0,572236910511318
0,54658379752558
0,562341076173254
0,553343920412723
0,545906140399116
0,539019804127691
0,55241081550305
0,534863705790223
0,544046275834329
0,541794565839685
0,558365448799509
0,541678084438843
0,537562307743575
0,527943772656464
0,537428042104135
0,506198750877177
0,527730657962561
0,510621387171283
0,530678670534199
0,519678418824315
0,525589807828984
0,508220155167616
0,517279613966743
0,500631792006231
0,510915591888395
0,49879819567287
0,505843236815331
0,489644284036405
0,507728523934102
0,483534782242533
0,496764220184635
0,477626834942465
0,48392311432644
0,484548095813135
0,491534409996108
0,481723595191503
0,488634112501543
0,47460939056878
0,482483871617454
0,464855846251082
0,47634484983577
0,4566415756511
0,469711229220326
0,470137800828853
0,466249462091519
0,461522712111322
0,466518241589537
0,454034625299361
0,465253301270853
0,45478463029612
0,459942232230638
0,44597096027011
0,456955898549479
0,442756462100875
0,447439976529457
0,437048300083747
0,446604944658001
0,427417996408866
0,436266323590128
0,425900886736033
0,434990862715959
0,420128553351858
0,436861571974007
0,425012400690175
0,424423425620926
0,422984483486103
0,425375927606006
0,422046944344864
0,42335097641127
0,410548137938224
0,411605734982786
0,4103858630918
0,421083447093972
0,403977382140877
0,409034151076413
0,399828649209542
0,406088422857691
0,39784371151416
0,403896362884913
0,394913231126014
0,400411702808829
0,392220516890259
0,405181937829975
0,389966663945332
0,396176788519137
0,376566428285114
0,389073974281344
0,378150383331197
0,385406618563351
0,377024336359606
0,384554226036459
0,370872488284044
0,38085278526531
0,370115469135879
0,371591763698784
0,371913435284367
0,37237382400654
0,370373737414312
0,376436956117067
0,364789348151675
0,376030023796774
0,35428407962232
0,359793068605188
0,361025735703132
0,364411450693544
0,351666292398305
0,357611637990018
0,347237063172397
0,352046432921584
0,351250427133782
0,351202915902976
0,346381250030458
0,355684515405259
0,33887646498818
0,351798790711072
0,339222158556372
0,347819927388032
0,33624684863259
0,342700533230548
0,326740218841631
0,335842921332607
0,329702167262406
0,338294472072901
0,32119971417832
0,330985080495747
0,320132838534187
0,326244631037114
0,322852113808204
0,324946655262394
0,319572729949148
0,324846274196836
0,310432239478278
0,323304357698635
0,313204377049184
0,31255881470832
0,310790178514965
0,310784151029561
0,30766234464945
0,315145862398596
0,303928844953555
0,307439381079986
0,3001359782752
0,299278451112948
0,303413358465646
0,307927650129454
0,294127199039133
0,302414806533192
0,29701740665225
0,30639245811525
0,292355371072882
0,296216067179354
0,289439669370038
0,296055430912069
0,290749707908332
0,300357514135239
0,289344063215193
0,291818832243216
0,28257112304149
0,289936138725528
0,280323570592702
0,293925945043357
0,284271286600258
0,291660284848543
0,286020302135651
0,288320951366888
0,281631080888846
0,288510652317012
0,28110738497765
0,288666398761805
0,288364459311813
0,29112860552883
0,288386445333029
0,292228954558733
0,283927914244847
0,285302818586072
0,286971029785301
0,292674130953127
0,278313771732528
0,290585030373195
0,283795338855496
0,296258220251101
0,286518599675305
0,298090670328623
0,291797762871871
0,298555219852598
0,29588925872055
0,29251535726105
0,290782932072635
0,30372339044055
0,291217226903732
0,296719591741986
0,301250193321433
0,308330935548135
0,294129959723764
0,308257771939602
0,296029167202137
0,310218512049844
0,307736979726395
0,310878592622809
0,306282601423751
0,310601591543206
0,304348327182679
0,314962797096741
0,309164687586353
0,320121619406522
0,310322633270204
0,32051196097123
0,313274333504784
0,317733639303509
0,322254913325651
0,324596332822363
0,316266594433855
0,329686812748221
0,328227944454891
0,325069143294146
0,332969683882005
0,341163337233777
0,327312442158905
0,343079219828276
0,335329645750571
0,344878757688441
0,335779224724136
0,350016800486381
0,336732266970236
0,34976779828323
0,346282759028533
0,357516244470938
0,348895024634396
0,357185075785812
0,347826881321871
0,362551226546991
0,35069061234018
0,364904169844422
0,354632406189958
0,363602962327554
0,358693512391635
0,371079633065813
0,351449250910114
0,362730684364648
0,356357911477587
0,367242286169984
0,350539799638263
0,359178433078082
0,344697945830963
0,36156277271992
0,363836010532856
0,358918479214546
0,362924541725923
0,362060327867763
0,349901821147
0,360586162001764
0,352313322331046
0,362557066694787
0,352301693390329
0,361222274108297
0,351076228056385
0,358552100244679
0,353439867429277
0,358469872293634
0,353273006339006
0,36231342846288
0,35518762070661
0,359148892261595
0,351410175621773
0,356427354450406
0,349778933506368
0,358449662645757
0,359272104319668
0,363157351826867
0,353169911959574
0,362081619226313
0,350241045455569
0,358923442927871
0,358361618302175
0,362108534177375
0,357668354174797
0,365237201886739
0,36372096932963
0,375328481848607
0,362470686533366
0,363524516966348
0,352809670462464
0,36609519276519
0,354324069256005
0,362469264148814
0,362843252687158
0,358096262375064
0,354144675100945
0,367575278789214
0,352802714216649
0,361114685545564
0,348423254884116
0,360467597021555
0,352510893978383
0,34983025166957
0,344196478238109
0,355585238384031
0,345526565181644
0,353573791455214
0,337998976482864
0,34687081336007
0,329174622355779
0,3349628389767
0,336924962854983
0,338747735612016
0,327689446916414
0,333312177913452
0,324508602434391
0,331736920564606
0,32087919487936
0,332390146869983
0,319239545477982
0,324164107322619
0,318941555344398
0,316775317374869
0,310075592246943
0,312309949968309
0,30030127910787
0,306313750112541
0,298873429571731
0,305256126428624
0,296073601393281
0,307468454795662
0,293979560726577
0,303638569977799
0,285718791563124
0,294534667910909
0,285123221269413
0,292679818713656
0,287342060713392
0,287519011562705
0,282992451845699
0,288290991172903
0,274680673090155
0,283633945182081
0,278204427787854
0,279961872269981
0,274607743603328
0,279129499195067
0,270979041555273
0,276878733266917
0,265455531636653
0,277203817177603
0,26592595272565
0,269523084966213
0,262263586644219
0,266773262422545
0,261086690647345
0,266420769937324
0,261447478658816
0,262461793582784
0,253805289384851
0,259050297694147
0,25030105371499
0,262319004818227
0,258146565866254
0,260719209388207
0,248018517693723
0,255012847520136
0,250321519240297
0,252688219804778
0,243077393716667
0,256195332097893
0,246140349271009
0,247479038001988
0,23950817122172
0,244586483090908
0,23210272406902
0,246966408343182
0,239328826620665
0,242059823569144
0,237640469248598
0,24344480453671
0,237630421076938
0,241713897428543
0,231213249386094
0,240584390620802
0,232657285683007
0,238626009716319
0,229948649695208
0,237426012381671
0,228720844780782
0,234748148832357
0,229866399045071
0,230654546570333
0,229814923541628
0,228884569048143
0,220573372954365
0,232580828949239
0,222001107423734
0,23046992776659
0,221700512926445
0,22483891676741
0,225054134472238
0,226004238735264
0,213140888138998
0,230643309231347
0,220903820838474
0,222987555512315
0,215596364921822
0,223716397501193
0,209856071696171
0,216175382888417
0,210701052214659
0,219335782262511
0,212170157625725
0,220050493946773
0,213744565973691
0,217595504901878
0,215267911630177
0,219216858215623
0,214103174007718
0,214209777837657
0,208385622256488
0,213563489826232
0,210741361242369
0,216158093432176
0,206543616988484
0,214409057310895
0,206582556888698
0,214503300272981
0,206926146739942
0,208844360160686
0,204289990573271
0,207822165917865
0,202806285136059
0,208150088604591
0,204873698269424
0,210290366560485
0,197729926031122
0,207927853161565
0,202423729445402
0,205592490002243
0,196523508084516
0,204965436327081
0,198798256973012
0,201073895548396
0,19953419484248
0,201403610388989
0,199495447106649
0,198797528112208
0,198743513050082
0,203838990496677
0,197058145663543
0,198191418427438
0,197559256510212
0,197681326521321
0,193111025166213
0,202002030252167
0,195406644269248
0,20208845142552
0,196840470292476
0,205353338079816
0,195482308773967
0,201852935233504
0,193151284619878
0,199020798764285
0,191698366394798
0,198231185007768
0,192526860593612
0,194416588940321
0,189686815679065
0,199646796200579
0,192981757361107
0,197741618263534
0,192198969932505
0,199142265798683
0,186844949870795
0,194755646766484
0,187057002422541
0,192352869431322
0,19031276453241
0,195137188596395
0,185247854880196
0,190716883778329
0,18517355624536
0,192053081983007
0,183980240547154
0,190694703333994
0,183253403888729
0,189938083551163
0,18515600042172
0,187690447928584
0,180623259666348
0,18617587838876
0,179634848886306
0,183791721952469
0,181944506108884
0,184084671234232
0,173228373503118
0,183187403745272
0,175704515247418
0,181696044718992
0,176098303266342
0,181294332966971
0,17353592646882
0,180461753183151
0,172934111161705
0,17659154000645
0,173462000550672
0,179858601289795
0,173116814003702
0,176809248756046
0,169539837909577
0,176116686614988
0,170289116249126
0,173712356849303
0,166632542370972
0,176400550902305
0,166690588780882
0,173527984803314
0,168633606599669
0,174202328467447
0,168221124807577
0,168192073946665
0,164733535418566
0,166644352108624
0,16362763504316
0,168242627291183
0,160766906368585
0,166621298718046
0,16484938242746
0,166645009050561
0,161523198736535
0,164164153447472
0,160375108869122
0,163366777186742
0,161739452425132
0,164738826304135
0,156586571170817
0,160816884505504
0,158951722030445
0,160341140610167
0,150172287703346
0,159993521447735
0,157425672568016
0,157187310977596
0,154650925451625
0,157867148125059
0,150411306752203
0,151099250506968
0,146732554103992
0,148760454651678
0,146701616652367
0,152509131526296
0,147163406670343
0,152439370644702
0,143791058171712
0,149732148010615
0,14557458348367
0,14637810248243
0,141067979596826
0,143823880389561
0,137457125803201
0,143628007518877
0,140633643901001
0,146734519458861
0,132342829027969
0,139639970343051
0,133582017205328
0,13839573949894
0,136842982391838
0,134187737302461
0,133187114479633
0,139555350315538
0,1334264865068
0,140623814676653
0,136457799203962
0,135694708798798
0,132737409561841
0,136005901244733
0,128741178745927
0,135925688268377
0,134847259006819
0,136450188976826
0,131155756717903
0,12999952002879
0,124206024258179
0,134007483273462
0,130901042180724
0,134893989861051
0,129734520411654
0,135107822231664
0,124631568462632
0,128633465413901
0,127750426280341
0,133000432496879
0,123510891223777
0,128399005875953
0,122555116952987
0,130717429717327
0,122348380443375
0,127236542835045
0,126582534129522
0,123979335463479
0,121014607478304
0,127606403451195
0,120883951730388
0,124093116241879
0,118834530260247
0,125810708826099
0,118494364065921
0,123300805881986
0,1181022491625
0,121277003980192
0,114725697470828
0,119447390163017
0,115732590454301
0,120149271486424
0,117375714214222
0,12144226586588
0,116414829813689
0,118023448906839
0,113284764807727
0,12050492945856
0,113075992278667
0,117138854161936
0,111541193597861
0,115847035621226
0,114589556249421
0,116646909327421
0,111873698973576
0,118899381738858
0,111669460380006
0,115000687079738
0,109260923525993
0,113332017897169
0,109916640684646
0,115080211674817
0,108812496561019
0,114885541708588
0,108857147824173
0,117490889615737
0,109027175188173
0,11171046455402
0,105824849073488
0,115903975756947
0,107860406660032
0,114091841239204
0,105641041099512
0,111439163653701
0,107135347183861
0,111813967157727
0,105313932012027
0,110643253099011
0,105059990887193
0,111873467505013
0,106456751804309
0,109617347712557
0,105281391411577
0,112402037543473
0,107405828674223
0,111102350143438
0,106574929931381
0,110199371410147
0,102347993178139
0,107122195177351
0,101872104831407
0,106892406331799
0,104394536602012
0,108341924817548
0,102833053535902
0,10615227175625
0,102840799377068
0,103036771738662
0,0994031395950022
0,103461864470915
0,0989248935687749
0,104783489205943
0,10116248598425
0,101807439286017
0,0995935208097242
0,102702720835063
0,0983187330744266
0,100818413494876
0,0945459299333858
0,101409256387797
0,0961857750186579
0,100099231143436
0,0945919978682642
0,0982817375197535
0,0964705549985025
0,100040357271017
0,0942702542904768
0,101577651310782
0,0976218305494586
0,0998236502136167
0,092660932235914
0,0963940965783499
0,0946847090901311
0,0980958068053031
0,0942336177754075
0,0982733871905969
0,0938112850085631
0,0967724695516511
0,0930710195009591
0,0960073725456073
0,0898286636792071
0,099826062994833
0,0900654215209288
0,0962242486599126
0,0915511378845612
0,0969486285667271
0,0923777758874917
0,0947467024559186
0,0918474532503668
0,0965758090257451
0,0914452134577991
0,0931939748243489
0,0879741890017579
0,0928033175541877
0,0889183251064126
0,0937311400635916
0,0878094312264255
0,0914560826588763
0,0870427242481433
0,0919744375198027
0,0878220419260582
0,0897406485444899
0,085394218814339
0,0911443553458746
0,0849596140224536
0,0897633499753178
0,0867153716738163
0,086680252243766
0,0829119476037422
0,0885494972470001
0,0859315941798322
0,0882505015407173
0,0817723010953836
0,0879945036386982
0,0794934788341185
0,0854227866036926
0,0792187326663828
0,0830902119366712
0,0799448211477215
0,0823070300969171
0,0793149121744815
0,0820889059315842
0,0784577528840315
0,0828246886964582
0,0789356645446613
0,0806415895394672
0,0779906274857894
0,0812008125801634
0,0776987803477315
0,0834152574000315
0,0760669787133674
0,0807291087647608
0,0767254172133332
0,0809108450596706
0,0746526510550901
0,0802980954778521
0,0759262774944702
0,0763152936771027
0,0738071877582285
0,0789171646859732
0,0742018711610506
0,0794650095186401
0,0731001039560803
0,0764591386979008
0,0734300920430028
0,0780708077744363
0,0739419950586137
0,0762716014183234
0,0699953245069955
0,0770673551358989
0,0729453401490817
0,0747120192909089
0,0726110207313094
0,0739032404408958
0,0698254183824357
0,0761028502391851
0,0675333209243526
0,0723730328102119
0,072238608786534
0,0742897250945391
0,0682140577230498
0,073341243238129
0,0698943746871059
0,073668954283595
0,0694019153489745
0,0743588675820673
0,0674110547744537
0,0730420602488076
0,066660804258562
0,0703553483619041
0,0645326227065258
0,0695689825151913
0,0660750862700031
0,0682821521417151
0,064100335555394
0,0679327901419818
0,06469155122415
0,0675658634040811
0,0613449934989382
0,0670046674197516
0,0623988298860344
0,0680129378749911
0,0630645241662742
0,0676605305095781
0,0602149649837866
0,0634485648666548
0,0606532313016409
0,0677102886208877
0,0636265794391115
0,0653185014849417
0,0639210378134309
0,0662643490847592
0,0629155915341028
0,0696067267558686
0,0588457763630537
0,0663219198490565
0,0616794208709054
0,0638276275766359
0,0612292670278476
0,0693542071299718
0,0603553348674748
0,0644246642045726
0,0602730328780954
0,0654433549697895
0,0611665420652687
0,0696319423054386
0,0597481517298104
0,0659074546372563
0,0608314760869486
0,0681766053484221
0,0603771618580016
0,0682307807079913
0,0569878592124269
0,0695136313621708
0,0609937230411231
0,0675117468524855
0,0528028890264093
0,063725995189326
0,0521368503572341
0,0613947208847745
0,0577769807758309
0,0656688104555
0,0486810638303172
0,0611019666470118
0,0524062362556415
0,0640808765202178
0,0460618995863128
0,0593579285795094
0,0498424897027381
0,0539294800016842
0,0541027692864242
0,0675695810285745
0,0420562984123445
0,0646814263326007
0,0530068209422406
0,0661478065787282
0,0510967202239607
0,0649999238176284
0,0545818289390354
0,0668880744766379
0,0488561476771609
0,065753639061674
0,044116974470775
0,0635325153643432
0,0431538305934901
0,0686010272808868
0,0399517565412133
0,0678309211669572
0,041086520168914
0,0679815362894493
0,0411550880870976
0,0708792224372432
0,0381444875292558
0,0726970647096361
0,0329528796175639
0,0708045542968318
0,0320222770561973
0,0741914920346491
0,0391362858706169
0,0843010451041985
0,0352573348192345
0,0782651311100222
0,0307935442054785
0,0776978886058891
0,0358803149834429
0,0813131953534256
0,0350846843037679
0,073609131511582
0,0454012431483162
0,0733354829424549
0,0475956413159332
0,0590995443013644
0,0590001971313692
0,0545977734353633
0,0658709096513534
0,0454343879844539
0,0743307850263444
0,0393042342839276
0,081707978570263
0,0414661094862382
0,0698936306656085
0,0449007369182962
0,0691068793331745
0,0516807964256601
0,0618299792322728
0,0558790829358097
0,0545088854216695
0,061586572557633
0,0551312949723426
0,0567343222541943
0,0551389258519792
0,054776943336306
0,0577078071953093
0,0511793699610857
0,0585667341330569
0,053771236955166
0,0596491518700752
0,0536234769652388
0,0570425890943049
0,0539420559274032
0,0542947455906759
0,0540988541403551
0,0537884538128839
0,0522932122007257
0,0556047012025362
0,0538186299371929
0,0537575188655776
0,0531059906986884
0,0540619409720332
0,0540716054842848
0,0532716932666375
0,05364620630244
0,0573365895830351
0,0540131315052399
0,0532429202214199
0,0542077773172096
0,0533070882457748
0,052982035892285
0,0555488754159088
0,0531449951003212
0,0529521526607746
0,054898294740532
0,0533883348475575
0,0553667192334369
0,0548301156051639
0,0545602797189615
0,0556414288803243
0,0537478997122635
0,0538869974730991
0,0549209637025281
0,0550022428409132
0,0538533697578028
0,0531820327441299
0,0548339915107388
0,0558625274178761
0,0523484450132396
0,0543670092359248
0,0549816512205898
0,0540973423971693
0,0557100335836284
0,0554157475576762
0,0558156374939691
0,0569553038938184
0,0554722872244042
0,0556487997011502
0,0522203063476725
0,0541584819614595
0,054853290361349
0,0544172633540048
0,0527406208899162
0,0543355236575656
0,0563920886433176
0,0560955022574721
0,0532805309785944
0,0534914292628313
0,0539290086875771
0,0545074717594547
0,0528926307494433
0,0532571484364575
0,0547626039555178
0,0537404759514273
0,0548128046401332
0,0556009030277474
0,0538411287931612
0,0553657256414977
0,0533490322113264
0,0543622850364681
0,0573543415929611
0,053314294559836
0,0538706108450888
0,0560272305244297
0,0563167115587837
0,0525746477773953
0,0552300006235454
0,0543067591490305
0,0559631283441254
0,0568630832050857
0,0570879267878693
0,0548262555521322
0,0559660828724217
0,0572951951742562
0,0569522987686305
0,056622392934083
0,0551077908620317
0,0556463411637654
0,0568650742417476
0,0576097376970237
0,0575420224819346
0,0544883045041138
0,0577201667916984
0,0549436292782165
0,0570800830768275
0,0552292145831134
0,0558427325645556
0,0568719152853448
0,058430189736796
0,0565091900954557
0,058310628378783
0,0547340604473437
0,057201416540982
0,0574149563424183
0,0575151151727061
0,0541289254663851
0,0573167820745934
0,0557798143389997
0,0585724648640315
0,0583038552856202
0,0579991683610908
0,0574680634944318
0,0576270096534918
0,0569086663926958
0,0587667335190443
0,0562989287329306
0,0583882304803498
0,0571466132122332
0,0589585017894465
0,0585366589132855
0,0572617060822213
0,0556571851322617
0,0589973036593731
0,0563731098141175
0,0600161631522029
0,0573628127193342
0,0586027430307847
0,0571386914922837
0,0593302512427543
0,0559096400305123
0,0590917028101026
0,0582121994607856
0,0589861943000527
0,0562720869809553
0,0588629489957436
0,0566005951409045
0,0587428008945414
0,0579595265916312
0,0604118010333821
0,0589550997062138
0,0588812722951988
0,0583720098700545
0,0584659014326011
0,0590589999077308
0,0609507811002992
0,0584344432314974
0,0600835971599728
0,0594559564684359
0,0605098530574569
0,0592124112502047
0,060897842622468
0,0610859027969125
0,0594447120538938
0,0594165731895877
0,0606369772546042
0,0599648279101394
0,0583252785295268
0,0600204899331764
0,0620028506808708
0,0568071035314635
0,0603017111373436
0,059333265457778
0,0610992262954692
0,057823112120085
0,0588183559235676
0,0596896096125007
0,0602911560849196
0,059150512307492
0,0596104358848812
0,0582092302889641
0,0584223008458416
0,0585456539079609
0,0599281918496857
0,0575972418558495
0,0580052514076917
0,0578702456872266
0,0590795940097656
0,0550007083020677
0,059710554585806
0,0563621168348256
0,0578877407301711
0,0564393919977022
0,0568116546386833
0,056411276091646
0,0578189626566347
0,0564035881055744
0,0566565837549321
0,057280195330391
0,0592264263161654
0,054290985724856
0,0562140469335249
0,0554162284859272
0,0552252140512613
0,0548225446156452
0,0584730505662989
0,0548232124452401
0,0565935091032403
0,0548632668439023
0,0571800614858075
0,0565057693369918
0,0568495368955463
0,0571857856481413
0,0566325870247246
0,0555159874892
0,0565050886004878
0,0555609524075423
0,0549808958228964
0,0545954042454723
0,0562605909921332
0,0564969307554382
0,055875893163788
0,0564611907240021
0,0590158457744586
0,0565433707258194
0,0559914110437585
0,0545370849024327
0,0556578306847604
0,0546092559758812
0,0551329403153394
0,0541326002164641
0,0578653128411439
0,0527519839526213
0,0551608832898286
0,0543684252707505
0,0575639723608451
0,054976869981515
0,0570881495538011
0,0555662178434895
0,0547203346483224
0,0553270207543374
0,0565710809033921
0,0527466660863316
0,0549184334415261
0,0524967144475355
0,0539144316846006
0,053040875381717
0,0545986871746947
0,0541935368748625
0,0548016563451414
0,0550655977181356
0,0560845125084695
0,0537487542996779
0,0558572945046272
0,0537977632968325
0,0524819945729659
0,0536225618826357
0,0540809160805729
0,0555367570140088
0,0571338816963563
0,0517707118412781
0,0565668545975477
0,0533706469193882
0,0538756409398544
0,0516569544748615
0,0543579796183765
0,0521565819269526
0,0553635776173936
0,0527531723300611
0,0513652463629586
0,0507424208984256
0,0542981993070285
0,053913080408035
0,0535432884470685
0,0513041117225278
0,0546797639522626
0,0519717200822668
0,0527311940293664
0,0514311710041762
0,0535176616901673
0,0527365217224318
0,054596155256096
0,0514591141059945
0,0532089903282969
0,0547628335392468
0,0545542959347767
0,0518672951565591
0,0543458049015892
0,051366688037474
0,0537033739537011
0,0502686375171297
0,0517185395433465
0,0496422830655641
0,0511640848225331
0,0499073757694177
0,0521752997826592
0,0488149030938112
0,0503277638195348
0,0495954965894667
0,0518322194065544
0,0499425050923665
0,0534500811332158
0,0501397876547125
0,0506874222622864
0,048014505479979
0,0506696253988097
0,0487817028603683
0,0479741895226062
0,0493651395528595
0,0515052101746541
0,0533825068231657
0,0492265763136638
0,0463756629962245
0,0486080623756472
0,0457459020881342
0,0498661155389884
0,0483225055158863
0,0478439807827765
0,0471748303600145
0,0477944910454698
0,0456817426748365
0,0447675637928905
0,0467371070135197
0,0467148604503003
0,0418414344327697
0,0464399001891392
0,0474750342012673
0,0468047842965533
0,0453429989396209
0,0466818645739382
0,045484150297846
0,0453225469563033
0,0457314082744213
0,0463977071517683
0,0443251049093088
0,0466025049136655
0,0466028858747135
0,0551377289691352
0,0452881865117147
0,04631417636549
0,0468734401979794
0,0473320108594141
0,0442929315769862
0,0481521456437807
0,0440154086667271
0,0467445658819364
0,0444952825470221
0,0468515528838057
0,043145307897917
0,0443224660762778
0,0440595997518906
0,044827574264231
0,0410006537879994
0,0450444513776431
0,0441941908921895
0,0455460336591426
0,0414917770243096
0,044389384802772
0,0432007016955966
0,045117002669229
0,0425605531614077
0,0448616605436113
0,0417318679454894
0,0496051949405066
0,0466791954878564
0,0460007438654923
0,0431089738295535
0,0445592732158407
0,043055651448836
0,0446378370084044
0,0427734214985888
0,0434504423354884
0,0414436097312737
0,0433477336047846
0,0431702208981685
0,0444648718755381
0,0415060926661746
0,0432081757177071
0,0419161073417934
0,043716358426534
0,0400596398479652
0,0419495511460112
0,0408615540505172
0,0415100621444446
0,0389760443561039
0,0457455077679511
0,0434043391463683
0,0446631839029621
0,0404828045375337
0,0449506941639315
0,0599030567861118
0,0460726377582589
0,0432484896584473
0,0422273817971917
0,0411766445115555
0,0409276684777547
0,0417765486708574
0,0411020814222974
0,0402091363318777
0,0405393631170382
0,0403673046737077
0,0408720390127692
0,040249366026999
0,0428371204910566
0,0389680421682514
0,0407304398700074
0,0420411037773493
0,0405833958349131
0,0403703114333436
0,0409285211464019
0,0420895479663026
0,0515759161824936
0,0497265952868616
0,0437344372239969
0,0418265256511631
0,0360569612082788
0,057830666360685
0,049894153452447
0,0401234390290008
0,0467836640287979
0,0419165660756225
0,0426026314414285
0,0388596761194974
0,0408868170349819
0,0397717771837819
0,04777040888345
0,0405573001071186
0,0437587673183225
0,0398168617331165
0,0402196436272628
0,0413146957518208
0,0410951697529119
0,0393237494584561
0,0427252923843868
0,039063623519714
0,0413526857292118
0,0394926374056492
0,0380903990055209
0,0396664171922223
0,0400850995562423
0,0407306980727094
0,0489364653123061
0,0394198939601215
0,0436073198247387
0,0415178958217811
0,0389417697298955
0,0444485322206035
0,0591474654269465
0,0386238356323831
0,0439322662371191
0,0388721113268642
0,04307388755893
0,0371954919692082
0,0383980504340513
0,0402203013489731
0,038720085667501
0,0378843146993924
0,0415004846152883
0,039844772445274
0,0413474971738272
0,0393385421396018
0,042156746135011
0,0399985226541706
0,0420034191034857
0,0409934724865779
0,041267000029341
0,0432269344660921
0,0409114816776113
0,052777731266741
0,066335402891213
0,0481947370940059
0,0526597970232574
0,0421504684541596
0,045755158576603
0,0400795668886408
0,0421201961930438
0,0391948281817049
0,044901391747867
0,041939705930589
0,0426658515075529
0,0411652125810509
0,04260681441959
0,0377246231467599
0,0417873149199621
0,038086837897456
0,0418409579180333
0,0387137911305225
0,0429318283253948
0,0379157902191723
0,0427523744939421
0,0378921230028553
0,0474199844409004
0,0454692301181956
0,0461864805245657
0,0347024712445057
0,0589180528163918
0,0669291620191115
0,0472831743516831
0,0500825225794182
0,0407589299436454
0,0424725300103887
0,042812832555721
0,0429386345439322
0,048707993332065
0,040575628442847
0,0408067987531232
0,0411227895882021
0,0456844283996515
0,0445302320627041
0,0369777244245534
0,0430358700947547
0,0716408508914907
0,0506309505701983
0,0462030605611234
0,0415243822654867
0,0442414903402083
0,0711355680664356
0,04800299198712
0,0442626154776422
0,0492667278467931
0,0402334189755329
0,0442133481734885
0,040645440417015
0,0442443741035773
0,0481624354649932
0,0481252274818578
0,0410881723891485
0,0451067024697826
0,0417203117232287
0,0500938436909182
0,0467381515440296
0,0515808846299201
0,0537487641466825
0,0460041364245624
0,0468485690492658
0,0511368959429979
0,0447632531942605
0,0481800965446203
0,0448358297021036
0,0441210961993761
0,0509390811683007
0,0579453905488412
0,0482457152490618
0,0592545337774891
0,0590820895493851
0,0462771560003129
0,0481413830631179
0,0587031618826916
0,0549410173191991
0,0458772117250211
0,048548441788562
0,0781268341734514
0,0567790526721605
0,0657126428222785
0,0509467857131393
0,0491173787935944
0,0484236966640788
0,0509317237637486
0,0418887570917051
0,0577926579110709
0,0537324388247411
0,0471356250102577
0,047758678938769
0,0511505824291275
0,0598824192765971
0,0539869153977776
0,0507387756114758
0,0483801623009813
0,0478043097234596
0,0610103753555997
0,0586699660382683
0,0447465796206812
0,0778404587456487
0,0763773755335007
0,0700177891475843
0,0621034097899947
0,0514870158884498
0,0822764304475991
0,0586312017476116
0,0555228671060949
0,0540560834679518
0,0547737691383453
0,0500758242881136
0,0484729912205977
0,0845257036868651
0,066870862155188
0,0493173610146607
0,0623770841133241
0,0538313477111311
0,076164144717952
0,0697403561024216
0,0557692068231542
0,0580555388172306
0,0602547836436298
0,0510592526791722
0,08285460698135
0,0816536518658034
0,0658174405883802
0,0880637008718885
0,0773830808890259
0,07797877565131
0,0721523154533339
0,0667462258327465
0,0729335608360859
0,0809272594769701
0,0694911213037931
0,0589298697051679
0,0736954718061841
0,0907878243228888
0,0707201439535973
0,0731390394143525
0,0675085874077374
0,0579092686892076
0,0919736783478763
0,128520379366179
0,102894229083576
0,0800632448376649
0,0757453236860185
0,0964371825257731
0,0826163859510971
0,0720378552072314
0,0760403545810027
0,0755396168448603
0,0768905777728602
0,0798263346223528
0,093085246997075
0,0835559624285818
0,0824779451962054
0,0799478778877799
0,0765834307233468
0,0999316224823135
0,132627570314918
0,114291120905947
0,103516921390739
0,108979729976821
0,113115082167238
0,0995267322904198
0,0961687966776249
0,0907752282697272
0,0996019310325648
0,0947927654050459
0,0961684310250341
0,0952852273367556
0,11468780120406
0,114007654639817
0,113855267669672
0,126336062676892
0,111952093071833
0,103625083152756
0,105327043738676
0,229011252239229
0,155949274545966
0,122682459875846
0,129271550083637
0,126776484412871
0,193345033887464
0,148493447533464
0,134072044301234
0,136098530021853
0,137751830177789
0,143862631325129
0,158411841142346
0,15804008941029
0,167817790645846
0,159349777999449
0,15858166503491
0,170105166545846
0,239167305707322
0,226830964780419
0,203933760290535
0,187485828014599
0,205205582030738
0,211164814264799
0,200882018352465
0,205220271697147
0,203825309643949
0,209161242139789
0,267859071927951
0,237146160175105
0,224250736550433
0,235987550462368
0,248860564440451
0,244493478091918
0,273677839446334
0,289729957160057
0,258391390854405
0,262600525450966
0,26222267856366
0,268707984299298
0,268102042403457
0,300704963857045
0,302858060731423
0,287398330963149
0,294972598490408
0,297449409247305
0,299954022294226
0,302919991501444
0,304686692027068
0,303689462279605
0,328876077178705
0,353897407306006
0,42703047110118
0,365028240265713
0,321461185571101
0,319628436379217
0,316345613079719
0,347803340059712
0,348656508886588
0,358306646551777
0,360496113826596
0,322556092284134
0,323888270512849
0,328875237334847
0,333799947265778
0,330418494633766
0,325368608377115
0,325302733523967
0,339421307979967
0,335341320979712
0,334642320488973
0,407820889565601
0,341380148312781
0,320221146422291
0,323714107472429
0,317596252573843
0,323578652923586
0,324197799190404
0,326069281150252
0,331374570779235
0,322906655236194
0,308294870324645
0,308890184552973
0,314041030999007
0,334289793072438
0,307837023843293
0,304201369435499
0,295848626418394
0,296792495124057
0,287125746906105
0,297469524592548
0,334489671104207
0,298284458420621
0,282110100670951
0,287725048973853
0,278962361075365
0,273529233883787
0,270015907110736
0,281885292465023
0,273749895554066
0,270071344594753
0,2699895398734
0,26855792053479
0,261068816473906
0,267234868782666
0,27030983782243
0,270683619995696
0,26215409981362
0,267934943235807
0,260249879476863
0,265414078794512
0,260372790558255
0,26055412216487
0,26226597633848
0,269598797288719
0,263536951598926
0,259901690549367
0,255992096702814
0,257639387007516
0,260182307306019
0,261218756176802
0,256597992180602
0,260638216518261
0,251659870337608
0,256561774636519
0,254669993227832
0,254565313517667
0,254528114655166
0,257092988144651
0,255317326789407
0,252416053644041
0,252505935134011
0,253067498197959
0,255587984356651
0,287467118305532
0,28652083941706
0,252220467864651
0,249598136392079
0,250895397926906
0,242044525225216
0,242603492390424
0,268749008187149
0,278948259700747
0,236987702774503
0,242041508566861
0,232629889121174
0,246493048223119
0,244311916438342
0,239278492050267
0,23091161017178
0,231971029967686
0,240979983310741
0,326121103459316
0,274845479725973
0,314299956953182
0,252945490761934
0,223424550465548
0,23738912890485
0,261500176003758
0,234985383871747
0,217974676175102
0,227372178083866
0,239437423523386
0,236841193540141
0,218587888436796
0,219421576693492
0,216647467688673
0,227935942630579
0,248454460864526
0,228576891451667
0,233503675422441
0,25124001503527
0,237475315244932
0,241948563222907
0,294604665512016
0,241171546519651
0,210228508253456
0,203467083280241
0,207033403121303
0,218662876520322
0,237183005119015
0,217706492979269
0,208822001585311
0,200078695847
0,189707950956148
0,198828700193736
0,218418594284571
0,196923436632517
0,200334759774943
0,208860931545187
0,200318985796372
0,17992930633151
0,216196205046158
0,21536146096509
0,244319645413465
0,192292003333129
0,178329048403444
0,200360987691439
0,214329874571338
0,198092811509597
0,192518683360366
0,172481322158821
0,179599378340649
0,193119131413187
0,179063880216535
0,178226260216437
0,187776404204458
0,192814917681228
0,214017377660153
0,231534338928259
0,221267830315163
0,178526069276229
0,16266421830836
0,157203248414249
0,173433939275175
0,160681392089545
0,161853750472071
0,167012511081187
0,176756228425858
0,166059451661362
0,192124369747635
0,17934058012386
0,164841264360047
0,165235534138623
0,160839946006543
0,170684901380748
0,202893115823717
0,20995393332753
0,18817838662897
0,172445166612621
0,188284679371762
0,184795307316178
0,178300661083937
0,180981157075617
0,182052333502483
0,185136016685543
0,186317960793644
0,19275089599862
0,193019848313787
0,198576593017378
0,199405496369053
0,22564033758805
0,22862740970156
0,218525051774487
0,216986288827467
0,263524962411843
0,247737885309985
0,251402523526705
0,232494535540795
0,234798057817261
0,238953003868153
0,242577168954043
0,239718273209205
0,252595376008075
0,27316467723869
0,264571508985968
0,25438301101644
0,266845253277357
0,254518010264884
0,27569283863877
0,27967669741143
0,302795534195985
0,304410043540184
0,325911689037251
0,29527305501007
0,280649101352619
0,28233266071606
0,281635496640359
0,289193277536949
0,278156152336479
0,280204795945593
0,287530471641375
0,305780532652676
0,298124998371365
0,286032175409742
0,293051055851063
0,290430934241053
0,294422289646104
0,293530393397452
0,300101492876543
0,298814148154242
0,29895395177108
0,296603432833646
0,30232666474448
0,345525196646572
0,34496823600613
0,307444356573639
0,318563109091474
0,315168935961977
0,319444597233365
0,317870365738799
0,328568104021161
0,33857081041098
0,324158089188731
0,322773472342732
0,333069386652152
0,326244439298837
0,34893804220169
0,347233920914916
0,34382985696386
0,330961513397658
0,343066251594404
0,347857764424825
0,392814059713281
0,368781947953424
0,359268427337362
0,362249882020041
0,350959161416166
0,358161766287193
0,350884520962932
0,359333581724863
0,356089283168716
0,360315375391715
0,35056994975346
0,356302390837154
0,353048052274578
0,354345489057111
0,358946003486126
0,370511546186157
0,364910633340307
0,351740552995417
0,358016498054109
0,348754512446855
0,357726121035267
0,367654102894206
0,372588302675565
0,361017687778751
0,354396191470146
0,3570113028043
0,373066112845633
0,372376230111922
0,35635394887304
0,346621597257858
0,354532406315916
0,351345153283989
0,351534926987771
0,355507417404889
0,372139991254171
0,375391288716185
0,357499974514108
0,363005768364105
0,359130584145633
0,368912377285376
0,364086747448828
0,371107810511929
0,370321867502002
0,376458350830758
0,376462609491227
0,37966435180499
0,375619934141608
0,382099824800901
0,381704409561411
0,384334102537841
0,374807209647541
0,37189835716829
0,369898364677581
0,374193806490492
0,377363331451584
0,368771338503202
0,358989915808908
0,36677932840197
0,352616873807662
0,36248209980441
0,371496711446832
0,36836397184755
0,353623859819476
0,357060967035931
0,339335003640746
0,347825775486934
0,339033477493158
0,337018103543286
0,337635644250878
0,338296971638059
0,330381613975878
0,329321484233903
0,324270896158884
0,32595785963895
0,328193428969428
0,330013644643393
0,323657708398976
0,322110667681721
0,319824158806539
0,323879020746561
0,319016268100136
0,322761689410646
0,320555808943044
0,325048968125749
0,325939034928447
0,33816823499828
0,328228642372487
0,328083222199807
0,327440704209499
0,326665060618254
0,321527534731554
0,315495638305833
0,319157452540805
0,316292075955164
0,317051222121685
0,319245019390496
0,320255392981964
0,316941193178276
0,319161609084504
0,31836458033352
0,317543645672269
0,316955705569641
0,315642970762982
0,312334579291669
0,316675586961137
0,317708180130366
0,319707700142696
0,321287449653984
0,318485511813417
0,320150594446973
0,316579869379707
0,319824183687104
0,323172776052898
0,321911145441367
0,319412623187702
0,317584984822827
0,317704278235409
0,319149361062005
0,314895095902881
0,318054719448558
0,314869453849277
0,313086569749528
0,313996933791755
0,311343996461852
0,308121708429309
0,308852507956863
0,311563868052201
0,30786377670828
0,30536882588464
0,302861623143221
0,300747953370249
0,298528354986447
0,292001199599712
0,290971098826434
0,288169665990208
0,288024362065074
0,284097219935974
0,284812702223682
0,281789761811441
0,278469169461414
0,27875230384593
0,281221602096541
0,276287877750976
0,2742140390032
0,276337641396661
0,275585565456717
0,270832142716339
0,271414434982005
0,271525246872218
0,271991263261735
0,272108266424101
0,275286899717217
0,272583506348159
0,273891254344876
0,275116846542459
0,277772272146462
0,274363586937642
0,277949212195537
0,279273203588179
0,281482520397632
0,280103741955462
0,281562666382899
0,280969391827164
0,282507489428966
0,281466589589338
0,288064962755268
0,285307888808267
0,28497368246267
0,28475573676573
0,284583971456628
0,288645217286498
0,289081369647225
0,289123613575751
0,289188220528536
0,288828390019076
0,288225639291945
0,287830564684628
0,288343966334574
0,286804676286995
0,287625506244036
0,284406335615839
0,285355842342863
0,286370392244813
0,282093468056044
0,281936213183035
0,28285610576365
0,280297936258026
0,281870842899237
0,279689869156842
0,278923927652051
0,278365858622494
0,275974667880523
0,274986682158949
0,276611583402895
0,274585522587532
0,272978996010311
0,272043388964314
0,272017075035425
0,272955117327042
0,27144879218728
0,26711447110084
0,266224694314953
0,2627182957545
0,263709452943963
0,265559217337307
0,264415704246663
0,263465934645879
0,264196828557103
0,261215942907146
0,258840348121827
0,259859809284403
0,260811309294457
0,257799655193103
0,256270962297899
0,255729258480377
0,252906198282986
0,252231482178856
0,25091829532016
0,247882548344795
0,246994892173589
0,245210940946669
0,243931372897777
0,240236462648763
0,239365722213324
0,23620332263326
0,235181454372919
0,232354921641034
0,231733130552107
0,230954272433854
0,230470688212673
0,229195334834383
0,227870189359554
0,226270162163674
0,227284458708111
0,226584527159388
0,22515047444877
0,223147722469281
0,222679121243108
0,221728013895215
0,219858315772498
0,219926965895692
0,218937524882185
0,213216574107578
0,211990043694503
0,209021352733922
0,206771716596975
0,203364550409708
0,200558220455216
0,200462083525523
0,200083712986254
0,19948405142257
0,20016196893929
0,200056649107186
0,203104123507521
0,206073246533175
0,208783939719564
0,213164487311213
0,218162512783497
0,226507749659186
0,234776472400946
0,241008988243823
0,250519239873229
0,258247868575174
0,268369775755634
0,279665627298405
0,289518972704418
0,297725407036184
0,309306722352695
0,318265068585771
0,329590528981678
0,337296885429062
0,349013051163899
0,357395526070799
0,368559547119715
0,37730074480895
0,384836479671283
0,395157889460434
0,403041917561786
0,409766599412528
0,41823378284088
0,42540666125838
0,429605824037793
0,43337742202911
0,438626300081005
0,444643455984205
0,450261663738127
0,454243959963247
0,455089651549208
0,453946344410866
0,455978301783522
0,456348828852203
0,457874329974545
0,456990467858957
0,455935918135895
0,45422802325451
0,455678289170553
0,456566555011651
0,46001735797319
0,460761075092154
0,46063886895239
0,462183659762632
0,464589624305358
0,466523015608086
0,470229401918014
0,473600564721296
0,476615812418632
0,479971739282237
0,487296795947064
0,490688504790338
0,492095824609867
0,499120104730627
0,503031793151722
0,50862894280591
0,516690721989926
0,519780976696841
0,531173457990641
0,540136722342435
0,545094268321884
0,550366603844327
0,561689530737027
0,56715164088545
0,570723414743913
0,577199251045815
0,588616235791474
0,592655354510653
0,593764727363918
0,593568738819644
0,595115781876537
0,595489919773083
0,59572040099005
0,592223499791134
0,587126749820113
0,58199413008707
0,578591976542759
0,575676667452437
0,578764467185772
0,580438219220639
0,582172620658096
0,588654943795182
0,591175408999699
0,597436490439382
0,611805385504608
0,617358187909266
0,623248820461637
0,631220844961714
0,64376620368314
0,651570835804698
0,662295909008748
0,667171484421558
0,681677175430889
0,691618499288197
0,701471371290835
0,717279365594819
0,72008275253315
0,729342782194996
0,742956527328325
0,751298406944899
0,77116369386124
0,781688273398781
0,795053965119913
0,806189967038103
0,819395909859323
0,8316967592457
0,856500750193703
0,863520801995718
0,879316940609897
0,892560748200189
0,901675421079904
0,913227453216403
0,924199459743876
0,939505549075263
0,95698500086688
0,962065941625176
0,97786722639421
0,976859627257588
0,983553606475439
0,988037283094098
0,99948850111024
0,991414468189957
0,988690786781893
0,999550776112011
1,00237774931105
0,99237989613189
0,998865045824101
0,990735432656415
0,990434668417025
0,982843014730961
0,974564513973398
0,974188068652382
0,974635898701366
0,980036584098863
0,978096333344767
0,985266170317502
1,00459497730368
1,01394867155571
1,02774847052587
1,02068998675073
1,03413993447312
1,04845010634359
1,05925185924223
1,06509561784897
1,0718564353959
1,07031582697498
1,10273930126391
1,10248065758536
1,11530911532985
1,12474318252343
1,12395615943478
1,13234619045978
1,14381537751877
1,13205743225263
1,14058349070058
1,14588899258753
1,15674873464495
1,17831559402258
1,19078451369971
1,15677017199012
1,1872598496689
1,18723816241033
1,19076548767888
1,2102878376364
1,19042247638528
1,20356718164115
1,23113070728202
1,20244365052298
1,21140313170637
1,20860398586812
1,21525194333253
1,22837428877756
1,23399661482204
1,21119106194779
1,22731722260289
1,19848938851116
1,2126475880293
1,203135171566
1,19402657667872
1,17018408880983
1,15284557703688
1,11902990790068
1,11080380829617
1,05873930173647
1,0385649438335
0,995712173141391
0,96649648653092
0,945112251581947
0,913313519570374
0,893978556657442
0,881389357074031
0,844768137493056
0,842496203381491
0,828706423497783
0,819431680157099
0,810639903631401
0,805219239349006
0,801246238750879
0,802920813477209
0,786215461063328
0,781176596742593
0,767333578510884
0,769484781612379
0,754270932844964
0,744279213529217
0,739066281936075
0,729626351576364
0,717569734642565
0,704810164367441
0,679953296431365
0,665830681660635
0,645383243598578
0,631986557922978
0,608085039971185
0,593540973424622
0,566739711297614
0,536157047712589
0,517638101962746
0,496888195591643
0,473215420397987
0,448789444259612
0,429568880131501
0,411342798591954
0,389754838184191
0,373747670525569
0,355167128107733
0,340971926799454
0,328065314759687
0,323083968380403
0,30980561831281
0,298284495155701
0,289000968430881
0,280984729506619
0,27703399588841
0,274907610499104
0,266532007793671
0,262720522735947
0,258710277935706
0,259917066510796
0,258444750648785
0,262353772020852
0,256620119666068
0,252318874109962
0,2595403838946
0,259870930878403
0,258833125517158
0,256926652881919
0,262856823819929
0,266193454757128
0,260547652269926
0,26181233157989
0,259715290229718
0,259430383305551
0,258322907251987
0,259034875712162
0,254466192310224
0,253336308443947
0,253416557430165
0,247634772797283
0,248101796772774
0,243665102578106
0,238518819938039
0,241390874065182
0,234201336505436
0,241668960434404
0,239099301927777
0,23820885880186
0,237583293901794
0,242481338657121
0,243710935552598
0,247949209904648
0,249730807015931
0,2498328288957
0,249096954032854
0,251550545668401
0,250413344408323
0,258584860269407
0,256924448288795
0,25933194193182
0,260961047731677
0,259914822551961
0,267564943530012
0,265773635821348
0,266802420281265
0,262236189651502
0,263130386010694
0,271176303244183
0,266986025492398
0,271089858646977
0,2689018027193
0,270322765697881
0,272455014387298
0,277845834398356
0,273053467911512
0,277741973107974
0,284584681794452
0,286662723777023
0,295288219166502
0,303488350472673
0,312951645427502
0,317008275908401
0,324250928892768
0,337291025392071
0,345456929590155
0,354480074405093
0,361112073035121
0,3653574225375
0,362573399880842
0,369140321669569
0,362699554396236
0,364971406619176
0,364162906489796
0,353106357903303
0,343335207796607
0,348213425484214
0,335656446269968
0,335978602025134
0,332152761412093
0,324811827604731
0,325005979552336
0,325824254153877
0,3240830861163
0,325175846641142
0,333144879619118
0,33258232154113
0,319097702646205
0,32598447623872
0,326396772036232
0,321773635632979
0,322390658470833
0,326153225184584
0,31764932867091
0,312604341392599
0,31245543254103
0,307133096676953
0,303957163320273
0,30969226498215
0,300951037609655
0,300129123134422
0,300270386992752
0,297018591017344
0,291191714460446
0,291662569356585
0,28716092201291
0,287904800399859
0,287058716032234
0,288965329721062
0,281364540250362
0,28797615788999
0,2765669958755
0,272131301125617
0,278020129687659
0,287613906561266
0,27774830135285
0,281332853247061
0,27759103807642
0,269746930371113
0,269673802281375
0,273470557645032
0,265289371912093
0,263558104286424
0,26799946936151
0,272362825532199
0,261082694428856
0,266380998065002
0,267559481001813
0,264156672324723
0,260240466011641
0,257076139022287
0,259475212004504
0,26526629772222
0,259788853097303
0,265180018713123
0,262576214417355
0,25165735230428
0,255961614692426
0,259177142399274
0,253194804943473
0,273889081777348
0,260528498940126
0,259860375171743
0,251388906509755
0,265966652997309
0,27140666107785
0,260539019798299
0,267112310163636
0,265848156316263
0,263593569322784
0,267682097884501
0,260690362780631
0,271500944925909
0,275988264637352
0,278855322131529
0,269745322897863
0,277430606017342
0,280132284024672
0,282230944955547
0,272640107712486
0,285453124998124
0,287178164821537
0,298418446429112
0,293862752593769
0,303978906054889
0,297464051365417
0,306146160828002
0,313837010358598
0,318125266230726
0,312795816431278
0,321117784490407
0,325018177230853
0,342386931805029
0,341157467439977
0,366783264564123
0,365512816774928
0,358040209443419
0,375030616778856
0,400512939686764
0,411168731937901
0,413987576076064
0,413612946640072
0,429975871265676
0,423795187930488
0,439008470812897
0,453325001069335
0,442395008118328
0,435523560540742
0,470823568476351
0,462363825212113
0,447158521401775
0,432199343075153
0,458759416440803
0,443378753417284
0,435654499185278
0,440850575453511
0,47129201048369
0,430150063979303
0,423703608306465
0,457839883019234
0,431913121652156
0,403195506076153
0,448447380357939
0,430931085440634
0,43125411901946
0,430320989116214
0,446392916518457
0,407228583271873
0,408182779742385
0,398420884251285
0,424748748487272
0,41619766136331
0,42156845707731
0,384237738962592
0,414500168884312
0,4132633472765
0,405140979623054
0,386972886090868
0,422076890799002
0,395698907252321
0,391467017215247
0,390522034016787
0,419705050165989
0,382531050028897
0,388835476385308
0,420787435431776
0,401189717695551
0,396068993545495
0,396304481373191
0,391428482515163
0,412425675210609
0,40803153272433
0,412517202627472
0,393006732195937
0,406518173108805
0,427882628595477
0,408366129885605
0,392967098704378
0,452714257103097
0,403564704743003
0,426268594680944
0,410256307645838
0,401101855839171
0,394681562675149
0,432114033943922
0,431412832218793
0,429321226860909
0,403820520816423
0,460679321701776
0,419433380320828
0,447566439679597
0,406479922571532
0,423455743001358
0,393467266717401
0,470994109966312
0,432089834465164
0,457837994246958
0,473970902881748
0,48754183274957
0,433222508283278
0,510042950682938
0,511551317644767
0,554461104629011
0,476162032326128
0,483619792496407
0,560904253908377
0,523655491302452
0,456204820707902
0,549470838564616
0,527090449713349
0,568210205490672
0,518356614269168
0,575299201003511
0,501197868704203
0,639749704273437
0,598649843939731
0,567032044846329
0,526243661048348
0,598664553886703
0,537732159624019
0,573931261255799
0,513475446190388
0,604848707897645
0,512072876944987
0,625390578859557
0,490059423605719
0,520643179831057
0,565987521273909
0,574070587567507
0,618964044704026
0,565532323488327
0,453480034651532
0,607890539493256
0,494773476733533
0,523497375918517
0,464384042463395
0,626186026041174
0,48161903110354
0,648838977205484
0,527655986861907
0,635946533859385
0,588450848484592
0,650910037586911
0,491897124335302
0,531895934144317
0,575699508089292
0,642096264111031
0,477965549861138
0,625127602364914
0,479771991379513
0,774904672983242
0,194923104786471
0,706964557627342
0,557040048284245
0,598511495244451
0,430530784925886
0,492432042738465
0,595766863044646
0,714375270603847
0,544815247720079
0,616391293348268
0,635914766794723
0,569773241568674
1,3254956807874
0,936675631587853
0,354263980030566
0,955845355841942
0,500129263139318
1,10853100542885
0,481792017266993
1,488862316929
