3596
4000,36533379555
650,420452594757
1
2
2
0,0525938416587437
0,0363491061553749
0,0424038808720982
0,0389796077277901
0,0463331437348724
0,0295990836166308
0,0390414653321028
0,0414548986549104
0,0347276513638978
0,0409392367919445
0,041786210267834
0,0364278382049383
0,0365027393487158
0,0343453529769782
0,0420301924496249
0,0407798624624285
0,0473070851566979
0,0370335776432859
0,0384574980084293
0,0410010749815884
0,0343414941564275
0,0403399065067188
0,0525438202733632
0,0449637272886148
0,0399141662307466
0,0339046201109378
0,0367325181702571
0,0415890556744392
0,0469206087680279
0,033295491169312
0,0384515382858674
0,0407803451079438
0,0420153234121596
0,0370812251641432
0,0391546718239821
0,0375343418209105
0,0403208073565049
0,0461832985748399
0,0467447967922346
0,0391388994812851
0,0428169048703905
0,0338037506202449
0,045045033742818
0,0300131066880963
0,0443596123179543
0,0279865835104673
0,0354922895358572
0,0402233259819424
0,0390709329590464
0,0411991066569839
0,037977593109293
0,0305839497238179
0,0408423212638857
0,0319209711394617
0,0485679489711851
0,0371319187972881
0,0344956892147671
0,0402283674947806
0,0435979355175561
0,0366955847660131
0,0463961664781327
0,0257430926736848
0,0379049592252692
0,0372559617797249
0,0439072399189101
0,0333991177628344
0,033789426722179
0,0383314516342835
0,036008780083934
0,0351759687119586
0,0306701416759281
0,0542039442928261
0,0331558502584764
0,0322129146934315
0,0427255104163391
0,0371495477351325
0,0324893636914635
0,0338205711257241
0,0337836743363567
0,0465608622007532
0,0362743762200754
0,0315114589820085
0,03251249170568
0,0314091472397524
0,0479732433507344
0,039794163357054
0,0284435308721044
0,0456976468738228
0,0354551379498391
0,0340958067365948
0,0335084125934074
0,0401884916360533
0,0384197400405482
0,0398351090011324
0,0330839373278743
0,0302518440003536
0,0345140181126084
0,030650918360292
0,0299848008654118
0,0459494919517136
0,0389666757823587
0,0527886096047351
0,0431671460192482
0,0221303467812055
0,0629480196042629
0,013793428798012
0,0476142334402056
0,0294215669559864
0,0272858455031868
0,0353963324580337
0,0332282313530658
0,0369056766412748
0,0318117217295284
0,03407382322192
0,030412842226495
0,050564553956411
0,0229930678082357
0,0343430296575683
0,0282624131524043
0,0361955720270537
0,0282879998997933
0,0540694096477289
0,0216538492945205
0,0326754947835194
0,0420165557134287
0,0334018934602267
0,047994075640113
0,0402804721875408
0,0231299467964602
0,0348394487949376
0,0298530655924118
0,0251758527374625
0,0239586836993515
0,0326175128371026
0,0461499200285879
0,0133222041865957
0,0381399589909382
0,0298794664012127
0,0550222150831065
0,0245736200326568
0,0356007461454679
0,0284331136246767
0,0290103666844804
0,038196475533347
0,0310118246904176
0,0271424767414069
0,0395581208778831
0,0358596723418756
0,018358841478647
0,0289554274353727
0,0345356641108507
0,0297851679081085
0,0402036822744018
0,0307896709405928
0,0402932447605295
0,0782753841241583
0,00710928362113772
0,0318175144968787
0,0354523752435026
0,020783700351328
0,0318067918599973
0,0174029569785434
0,0381349000740398
0,0192864282948169
0,039547255083226
0,0262367727448097
0,051397458634419
0,0289186339313903
0,032405304311334
0,0353227803771251
0,0345894027484
0,0240684737750383
0,0336120142287088
0,0455924184586142
0,0107982227185671
0,0412862189144648
0,0335672638042063
0,0217449595458126
0,0334639668448232
0,0401847098971935
0,0327248020877236
0,0260295462229075
0,037030080489063
0,0255146646937382
0,0368472805426375
0,029720459240613
0,030388424557946
0,0306016115024626
0,0332325138572533
0,0398563356940268
0,0464722145478768
0,0218235349744394
0,0268435221121031
0,0203058186436894
0,0364452630914241
0,0296196647645475
0,0564037644281038
0,0168879531435533
0,0294454487527843
0,0204057378951272
0,0266359900709739
0,0218904261535787
0,030458996949906
0,0264372289762009
0,0351817169725354
0,0370711876362156
0,0533519401065618
0,0141229328492087
0,0331805147538447
0,0264849505117804
0,0370144361722592
0,0300154401915201
0,0524139712068598
0,00699414929982823
0,034906460839902
0,024514483025548
0,0317962263080503
0,0294719271268939
0,0292642139650572
0,026487331307667
0,03346854046987
0,0317123334291168
0,0326383997344909
0,0281793913685847
0,0425359782167367
0,029487449807354
0,0297937870067644
0,0303353622354245
0,0379631200707179
0,026103607240233
0,0362172454078886
0,0240911584919427
0,0351336985407554
0,0358704754635016
0,0319710700762757
0,0418745713391565
0,0288458019322004
0,017208616280397
0,0382509318156627
0,0270669763968343
0,033686427287449
0,0312901533391459
0,0375457751474129
0,0321801475687711
0,0424197473456316
0,0311047373272861
0,040878770503807
0,0176019212636694
0,0451347783223121
0,0269216533914556
0,0595764848785672
0,0152981588426308
0,039987167669218
0,0283883370918367
0,0387831602993691
0,0265760797410323
0,0474466252377439
0,0372994080835388
0,036446953082695
0,0257910105171445
0,0439751656384441
0,0207870536796735
0,0382955275441839
0,0341533313253014
0,0471798872501847
0,0449403384671892
0,0278002772067481
0,0353741957567222
0,0404842336576662
0,0159130151408902
0,0440442930695719
0,0336992125093932
0,0526230446092639
0,0420754748675548
0,0286295496084355
0,0266013248565335
0,0373664009053185
0,0342982106436992
0,0377504159801302
0,045990004643818
0,0430332441383877
0,0522889489497555
0,0478063262431709
0,0294239510800102
0,0442251714765215
0,0185544223503165
0,062492195014643
0,0166559139128547
0,0435389258502756
0,0300466027294633
0,0403805273157952
0,0278590585331273
0,0499622976065335
0,0310800874009406
0,0437192051536542
0,0330313896335458
0,0446413738039726
0,0455213919750265
0,0363967702317245
0,0412816559260539
0,0436674965130057
0,0416505495136263
0,0399232855875155
0,0335512190302713
0,0361472794249362
0,045416998864309
0,0473680562649016
0,0543930662502065
0,0514312917932363
0,0320767920245458
0,048235235974425
0,0363353779893327
0,0328233223188864
0,0395085689061763
0,0459772843417947
0,0437253695404307
0,0469846350962865
0,0485297863427928
0,0516434561243577
0,0456831429716843
0,0372388718982648
0,0481212433316139
0,042509237839118
0,0456009082587671
0,0575827227872387
0,0445334260840956
0,0519180938998168
0,0461487736599238
0,0491698014198738
0,0421564949050011
0,054760656512745
0,0530449795659842
0,0477102100227714
0,0669042360909973
0,0396388517805707
0,0472083963766684
0,0532206379959398
0,0473640624423441
0,0530204444179509
0,0486783897820634
0,0607576147606788
0,0552935807745346
0,0602247083035254
0,0552503834834788
0,0631128468708691
0,065782799287766
0,0851384443714496
0,0674829725158425
0,0715529939024831
0,052905403596799
0,0657865253061256
0,0598102567849518
0,0810336277554525
0,0495587399838655
0,0804752872288703
0,0664856002961592
0,0675803045249755
0,0723961604215803
0,0690017671743685
0,082886907357064
0,072979685969047
0,0728722110609854
0,0724246445750789
0,080326326976189
0,0768660867512652
0,0848155226554786
0,0804649008520773
0,0928184005441207
0,0951877652518302
0,0813539765217355
0,0899729635187764
0,0909454471803251
0,102164175065937
0,118506573943553
0,0858654105403123
0,110940756627958
0,101972252960184
0,0991803549173043
0,11709150955233
0,0886153376736062
0,110888866634971
0,0975057825028262
0,110023788104798
0,102938354801463
0,12067962047043
0,11263620546481
0,125335091147303
0,119468585891357
0,129306136374287
0,122244070557351
0,143016806872135
0,121465913065226
0,139760903773736
0,12169236985326
0,141053290886971
0,131308127056979
0,180928578303458
0,141491983925651
0,143509185975967
0,126003967334181
0,14419560411307
0,135922856684798
0,156966221898456
0,147841811864853
0,155486846588875
0,15112416469721
0,177839778272543
0,171905109074689
0,164408637303386
0,16628398987985
0,171240904170174
0,168748119229431
0,188753775435274
0,177203452818044
0,199635204940889
0,182984078922585
0,174896267906451
0,178944267825234
0,216460534651985
0,179441568246322
0,201771705890828
0,190241770124294
0,187806069778825
0,200334657087016
0,206062113818716
0,205105761335365
0,201991066153596
0,218321595534097
0,223033949129642
0,211998830783017
0,235256895122817
0,224962561280632
0,229780772960593
0,237248874392769
0,232435933143564
0,232048015534986
0,255715481974586
0,229220412345625
0,256408104163921
0,248311395578569
0,283324717547791
0,25675161512653
0,278586431755198
0,249085558444213
0,261898365429872
0,263944978038064
0,26113799839187
0,262458941797027
0,278417810974288
0,272706809549015
0,280179749203859
0,280794670345856
0,295923840415295
0,287407759135057
0,306697471932745
0,285498563950341
0,306684100401872
0,30118058524559
0,321045053701409
0,303506652596722
0,325509205485654
0,323714751891255
0,355309518622051
0,30446966420055
0,341204005207443
0,325870485030794
0,338152119472795
0,338380962539916
0,331895428878268
0,352338004835595
0,356417982746088
0,353616734887764
0,382071820613225
0,345692827090443
0,380132591925018
0,366887136362882
0,376316556713963
0,381951942433592
0,393436895281789
0,373451924776357
0,403433731926749
0,391101150687254
0,415403917084461
0,39307198563772
0,416516956545148
0,385497348941347
0,409340959542348
0,417662257477854
0,420074069654253
0,40006699497471
0,421905841946102
0,419781131894157
0,447881387454881
0,434967412611717
0,469345302894565
0,447054717840509
0,461373430290237
0,454510082406695
0,465683194026137
0,447912603112488
0,485938493426273
0,472888831718151
0,482484205611657
0,460122886203689
0,508334829803328
0,4777818057131
0,507160198509907
0,484409491202978
0,514634459937271
0,503992914329657
0,510522011960815
0,504310527291459
0,527055660589862
0,529631483133767
0,540925536945646
0,503756436822076
0,531301133260374
0,529981413308635
0,573032959081071
0,553445962342795
0,550825753468545
0,530653428480998
0,564999014639781
0,552764322961547
0,594153097173845
0,568527975333978
0,588501296722997
0,554961870489195
0,592379842201936
0,578487426695655
0,5978278790503
0,58785047255098
0,620165568859605
0,610685385550979
0,618969751071714
0,602303792891887
0,611364322546967
0,621393899568202
0,661163899152462
0,605766529065633
0,659868748794691
0,61320806528336
0,639381517816516
0,640920650361298
0,689217486432092
0,634218119891602
0,646530883782332
0,65059722632274
0,645121590582797
0,645959076837403
0,718727442161348
0,681552535589489
0,734792338858661
0,663406642195982
0,70445814146936
0,702375071534074
0,696905035946314
0,690946858873909
0,712104418335954
0,706167196190311
0,75297020554431
0,69583645010048
0,723832621082915
0,711557169477374
0,74258763880131
0,739770791203068
0,758189074509285
0,715758486520693
0,725686587092588
0,727064384608822
0,786417381950315
0,744856299453558
0,773209690570694
0,772724420783301
0,783861332400048
0,792135251207498
0,848602376878865
0,792549368577668
0,775347928159369
0,768251612887695
0,838609479606835
0,811640432149039
0,856323551660583
0,802691916393188
0,834809969153584
0,809174900330598
0,873966273254639
0,801743392308094
0,798721445765915
0,823700037660933
0,864958508079451
0,791402607107803
0,879478276926729
0,849155951448409
0,857565929618821
0,803847257138714
0,908636398632042
0,840860549123352
0,905889879772468
0,870616055332902
0,876798701193559
0,889362756742913
0,895793000097066
0,814069791852228
0,848733792840138
0,885934992152532
0,916644752126092
0,909742524402389
0,951627390556343
0,868771198906686
0,937599787708624
0,912651103540144
0,929619876593588
0,943039335166761
0,97153544078245
0,894319369213031
0,979110400130554
0,96921434461857
0,98858009836244
0,913328507187274
0,974971188232417
0,947167067672724
1,02371600681258
0,949436727198863
0,926651423313654
0,950863178041896
1,01937403079622
0,941101339604967
0,968290097026183
0,921067022571769
0,999962182916072
0,977497257932299
1,02881958837597
0,99945963085432
1,0414439881859
0,983724005773688
1,05433821325458
1,02851550325135
1,05453512483757
0,984020625696849
1,01804277779856
0,982485891977584
1,00901169113953
1,0363717366916
1,04942218732998
1,00887382131831
1,06800700649356
1,00869281505878
1,06839840665582
1,01698732509188
1,06091935615322
1,01635429571014
1,10191326951751
1,06251220544877
1,10181596054986
1,11805994022039
1,11764066341591
1,0403701789318
1,16759702297857
1,08612864911455
1,14614785723721
1,10740368338959
1,07337877453393
1,02191346660635
1,07334790824609
1,03371102589574
1,14845531536767
1,097820211092
1,10171210502087
1,115908620724
1,17031599348671
1,09442148267214
1,08592295883583
1,04009956088568
1,07467683668881
1,06890331620622
1,10000042329634
1,09243746788509
1,17227148081232
1,09899684181442
1,19036031500732
1,10962923836197
1,21570501021369
1,12658197937544
1,10366714957066
1,07137809418753
1,16695585143534
1,12794462900867
1,16072596209055
1,11566158483239
1,1747157629469
1,15538959074667
1,16450568602575
1,09924652834291
1,12085805494888
1,16706361179668
1,19383080738358
1,15853256486649
1,1648392140491
1,12845524000562
1,12763130541289
1,11285549564744
1,20272281047787
1,15548436266866
1,21415572819679
1,20193509797384
1,23333226982427
1,11090413239519
1,1666220991154
1,16285021347835
1,20867473364378
1,18167970240341
1,1920213378183
1,17936867823522
1,26690266765092
1,18636329502248
1,23274642603526
1,18831188651358
1,16136062778386
1,16424184204517
1,16555460452968
1,14723328830049
1,15277730210605
1,11838198985444
1,1925953677149
1,18215202764777
1,19784207236667
1,16765779088269
1,16761443383403
1,15219582733091
1,26503877527882
1,17359595849834
1,20274282756051
1,13920241236033
1,21633471493966
1,15823172035203
1,17020304669616
1,14544934866428
1,17078628110088
1,16243793298632
1,25603534941807
1,18964873369064
1,175479547045
1,15335956716616
1,18164630346457
1,16176220413832
1,21864662128099
1,24662749401859
1,20697968245066
1,20750343894867
1,23867278056833
1,19581191597249
1,26077149008381
1,1965646215389
1,16410609684885
1,18148792970434
1,20565572479249
1,13610865540826
1,17826519257841
1,18026660351342
1,15410097969994
1,16260826539106
1,24895608223376
1,16820714566814
1,19257873479155
1,21646245468354
1,16544115516317
1,14367024095177
1,17688188668887
1,15334318930305
1,20271464350013
1,16376519435318
1,16413587852757
1,1670457494301
1,29950534927072
1,20672172863231
1,14988040973248
1,14947172009864
1,19055822745077
1,15191158254718
1,14355808322633
1,14351746087995
1,18178121624775
1,17612271953579
1,25132808300366
1,16605491219646
1,16547890939326
1,16832075854591
1,17747333484798
1,1540316386994
1,15029736217189
1,15780668925807
1,1940163682828
1,13362022998399
1,10085655960746
1,10107450820958
1,14634123941916
1,13687640056912
1,1472907574418
1,16196076976764
1,17124051456739
1,13138871393583
1,15627619930566
1,1124757125132
1,09819635395906
1,09591154466599
1,10302815264513
1,10502504618336
1,18761352212755
1,15563930891767
1,12825898718199
1,13512020066906
1,12428882947888
1,10313025925026
1,17305389355117
1,14173319502491
1,0859703682108
1,12324460933656
1,16168093957322
1,09612008010385
1,15432489097998
1,13150478586017
1,12167089169252
1,08747726396128
1,09253675142897
1,13543188488893
1,10345908419946
1,0606443909388
1,07452486418048
1,09296215610051
1,11600090181159
1,09746353961204
1,08163143599082
1,05367047482212
1,10834146853412
1,04612320415885
1,03221027028742
1,08028199766219
1,08152339319656
1,0583046736646
1,08760198612388
1,06942575218108
1,04219147993116
1,06818938709638
1,08567541869365
1,02964304505098
1,06351264649727
1,03756289006151
1,04759440969341
1,03170616537799
1,02334964226645
1,00984845727906
1,02556456481864
1,00864319038628
1,0141816451209
1,03188676955183
1,03341121613749
0,986782286035482
1,01497471426276
1,00507485061766
1,02383032514542
1,02778002599573
1,01255102787795
0,993299270902049
0,986158141486942
0,970530871196413
0,997597137055326
0,994780321132793
0,966407657723588
0,95846398894576
0,977809995824932
0,994903276039578
0,972830494702378
0,920419890026061
0,945236730348247
0,938167144739633
0,933779364421411
0,941242115361894
0,954270850088321
0,949437233734769
0,944037620985824
0,91300973098678
0,932290000309385
0,948030284329321
0,950897658542704
0,925475424845478
0,928073541981065
0,895755019110015
0,909605923424793
0,889538436271792
0,89255838387982
0,906547908686077
0,893162272876084
0,880781054356552
0,881227904712024
0,877552670376502
0,889270684474799
0,879310268500852
0,864717700444195
0,858792074637324
0,885858390146673
0,881704715125122
0,849847803734854
0,839251219689658
0,854519730355074
0,837855080699099
0,825843220342191
0,824380054093414
0,829813599962355
0,822424885226141
0,824152032012533
0,840752321332554
0,833997977221527
0,806418762278144
0,810626273319789
0,81112431689835
0,818621152406945
0,808004151072737
0,790228380257334
0,785510208296987
0,788952819945316
0,787686138520128
0,778458884126492
0,759200935995741
0,778995329299769
0,768216428184688
0,778097486978078
0,774144405256162
0,765730235888965
0,755844935106715
0,745173811464649
0,750375504953595
0,750986844869039
0,739835307058016
0,736921032651829
0,730975513604286
0,723926188291719
0,710764629565973
0,727549336850336
0,71538491486297
0,714446895830316
0,711254800047431
0,707415037835185
0,679017902917546
0,699040014828928
0,70986776210201
0,681911031113522
0,68377815440603
0,680972556770013
0,680144028652337
0,689721711566918
0,680640714763441
0,684589679705021
0,675473729328695
0,670914273056622
0,67567860069129
0,674968591690079
0,657768156073391
0,658124412458457
0,652922606015262
0,648954887141278
0,63139769559843
0,64304242745464
0,637051265821978
0,640763335081051
0,637680912467362
0,62376753139629
0,617719907760095
0,618272291891481
0,623795603410973
0,617439569906177
0,615384164604196
0,615683464769401
0,601690928262112
0,60213608067701
0,603758145734876
0,592825823907557
0,594458214725157
0,602474574304174
0,586854998023366
0,601741006873316
0,603029958745143
0,585685550578765
0,575014031072293
0,58630265453461
0,582207492767921
0,566171906451536
0,563035440502085
0,563508643870634
0,560046379275233
0,556958483192687
0,567691005050193
0,574014840182916
0,561271884929855
0,560880689407007
0,548280342148413
0,542657109995839
0,546300791444605
0,553644118254434
0,539275821126076
0,530831604451983
0,534824711198098
0,533526500639879
0,527790770826225
0,529475242048739
0,518145521419508
0,514406334754687
0,525811751547498
0,515584646547695
0,509797429829303
0,520787912162099
0,50909550699068
0,50293583258216
0,497042467532332
0,497002543350815
0,494298527286487
0,49141905196939
0,483314633946156
0,488546159147747
0,484692788045041
0,488641721414618
0,485529397824997
0,479437185606419
0,4782895756216
0,481605582597537
0,469507003799473
0,472407708887828
0,474229385503159
0,46889843828133
0,46704865880784
0,466349743585814
0,459758852338794
0,464402230917395
0,459108728921639
0,452026772760478
0,453020359431081
0,463628324033913
0,451423205218213
0,444350951854904
0,449574892786206
0,447705239044668
0,435866436020363
0,438242547219014
0,432637955941309
0,439812943624294
0,433280157196028
0,429818028843626
0,434501114945842
0,430277739386551
0,428366014420028
0,423390199405654
0,414547130983235
0,422137103355795
0,419998825986845
0,413448945618693
0,415850893483249
0,416539402693434
0,412273035562437
0,418211531178224
0,408408883031069
0,41133977945431
0,414315904944819
0,402304002957432
0,404192724024137
0,404510638540404
0,405055964317338
0,405214836974849
0,395720426150165
0,400844748894397
0,40009413388865
0,394735154827619
0,392441443936295
0,395600076065278
0,39012908313899
0,389746460627334
0,393024417399609
0,386295601447177
0,388720168463949
0,386946270710276
0,381548185145541
0,388498164529435
0,395628597212068
0,401209336229813
0,384662864290756
0,390326962446095
0,396817701187992
0,394187197297746
0,389633599473934
0,39381505845624
0,389201994646489
0,391585997775145
0,392327018004302
0,393649857107104
0,396779066701053
0,397080829045203
0,403486580976394
0,402316595788722
0,399590215198562
0,398892914309377
0,398854187637615
0,39811893740769
0,403188677255518
0,406235554488916
0,402186926465321
0,40889930210317
0,402866303392294
0,404328354012246
0,406397165388459
0,411744439931375
0,415767378281757
0,419256212425807
0,415164022323939
0,410428492892941
0,419872806166375
0,429859964516524
0,422556765846324
0,426197861875745
0,426572745822101
0,429490972084641
0,438512821687685
0,43320091309066
0,437050908342249
0,436848733311633
0,435942623984169
0,443846468030201
0,441070740865287
0,441097851497206
0,441931920188517
0,45444555602089
0,453662942012329
0,448898065546129
0,456485712284481
0,460958781101986
0,467971431035451
0,469166834124941
0,465591711156577
0,471564773741872
0,468191598279002
0,477915083146572
0,48086772044154
0,477641688943148
0,486445442423428
0,483989966730459
0,490577832599497
0,492427291632249
0,484410972218587
0,491290209182042
0,486588495457378
0,489173113983539
0,498467663101252
0,498045829484375
0,495500226864052
0,488335987068059
0,49502464231022
0,499191550822581
0,496192251674895
0,498717843654166
0,4976824783311
0,491369959731725
0,493024663728795
0,493165944414523
0,492588816093292
0,490832579682814
0,486185741809804
0,483483874955618
0,486135464331195
0,490552658334753
0,49501531981748
0,490460354780695
0,493746935991901
0,491720335707587
0,499701441581193
0,496134524696973
0,492293106295233
0,497882043827498
0,493725872327812
0,490807288738791
0,490014263549413
0,489705681028966
0,492357128644042
0,501706283503488
0,498158776703549
0,492448103534684
0,489010205824494
0,498283235944901
0,505232421154131
0,497303516215235
0,496199144582007
0,495192418664753
0,494116730351564
0,499019297450203
0,495002315581438
0,497092533805367
0,49663740164746
0,497024483970596
0,496646475998172
0,480276689193718
0,49221836784714
0,492674985582568
0,4894739890127
0,491134313104943
0,49165399927772
0,489590252398032
0,48807037439084
0,483040372596496
0,481382678201522
0,491205363972945
0,488929052386166
0,484456014770642
0,478358861515895
0,472229986211056
0,478685199145599
0,469179060126454
0,469283220553025
0,474506183528604
0,472856863069328
0,470027070195854
0,464549711761826
0,458943490557596
0,450530943216324
0,45522241875302
0,453553434856337
0,445977293340641
0,444137022921529
0,441590050585226
0,436773374707791
0,441371694084087
0,434375268308859
0,428079600420233
0,420703958699883
0,430219909983822
0,425261243871757
0,419687617775796
0,417570999072525
0,417972257605436
0,415162413500315
0,404368865177808
0,405840626670378
0,408625611995187
0,400605081630462
0,390775485259496
0,39454661582662
0,402970616971289
0,392615228959721
0,390720272827818
0,384720009302502
0,389854138285448
0,389903941911897
0,381319139764318
0,378669676547311
0,378049999065955
0,378408315804321
0,374328215587282
0,375064636300777
0,371378827161629
0,366784772069027
0,363578664987137
0,365405945424358
0,368915847837083
0,363284495401179
0,359303220403706
0,36307704811111
0,359214642044387
0,361577748933928
0,356107568073912
0,351117867803893
0,352437059932811
0,355175997371069
0,351032331954075
0,348607240706396
0,346001429485295
0,342065566108755
0,344756559325099
0,340460787189523
0,345512829695283
0,348748996156422
0,343734498511601
0,343395292774966
0,336473024701631
0,33826566227915
0,336639354573719
0,334482006913564
0,33684229999462
0,33438513755002
0,332584199570497
0,326973965567562
0,328274494516997
0,330834579363929
0,330775593506576
0,327524701113612
0,328076708268032
0,325284884892888
0,324763433563401
0,323864954770235
0,32486985608415
0,325270951700293
0,316442846635562
0,314108750081115
0,317384868556183
0,319584658801216
0,321714978640087
0,315145354124205
0,312467111017487
0,312185950674467
0,317751265543281
0,311514168518997
0,307780073936857
0,308476357598745
0,311887470060027
0,312984817319017
0,310162260865746
0,302056826820915
0,307646747731804
0,305982518890016
0,307351601533368
0,300089981220555
0,301936602434159
0,305210931628855
0,307722553002947
0,299952070863191
0,299502648450052
0,296466706973777
0,296208959472822
0,296586607614012
0,29618624654552
0,297011128068472
0,298190565337122
0,29519515096166
0,298384869082215
0,296520154645091
0,293219884991339
0,292270741529441
0,295282484421784
0,290352227784644
0,28935605845625
0,295585566795041
0,29310830254156
0,289123085033168
0,292882203423151
0,288177829099474
0,288435319332559
0,287749802121281
0,28219969318903
0,288515058493468
0,28907098412327
0,289463227117147
0,288028277856382
0,282738179016946
0,28433897349043
0,290517272198114
0,282386769508965
0,280194703698786
0,286481730352827
0,283668004868304
0,28304995274152
0,281831643560186
0,282791706017797
0,281013530437026
0,282558480304931
0,285337080362229
0,28338348488811
0,280333493413965
0,27771474778498
0,282081737747992
0,276178708212983
0,276472933988421
0,280539954024641
0,278395964902105
0,27612515103642
0,278984291229324
0,279746360499134
0,279506521409092
0,272051485271966
0,274567296158771
0,273149778299497
0,272350733834574
0,274334401179747
0,276362899039921
0,27453064000293
0,27016700015178
0,271693604125331
0,27223845175287
0,273637571985888
0,270807172128181
0,267073058957347
0,268896956146986
0,267196139592919
0,266276989133447
0,268074823005713
0,269703026024666
0,266214995548284
0,26491595505958
0,262927910997767
0,266523138553618
0,267256337126102
0,269178982417944
0,259268170153565
0,260042060396281
0,265566807624591
0,259584759423631
0,259363640616438
0,260037484025623
0,262010136232111
0,263150997679556
0,257436968410884
0,259660016038139
0,264940424401649
0,256269887376349
0,258169142832827
0,256459107435043
0,254319834564883
0,257557038737017
0,255452931561634
0,255718609092029
0,253099203752506
0,249905691067698
0,249086495970636
0,249675450192158
0,250370667331049
0,249632339651274
0,248346048072717
0,249056592793744
0,246482736237583
0,251847311355891
0,253622195529937
0,243079509905829
0,246422011714297
0,244736367771829
0,247759019989867
0,2434834643087
0,244553098400697
0,244567073148964
0,24345596007196
0,238374743863027
0,2394377863439
0,240591408476986
0,240468502897916
0,236387306041097
0,238768383356883
0,235470991800102
0,233315320236023
0,232493226932463
0,23306350801465
0,229709507843631
0,232686711788393
0,227372265816954
0,234325869835192
0,233860374567291
0,228660829789081
0,228330278195831
0,2275261054965
0,227531838141644
0,227238760225625
0,225019329555091
0,221814750854175
0,226433576173186
0,224662970242301
0,219794374350465
0,221634281513428
0,223828383643112
0,217879774317143
0,215878853623586
0,218174775257563
0,217021399324328
0,216786538358428
0,2130004831546
0,21544924848091
0,211674550711253
0,213142892298957
0,215860539150393
0,215617026003942
0,212475369403125
0,214396756732761
0,209436525586412
0,209917079291742
0,212613233321603
0,204174339562949
0,206383577012234
0,206422802267168
0,206883530161717
0,207417822652576
0,20689402401123
0,206414551492295
0,205259176715895
0,20618696508706
0,20111431954216
0,200720206021409
0,199402684954885
0,203631951168579
0,200731797914582
0,20423164587732
0,200642860469287
0,200767463931849
0,200270835814645
0,198417312611206
0,198304631218293
0,194493692703906
0,196545445990072
0,195303832641872
0,1937348582784
0,19625570186936
0,193996568428717
0,192867261819001
0,194505649582365
0,194564280437892
0,193841066711762
0,190120584764486
0,190256844609789
0,189661387446339
0,191771294701107
0,191793916597823
0,190047773473733
0,184134820932234
0,18642793060578
0,187274834528615
0,1868963550865
0,18611248206186
0,188505010432776
0,187090015422588
0,184868746668193
0,183488712108625
0,183381473187254
0,18314004234483
0,185620317255374
0,181413972509781
0,182090720819698
0,185251582424531
0,182483657590275
0,184977633784661
0,180684033360424
0,179014794502147
0,178340113534967
0,181233668282746
0,179174785625788
0,180802110801931
0,176747830072506
0,176492618861483
0,175934350196107
0,179393257248179
0,177408950176527
0,179264372664028
0,175718127263249
0,176556186224318
0,1734560395995
0,176004148179921
0,173165565828058
0,172999550957425
0,174111625737815
0,172906207559485
0,177063244101611
0,172419750363782
0,170170734912787
0,171076393319908
0,171021204227243
0,173091740310663
0,172536084958842
0,170752796896718
0,169862561602029
0,172244563610667
0,169698329076912
0,168065926519149
0,168992560933032
0,168033002268835
0,168288235064127
0,167147299507931
0,168743779630127
0,167973328904879
0,169193210301143
0,168966509203138
0,16955836016662
0,165587192280602
0,168329963305887
0,164532183297981
0,164353076948835
0,165808956712134
0,165607439014525
0,162444932758054
0,164075442013433
0,161927723975009
0,163192805035932
0,16196250319343
0,158255086765431
0,164001037264036
0,159724252530906
0,162496705219383
0,161361545472046
0,160697404209525
0,15942146283101
0,160347891643675
0,155113546514712
0,160395248329039
0,155386590838077
0,158781463733256
0,160729154943862
0,155608324482924
0,157782821220778
0,15679234730702
0,157385188274473
0,155166838297564
0,149141437161287
0,157365255770812
0,155870790685562
0,154498655419658
0,152775498537507
0,154775463799128
0,152276779084954
0,156101768348253
0,153174251994093
0,156427986280013
0,156180209457959
0,152505824084713
0,15239414103745
0,151438633155996
0,151000411321813
0,15220610900755
0,151103921554597
0,150470202644907
0,151600901609554
0,149321807297784
0,1500704414768
0,148577854121934
0,145549369875887
0,147832087329609
0,148108006966273
0,147322389970117
0,145853055883262
0,145599983996248
0,147123841798942
0,147821319781697
0,140883930081235
0,141228009753362
0,139330207923544
0,142405535493443
0,140921959190867
0,140357430720522
0,141308663509502
0,142682892951803
0,137473718389515
0,13987721818905
0,140118836042628
0,140439009662093
0,137036004975422
0,139525113488276
0,136454239362499
0,136903941728809
0,137094273918224
0,138823659965878
0,136514138646575
0,136632648293238
0,133442359540068
0,135056614968331
0,133197366289779
0,135651116725749
0,131464322575855
0,131946152036644
0,129531545014142
0,126231382850981
0,132118195751782
0,130997631555671
0,129215219405581
0,129391039464039
0,127277501132231
0,12733792400363
0,125757455833421
0,125735804782884
0,126973294302741
0,125518772167076
0,126360667534458
0,127318270328143
0,123362248558556
0,125281929542981
0,124171101132147
0,124657502575452
0,120953212574021
0,122764387581817
0,119629647822354
0,120350485943805
0,119053862265534
0,120987029507225
0,118372477528231
0,122187937098143
0,119520632972217
0,120190909589101
0,116870587466638
0,11971511194638
0,117644370464673
0,116837812864967
0,113921673880818
0,115686879534453
0,115484237658356
0,116042276948411
0,115995602538067
0,11364629622826
0,113396834536738
0,113576862007827
0,111497011582684
0,113374891461217
0,111580203336085
0,110604399707606
0,110997643446761
0,113799141548299
0,11264771683452
0,110823007191017
0,108563171183974
0,111396995172176
0,109371869600223
0,108842304784424
0,10855635491967
0,109438552544646
0,105043538189612
0,107213448636517
0,104242623164851
0,107767145138284
0,105293182529078
0,108975078086718
0,103229214232584
0,108709796716466
0,104894082997094
0,107096721354377
0,102968296752761
0,106942990117835
0,103074771442592
0,103522876745032
0,101419308806514
0,104908378587773
0,10102027652297
0,104150785066321
0,101104809322046
0,10609667402427
0,10040527537834
0,103263269791007
0,101921719822428
0,10240140241536
0,100298747870475
0,0989390475951728
0,0992363056759981
0,0999763659834137
0,0981014147372682
0,104032782114954
0,100160577401015
0,100929134487659
0,10065925002456
0,100721563118054
0,099869414539989
0,0994589840992947
0,0941655399466166
0,10362396517573
0,099196434214079
0,0997630270473818
0,0951886066566524
0,104059922109037
0,0955066966868795
0,0997523695100013
0,0932918946300438
0,0967533457792717
0,0993593459216191
0,0995005389393469
0,096665922401474
0,100456896812936
0,0895714055792985
0,100881665074741
0,088299372016714
0,0949426352967616
0,0920809755907598
0,0967071635639448
0,091410052154068
0,0939379316882285
0,0873630206948609
0,0992605236756181
0,0874178413854089
0,097522789385381
0,0900440445133158
0,099165540860593
0,0891710275227144
0,0974844449217731
0,0841785879482141
0,0953351326819192
0,0833342196941681
0,0989227299158052
0,0863819335391054
0,0977289343712248
0,0830178231368132
0,0965742688544148
0,0800167065932958
0,0962801905758772
0,0798038570011058
0,0994825794272299
0,0789885423461148
0,0986295549464279
0,0862695756984904
0,0956496539136794
0,0825788329905756
0,093788438901686
0,0843522657621156
0,0943187258471817
0,0874579709079965
0,0880587462693872
0,0859956363117034
0,0868097553815234
0,0954368264796512
0,0821704297607048
0,0967917769274093
0,0782613536310561
0,107132924151885
0,0741386748994708
0,107373071276478
0,0721468849047095
0,105230209132088
0,0728910189680534
0,101501341217866
0,0716370021866984
0,100012784326576
0,0819952892115746
0,0937717020734691
0,0816656471608417
0,0880559890475236
0,0861658931105167
0,0866480705615338
0,0877159141553247
0,0888122369268577
0,0854061116593511
0,086788255304371
0,0859239785180065
0,0917317153497864
0,0827143230079042
0,0882270660830562
0,0800078981208974
0,0852971996917489
0,0820778285186667
0,0858142188905564
0,0818686299070546
0,0879571996015086
0,0827173914903734
0,0898288335808325
0,0846344868778318
0,0872090531836868
0,0866428956356969
0,08868099843911
0,0849838585842092
0,0860921966654762
0,0833786998771389
0,0873738360655222
0,0822571849520288
0,0855348488877275
0,0826176865494126
0,0861217061439555
0,082988549391056
0,0878163045293765
0,0863338831005645
0,0884350960311118
0,0864617987365312
0,0858019345631915
0,0840663432381448
0,0866809799021643
0,0844711768016845
0,0874495408276688
0,0830195622288725
0,0894496023541459
0,0853120066929221
0,0845527925001464
0,0822482588389716
0,0862595128774486
0,0833392248442806
0,0876268752804398
0,0865584092497983
0,0898794117472023
0,084088117086926
0,0850859821449206
0,0865891303625399
0,0857253531034738
0,0841819197652941
0,0841434343193846
0,0870361366024406
0,0883276605958172
0,0847008936018184
0,0900111132899137
0,0854504829326545
0,0851077894957192
0,0848263544197581
0,0869992113505435
0,0861776451380413
0,0876626532842682
0,0829124517400271
0,0883685255517187
0,0848885026843732
0,085247247043067
0,086223034908788
0,0858925795035961
0,0875943047238997
0,0855688677294961
0,0864836266651547
0,0872793789679674
0,0830958388004528
0,0850272278661096
0,087932131446195
0,0856599224499154
0,0855452433945211
0,0883850442821562
0,0874853193716046
0,088425091724107
0,0852206488093965
0,088825996650476
0,087705307019943
0,088965693407244
0,0857354646439305
0,0891009422744194
0,0868280832115512
0,0879957556768108
0,08508869116952
0,0883860445365468
0,08737319874058
0,0879679150450764
0,0881570635822803
0,0871581558758328
0,0888949596684858
0,0883016312732954
0,0861188999543654
0,0890885687984637
0,0869354005502471
0,0884484944245143
0,0876414733934975
0,0901139730215918
0,0906960224073069
0,0888555995143697
0,0924584455155864
0,0913232503204693
0,0889360711015313
0,0887356190307027
0,0903036069550724
0,089181633495124
0,0905328536765925
0,0907192194701875
0,0893258357650108
0,0923954852714605
0,0917765567594053
0,0920406409204436
0,0895567955935195
0,0895433078818222
0,0902898594804501
0,0931145894958946
0,0891445978172478
0,0917338982840752
0,0912484825254254
0,091030764032589
0,0907857941274553
0,0908847536431407
0,0902322230379312
0,0937892095271824
0,0908525838446752
0,0911559734668722
0,0903608256347316
0,0927822284910754
0,0921674498228789
0,0911829240791879
0,0924721813346281
0,0936731845374947
0,0936788630386648
0,0928506959891374
0,0923107610481852
0,094111506496
0,092130418628545
0,0936046966991007
0,0939301493926838
0,0938122596529216
0,0920459162642508
0,0949891680764892
0,092228120680853
0,093920186469031
0,0927109475076043
0,0940437807167277
0,0939788077468384
0,0936383614304633
0,0959457870682123
0,0945121663172055
0,0955934627136364
0,0964660561832539
0,0934082857234449
0,0954193421244127
0,095460897434472
0,0954584891025709
0,0942979556560549
0,0970729839658152
0,0933548250263854
0,0971514266059958
0,0937502120843366
0,0983477657558434
0,0963272093869698
0,0947406543060699
0,0971498489221741
0,0974863484475891
0,0947483793344972
0,0937618607242967
0,0962793992028858
0,0946106579851191
0,0940642763778263
0,0954718261611507
0,0941056318330454
0,0930953275388773
0,0947032238381908
0,093140199623176
0,0919402363822877
0,0940392801586725
0,0934731971586281
0,0934027470608607
0,0928979961187117
0,0936190715289968
0,0925417370595276
0,0904053025841659
0,0930025895795343
0,0942446821543419
0,0931278883163732
0,0919589035421369
0,0916068627838307
0,0964645229531448
0,090708807080402
0,0908024414377531
0,0902895415431482
0,0924166879388367
0,0916456718616639
0,0917631203282379
0,0917031618187607
0,0924144906266381
0,0894207441823422
0,0933368248830064
0,0902189163399589
0,0907965587290111
0,0905709067797825
0,091095830956679
0,0900206425976985
0,0917375814557266
0,0911060522882653
0,0910232787618831
0,0896654601720324
0,0891594639000344
0,0897452804462209
0,0885296060281203
0,0885182965685389
0,089629837328302
0,088272707894375
0,0884832630619072
0,0911069337681115
0,0897097691641135
0,0874095992458165
0,0881900253530087
0,0873635397981626
0,0880655929707282
0,0872783714394926
0,0878966021440106
0,0867299020666342
0,0889278071475274
0,0881574244926793
0,0877214319439815
0,0878611473818831
0,0869009693149741
0,0874308791577224
0,0835870224881835
0,0868215904426314
0,0875015725647957
0,0874717030803161
0,0865926298331531
0,0889987416607359
0,0879128769491565
0,0859250532843499
0,088433773523895
0,0853457985304381
0,0875827682005636
0,0876907703885088
0,0871676579266692
0,0858049680991148
0,0861240129343364
0,0844374490407217
0,0883331132173377
0,0868207630662854
0,0849878500622611
0,0858793206569808
0,086330756220443
0,0858657970605127
0,0832653992039357
0,0856810409237159
0,0869993058318213
0,0849437251242524
0,0843668594408003
0,0877173516063843
0,0872902740388757
0,0844266135232095
0,0831815525431805
0,0848909007876009
0,0870150168840963
0,083569224589759
0,0844176533221386
0,0825905824979708
0,0839184366314943
0,0838388987768838
0,0847114448980651
0,0820783897827626
0,0833524496428755
0,0837422805684865
0,0842175583223091
0,0824794865913112
0,0856464905013187
0,0812737010075075
0,084088054938469
0,0811110708578126
0,0810432728405078
0,0815592566136086
0,0833797880962261
0,0829507103533742
0,0810067786058448
0,0796811084711114
0,0798968588616716
0,0783731608949418
0,0830564831761805
0,0804266745705591
0,0814249086121149
0,0804304215245564
0,0791135974154843
0,0801876605628073
0,0788638780764456
0,077465047623698
0,0798376097552225
0,0761350499256536
0,0777901297689123
0,0765332150753066
0,0787408845108236
0,0754443045824906
0,0778536921860657
0,074563738789092
0,0774118773844467
0,0798628510770845
0,0730960483014411
0,0756534963444168
0,0733851938868488
0,0748482904748828
0,0780317385081585
0,0747794314309559
0,0736579191427671
0,0759307368592146
0,0731172873778509
0,0723413977066814
0,0712326831514142
0,0748584309283133
0,0736982425845458
0,0724044207348925
0,0705139489257463
0,0712392788810136
0,0716647349959147
0,071511241610607
0,0709758127296028
0,0726136904981566
0,0693156318493103
0,0706138808960405
0,0696873853903855
0,0724291558759092
0,0680352373000343
0,0752400526806854
0,0701837228351545
0,0696863785114624
0,0694122130603171
0,0708986722649257
0,0728345126397919
0,0696504093677258
0,0696749370773146
0,0703851740319523
0,0690003341770078
0,0687886710486549
0,0703812644544426
0,0700571890719099
0,0706750271245723
0,0691355614388897
0,0685575178154994
0,0667451125764366
0,0690265946303929
0,0681184966931287
0,0688273835925812
0,0675101777380692
0,0708268791053515
0,0678509731984988
0,0698498586697936
0,0659708290939269
0,0681749115324048
0,0673461181195895
0,070162942485125
0,0645980785883846
0,0698116881470126
0,064924568099043
0,0682894836879013
0,0665204299037679
0,0667493149407035
0,0654835251907946
0,0685742012732174
0,0636356793877145
0,0675933450157672
0,0662117368702846
0,06814873072262
0,0667141688619799
0,064903661080163
0,0650545019097084
0,0661466376455791
0,064707637385374
0,0659444111386235
0,0665207885153728
0,0671890604799392
0,0616980754191248
0,0675857929648707
0,0653339980134125
0,0661131132913779
0,0604540635766417
0,0699670722286507
0,0655108724099701
0,0646960811932856
0,0652422982441031
0,063741095731795
0,0632752898162714
0,0646343693403882
0,0637071015232013
0,0626865895806398
0,0599030060775637
0,0635308628638831
0,0664147387415815
0,0638470317102499
0,0629255266657775
0,0647914927181729
0,0618194063457873
0,0632745498470042
0,0640678339304576
0,0619721758108755
0,0633861772942328
0,0620368078404395
0,0662654026827679
0,0622442958390197
0,0592642876577827
0,0639556348626151
0,0614597677775737
0,0644670662512105
0,0693679753100019
0,0590191378975857
0,0644301986964846
0,0607127073078203
0,0657139020796367
0,0587096832821312
0,0667177091706761
0,063090046202056
0,0650224553558379
0,06245062073346
0,0641207209950864
0,0648987113247343
0,0609465391402803
0,0632360583031911
0,0620759632719399
0,0620255609422942
0,0608749566381367
0,0618061753331471
0,063747814101739
0,0630661169923843
0,0632973630325149
0,060682364895696
0,0639896464056487
0,062719919209595
0,0662081891818414
0,0622684121459242
0,0627962501415199
0,0624634063855993
0,0631362696624674
0,0594317370394846
0,0666621772489976
0,0637567369958614
0,0600753070830413
0,065498628221337
0,0611893137375305
0,0629099874930716
0,0622263818111877
0,0613295926762722
0,0619386488618171
0,0646720398582663
0,0617598183650589
0,0643135731274863
0,0612634274000742
0,0643385629205517
0,0629221048931481
0,0649396672697347
0,060858413535829
0,0642002398551821
0,0599494383609114
0,0628139591536743
0,061676530096124
0,0637332354131046
0,0685212786843106
0,0628165743293946
0,0670997830170817
0,0617793436761479
0,0614442084066923
0,0618957226417444
0,061524396657954
0,0615679323840668
0,0638602623394267
0,0623625389666982
0,0611352203097282
0,0642835972763926
0,0648381959721441
0,0652547971310527
0,062460848851997
0,063694179711887
0,062458010445437
0,0637699320188949
0,0641090624635966
0,0635003591059444
0,064917409439458
0,0645414603595745
0,0627819317005433
0,0660187354207845
0,0626206611020553
0,0672687455570462
0,0595199173160905
0,0837045822537179
0,0559872872209063
0,067096358521434
0,0617430715888066
0,0651706367582134
0,0649455082837179
0,0647408748508167
0,0656162036659489
0,068613440763378
0,0605054413081235
0,0657517094249777
0,0637472422139729
0,0679012883853293
0,0645610863604927
0,0668415972259848
0,0705567578091185
0,0693058655289889
0,0611742255437868
0,0690312371620258
0,0608033601897219
0,0741293400705408
0,0664448437653676
0,0632363617156171
0,0694815986386824
0,0652461891635187
0,0680107918404525
0,0656956706567624
0,0690679798190873
0,0677477952550155
0,0706831293552941
0,066079598188871
0,0689954411612642
0,0696342019488781
0,0683463023381935
0,0713144380590102
0,0683535141329584
0,0752037177046815
0,0692056261569195
0,0675370979495364
0,0712530130877303
0,0679786998799714
0,0696754501109738
0,0696239663581172
0,0702325603852756
0,0710548325355277
0,0736808694708405
0,0711297833401315
0,0714969245598802
0,0792652015193829
0,0708260795586601
0,0705353126710179
0,073786421981749
0,0718228533463958
0,0757460910028515
0,0695950762347506
0,0860225688959402
0,0704148685674299
0,0794870742157618
0,0776042340860347
0,071734200304734
0,0770049595160761
0,0713102516288532
0,0782557430576636
0,0742527219313298
0,0845962218821718
0,0664984989572669
0,0837043474422648
0,0684478497985725
0,0875892021817849
0,0724284289194109
0,076788577689686
0,0747134109174872
0,0777242370007815
0,0767814124946494
0,086054120546429
0,0728088139846254
0,0841732057172066
0,0828046840594654
0,0826829201303674
0,0815337689366776
0,0766179429067986
0,0838942843058077
0,0921690505366189
0,0737807401821593
0,0867980429866056
0,0757639626767604
0,0845508958280716
0,0797849921421986
0,0925751877053766
0,0850638433558975
0,0779538986362971
0,0840982126574391
0,0851325371665131
0,084036086484964
0,0943196037614414
0,0795818577978832
0,0880783088159983
0,083868969656041
0,0906396793567791
0,0869893459085294
0,115262086855367
0,0765579788024855
0,103777006965722
0,088143429355472
0,0983151893446644
0,0944696008040145
0,0952922516404498
0,0908361750598223
0,101465097237365
0,0946431316788611
0,0955151055573869
0,0970378285145068
0,112581321342044
0,0968395029213465
0,0984925193128156
0,104779751010822
0,0994148819729125
0,110447249183599
0,117937031577465
0,106390042491229
0,106781545194279
0,105104943316924
0,111941097025383
0,118052753664176
0,105921345805517
0,117805598292426
0,110756382921355
0,119306400886798
0,11894534173493
0,116803914798517
0,122486352644017
0,118802547509552
0,124213852205013
0,120672515503963
0,12734341337544
0,132838792903641
0,137671728248879
0,122892826906838
0,126682597657456
0,150396134421846
0,131426576396759
0,138079650252599
0,133109977887641
0,13716647151193
0,142050888505491
0,139382514202283
0,144994907507034
0,144565157627228
0,159822158291442
0,143707321948764
0,156946137107767
0,149110406194906
0,151896050856465
0,16382936328685
0,164181786748206
0,221507500319878
0,151154728670082
0,182909964391102
0,178067535996283
0,201402487708578
0,186743360103067
0,184129529310801
0,191910258028391
0,19868467379314
0,200169208821479
0,214018396829212
0,214785526422788
0,221642732413211
0,224816255349664
0,229500478337689
0,237051136649325
0,262545819201467
0,256552372495231
0,262055768954602
0,261859755910601
0,267723060496265
0,279312024759891
0,285917749857082
0,276885457925199
0,297610660467411
0,292702356535819
0,308730377698124
0,322020075599546
0,316539489260624
0,330999167375733
0,327847552246023
0,351354884601268
0,335545125841302
0,379171256441825
0,357949390969986
0,37255998864137
0,372830318402875
0,381713672652083
0,384939102699051
0,392300390216033
0,405153910821777
0,401414942714841
0,403609684396244
0,415124812716064
0,416707626321693
0,429716754041312
0,429506126317197
0,439494034982931
0,449007359704662
0,460205696039974
0,451898892522512
0,497119482496144
0,453593659847131
0,458602759766103
0,458980344215142
0,45771978976352
0,478638128299164
0,467259827242586
0,48700257606473
0,475252696421783
0,473667960196628
0,469024282678939
0,467892397818466
0,467124105654303
0,467922999315405
0,488062665006558
0,465033682773033
0,482979399766944
0,469747575141787
0,482795155056363
0,490230428177942
0,471249319190359
0,468694399444048
0,475972923706083
0,465177851518918
0,468780525642496
0,466249280559559
0,460776999107197
0,472908804829915
0,465272899914768
0,463057260741834
0,452559133579662
0,473405866462975
0,460217071139698
0,444062946458104
0,442260838664586
0,436132488471161
0,441566233177781
0,427099423312955
0,450608491157703
0,445193627169916
0,413265537118151
0,424961348529142
0,421647778509659
0,412845614587619
0,414570305401705
0,411740642906144
0,413376733980873
0,402446363519655
0,397749228780455
0,406879241592966
0,399972958904756
0,402934526979041
0,397423456866943
0,398828530374903
0,395749716951959
0,394727397225714
0,394625025946372
0,388843946129938
0,384907834511345
0,390300544611136
0,387195425684317
0,386902112035422
0,384539365380067
0,387008923056612
0,387990344901317
0,389854080136022
0,380412741646121
0,387055579731967
0,386209630564409
0,383728111613259
0,386087841767578
0,384254914298178
0,380161008827957
0,383039959732343
0,38535077096278
0,379382278722987
0,378298179106981
0,379030146877726
0,376974228350656
0,373944652947979
0,37617807244371
0,374775127758266
0,397514763314578
0,374941431637458
0,371297216471086
0,371698492721549
0,36744902932064
0,367796555363404
0,364906296874191
0,388580303000011
0,359297074555707
0,357655970956121
0,353388368289921
0,353170824787036
0,358854286338713
0,352183485585168
0,347508372023605
0,356602784779678
0,342743664952157
0,366371848890222
0,354647730129415
0,379855382023985
0,348268909659042
0,336037905026793
0,334570272654573
0,341931927591964
0,34209610052264
0,325529204393384
0,331152980582678
0,323440808818931
0,347242473631399
0,325216464521612
0,322198716322564
0,320793013991995
0,315116356712448
0,325714002513528
0,319421800244998
0,315029588292471
0,323141516636539
0,315967191470332
0,307208663587228
0,323865586899203
0,316867595579047
0,30752951782422
0,294503887894238
0,29727850074823
0,294581264785863
0,289399300139308
0,305448634441033
0,283921105914933
0,289619724158035
0,282264750667791
0,282487327915314
0,279711617910107
0,281468571843145
0,281058772802845
0,27671883186155
0,277390062305017
0,259469499070382
0,283704601214338
0,268127202124259
0,283366487073279
0,26955095439511
0,265570245531573
0,264804487599725
0,275262094896234
0,269438716011252
0,259332152729531
0,262140292217933
0,251633989657335
0,255352579108421
0,253783899958815
0,24215344932859
0,251085612132193
0,240815171106978
0,241801985961522
0,246734619264846
0,251039497046523
0,242275146213282
0,236357092634192
0,236915811797446
0,241144303307859
0,23826301556442
0,240046158035619
0,234070516073697
0,251991327593316
0,235184029945113
0,238039674324882
0,249697721803252
0,232895411258039
0,242926061580932
0,247491817127574
0,244322695931801
0,249804731475456
0,256149567615125
0,262777734946472
0,255302798678179
0,262986977114256
0,267319827238981
0,259114746126112
0,264269390192739
0,260675274439056
0,270492821346632
0,268956520277724
0,283434703566775
0,27991294844116
0,287118988959828
0,291253563010906
0,29749331796436
0,30766538643131
0,313512959231214
0,308544285081888
0,336898857017391
0,319878755983423
0,344852622968897
0,32871881912463
0,346137538176432
0,346706108573913
0,346890384920037
0,354937736657946
0,364355632712678
0,371525844148316
0,381522332856255
0,36933213573607
0,382146301479561
0,379150580178605
0,390148328169491
0,385347635385859
0,404721216056217
0,394694068255739
0,422581575334696
0,408665272266845
0,411056520254366
0,414938764363626
0,41080243430997
0,414560835020316
0,413545084424702
0,419511868696292
0,419519493942173
0,413999894253955
0,431410362912184
0,420086042814961
0,426896456696199
0,428181862736429
0,434375538948482
0,432731708898937
0,436962296627607
0,4361647811103
0,443744486297406
0,4381039684968
0,447653269451165
0,443060590047564
0,479051210185347
0,46099988662724
0,461717220393854
0,458105382193953
0,462642633065257
0,468764838355171
0,472413224292631
0,483994297787885
0,479770128784998
0,478482477345193
0,490364729173599
0,491851173076292
0,494311699208849
0,49007871555518
0,514437993770238
0,499476443217259
0,510891639224055
0,499523996224013
0,515863435256135
0,52824537777162
0,511807376311823
0,521946973161748
0,518222417717494
0,517113936566478
0,514851813591754
0,525063605428622
0,527797378918543
0,528656831671515
0,528167231187044
0,531153886129901
0,531181104468567
0,525731079005655
0,526363795704017
0,519008815492716
0,526960984679606
0,528350070526069
0,53089853166844
0,526743169947473
0,525596980937815
0,524712869657824
0,534959936938599
0,527646149659681
0,532156291678949
0,527072559334592
0,525570833700706
0,532774034736172
0,530560099147589
0,524369837209219
0,529768131153913
0,526286286429719
0,534570225132079
0,530413144920964
0,529594731088703
0,545984966882027
0,534576959231074
0,536555923584851
0,536813988228925
0,542123837034971
0,539725319525743
0,552596054705483
0,553909702537379
0,555983745593551
0,555901379746511
0,555745934906232
0,560687238779686
0,556246731777672
0,560536978904115
0,565598113905062
0,566325282064313
0,560031065247095
0,559048333935106
0,55665973767556
0,557094225833576
0,563604849105276
0,550208558531783
0,546301833713308
0,53822670363774
0,540427032879991
0,535582192203049
0,536428661575583
0,527956576450243
0,529094836366594
0,519845705178551
0,519059752736512
0,514427133345441
0,50528702721877
0,508128393650183
0,5051209990533
0,50422301452549
0,500468653649884
0,498250084594635
0,494993060357845
0,492446088040644
0,493710100426648
0,496674847676015
0,492693235385686
0,48663039781023
0,484299543618882
0,487326688482597
0,488226719185163
0,479556871860525
0,485515946391963
0,483423733227693
0,489507249923473
0,485260934308325
0,48930856650415
0,489338363659647
0,490995973184929
0,49193732575575
0,48394128469451
0,485293085424477
0,483975916439527
0,483640890074318
0,482694708137944
0,485736086189982
0,484226216885013
0,481162909735898
0,482482989688731
0,48204751799464
0,478697593220256
0,478417415494796
0,481936344070526
0,481716565101356
0,478644577708523
0,480994817760505
0,474295181588586
0,473891589538878
0,475767302729961
0,479411677753676
0,478996949712981
0,475820898812571
0,48067234880362
0,48007620646084
0,48232316839468
0,48058043439264
0,479985459779938
0,48013728805559
0,480004920004679
0,481722156291481
0,478868817812466
0,47466993121984
0,475390988684017
0,473442167594629
0,469518421029627
0,470549400337347
0,468382624688091
0,461320623625896
0,460216952115905
0,453247413728093
0,450804826259682
0,451718018442108
0,444707689491545
0,442340295842088
0,438935872613769
0,435969417579918
0,43230414262251
0,430136309288191
0,433974424038938
0,429768406408199
0,424945249221226
0,422502200723325
0,421361403107177
0,420905661159462
0,42091221061249
0,417918823546968
0,415088319408321
0,420802323480738
0,417939675482244
0,414973688540417
0,418205475253232
0,418536722180148
0,419446254136303
0,420506919961807
0,42254793780004
0,41908484569326
0,419170186145466
0,422059366460821
0,427535992873308
0,42476993862365
0,425200839746796
0,425600730152419
0,431210415700021
0,4333678070687
0,433044971755381
0,434767048089749
0,437894047670034
0,439638194456953
0,439734425737677
0,437131672848857
0,437745698683063
0,443575285555783
0,441764211638636
0,436992280618861
0,439995600431793
0,439760358767603
0,440186885536016
0,438671754032386
0,437008618706609
0,436166204710963
0,437079041391278
0,435440169456679
0,432044246627866
0,433470022599572
0,43205904629643
0,429765134369144
0,427946888831694
0,427826595571314
0,428068987960423
0,42628363945268
0,42585144345536
0,421801500638183
0,41826093988793
0,421187211834748
0,41645626121433
0,414438569718899
0,413932132426591
0,412137930459487
0,410079646617531
0,407270905410217
0,408762582692794
0,408096499370287
0,405606923470414
0,40344910720727
0,402579680285614
0,4019423301452
0,400186301662906
0,401123211138686
0,402431885338553
0,398266671317182
0,397215413006218
0,396452766176751
0,39525325462094
0,392300222228128
0,390093054251256
0,389116500343481
0,383764360763831
0,381892380564717
0,379416791894862
0,378406381500758
0,37607949718558
0,370859795433032
0,368594849418878
0,364294681440709
0,361927097340074
0,360335164497951
0,360424580279082
0,357677368688111
0,35588483196571
0,353007666634718
0,353150117698902
0,3545302041775
0,350830634437192
0,349427592384586
0,34906820860837
0,349060608761667
0,345505222077996
0,343957866286277
0,341710025063021
0,339496424619145
0,338606852997656
0,334227542075489
0,332275231095272
0,325642191336501
0,321082927249987
0,31871048593859
0,313483843809405
0,311242562993116
0,308656570227359
0,306087165407258
0,305036133403993
0,30535870832983
0,307166209606861
0,307830928357919
0,314522817941713
0,319267006156964
0,32410969791997
0,33365824605426
0,343775337002263
0,354579548023901
0,366452846913145
0,379935107259005
0,39385740654288
0,406784305384611
0,419846749000751
0,435610589325541
0,450788694328328
0,461628355330522
0,47791100772142
0,494078378837356
0,505658803955883
0,519162885388503
0,53427604452487
0,549517450033372
0,562277739002912
0,579820710843398
0,587966463611724
0,594659811916154
0,607374151028593
0,61728558404076
0,624889914278918
0,63518041822291
0,647178656219034
0,64985537031379
0,657291984829858
0,663725962726843
0,668649337038674
0,671608666328613
0,671059105094885
0,676884740118037
0,678070172623595
0,677853206887551
0,680952946199343
0,680646274145126
0,680675499288141
0,68281076121846
0,682687509171407
0,683515636597378
0,683357618911134
0,686083083053295
0,688394175937346
0,683826010370625
0,692811571994843
0,700968753107392
0,699156518938223
0,705320242628947
0,712333540304673
0,716062633543857
0,720482357266996
0,731146763554305
0,741191102992719
0,740266317682102
0,745347039733873
0,756254275777176
0,766736138894027
0,773321310063849
0,781888241018698
0,797367352593478
0,812536747496037
0,820356726014653
0,836361511708682
0,840974034278637
0,849292434101682
0,861834349853026
0,865472318281435
0,860543795308644
0,862780815418912
0,872292870572719
0,871229111359478
0,866923583204743
0,866777242086352
0,861063299127268
0,853428883754831
0,848640777066111
0,847431656351745
0,84768830761808
0,847322542355279
0,846365395237169
0,856425004387706
0,86824672934343
0,868839522652809
0,882230924410393
0,901436841287596
0,913006416023744
0,925331477208022
0,944991880841356
0,9569567903001
0,963334113795658
0,975958331856339
0,997605187999685
1,01413009045389
1,01918681769036
1,04274579483898
1,0470337314114
1,05531626855081
1,07508046028353
1,08217477131299
1,10340164615231
1,13064873406573
1,1381218717443
1,1447815914077
1,15958667493373
1,19312012050224
1,22543459552315
1,2357252647281
1,27115812078647
1,29041336250809
1,30754324590093
1,32502466815557
1,31945649478518
1,34940198851502
1,36509225580077
1,37117107214491
1,38399068544168
1,40158342808721
1,39397924423399
1,40842963116743
1,43435794108987
1,42886717517929
1,45264230941217
1,4525011823457
1,42337494476698
1,41811271076787
1,42784276370899
1,4031125141116
1,40382160708392
1,45267668983013
1,44030241011306
1,43406526029666
1,43251985182063
1,42694357759057
1,44088626094867
1,42818653794194
1,44061026880359
1,45166667495936
1,44859859788201
1,48374279776129
1,47578273591179
1,47785004966858
1,51952267522075
1,54503826862854
1,53420523475094
1,57850024357796
1,59051642389089
1,58455361166121
1,60621894828674
1,62279539830603
1,66797287083967
1,69902088748271
1,73053209795179
1,68321759250157
1,66010280642418
1,66294611824298
1,65743784497734
1,70112733760908
1,68216030800464
1,7288020167859
1,73507771503677
1,67277409085944
1,74588471305822
1,70729965922877
1,74440607021206
1,79327131019913
1,77405500018404
1,79523686942813
1,80422477391351
1,79343958016952
1,79649013903462
1,87242077438837
1,79355985170278
1,81022110097414
1,81958723618624
1,72676381450995
1,7738789250184
1,76721423513744
1,73773794554617
1,75401356268925
1,70798153503117
1,69578119996371
1,63156997526522
1,57305907699124
1,57646508044409
1,50565702716733
1,42227229879534
1,38644046329875
1,36245315281099
1,33970002282567
1,33329495887251
1,31601489961089
1,26739034217666
1,24483458297346
1,2683335381343
1,2609929494451
1,24194665230162
1,21024110111634
1,2130991574645
1,22269066015017
1,20584402892803
1,18287707674393
1,18462390720311
1,16578579441191
1,12973206865862
1,12631071142006
1,13660001329384
1,10347768109177
1,0753379562887
1,06971503202443
1,03680497771243
1,00001238979282
0,975150866435784
0,948885236885348
0,918424180517286
0,880871734735712
0,858115312505173
0,82717083001808
0,786584213070824
0,75996704001357
0,730071262985269
0,698432014277567
0,66626129631478
0,641142293569002
0,614252608937695
0,589147546367753
0,574169927304661
0,552012908200134
0,532122781044029
0,518393239480137
0,509884899003545
0,492854125186417
0,483722727487456
0,479129440422245
0,467183073446516
0,460013872848832
0,454800275150677
0,445641090799059
0,448262299729666
0,447711218986716
0,442847409339673
0,444109632407029
0,440963079404956
0,44206672013572
0,444125454235946
0,443535222891678
0,444669471209332
0,448646086935456
0,447223284076016
0,452257502270807
0,450402813917431
0,449727705068893
0,451037072754749
0,439881278877087
0,432175486359017
0,436391309290168
0,43748648748476
0,432629871255675
0,427650090128099
0,422551034446889
0,425308965382651
0,413335551899737
0,412402395534398
0,420413192178086
0,410659848983459
0,408316290911312
0,413558998478717
0,417465549951531
0,415319724204158
0,41408474363929
0,418128909466544
0,420630676751337
0,42666356762313
0,428582258172612
0,427819856625569
0,42809889714788
0,435570600042356
0,43943211013934
0,440340740693931
0,437094269004614
0,439209415422703
0,44729503112969
0,443706132936477
0,445053618398922
0,448966292139428
0,44672102583376
0,448686319904186
0,450545512778167
0,453076168759552
0,444995554394804
0,448131283143674
0,457842356528847
0,459578049441895
0,462818183674529
0,463839697617292
0,466693721020549
0,48027559653453
0,488500474886866
0,49952186995973
0,51270236425978
0,523092474772357
0,535462751326812
0,54767836724995
0,55307908513797
0,561756282973393
0,579305583421404
0,591188519823961
0,582052653496722
0,593677358453573
0,594714318716638
0,587159678764987
0,589901378927272
0,575088720549637
0,57441788620247
0,566242417215738
0,548406774362342
0,54500098861403
0,545448724783494
0,540842607953134
0,531210944089029
0,53346518236836
0,533844405205845
0,539883561685683
0,541817883572525
0,541088060861999
0,540695598853351
0,540642454371305
0,533826775868857
0,537992997745471
0,535335620279907
0,534101087147068
0,528656209217639
0,528262657529203
0,519239762291612
0,515658740493513
0,518321056488871
0,499423129175847
0,498456762529326
0,503344469313477
0,498117954790592
0,493975287468656
0,498861704619711
0,480048508316669
0,473356249281197
0,490730026615026
0,48650021883972
0,488769492178401
0,489489779716622
0,490439604691912
0,48424808453869
0,47554966284189
0,477123791265079
0,459827324153574
0,463248419683686
0,464803239329799
0,463532679736908
0,460106961934522
0,452345523942153
0,47024898588801
0,46062986971468
0,458183708946899
0,459981714565541
0,460559899973004
0,460803947338838
0,454279384847539
0,452267925230594
0,439296926725996
0,450379636077293
0,44650601366573
0,442564658599798
0,444064647149202
0,446142404476918
0,44245678901937
0,43695374170758
0,433185862048815
0,438841114331534
0,446985250915373
0,441711230954778
0,432949894336071
0,446615101289033
0,459059562684716
0,434045496772408
0,450900961028967
0,445625778711933
0,452732835655472
0,461547091354234
0,453648255206239
0,451128629474785
0,468969931958757
0,46060532339969
0,458282368738952
0,458810079050891
0,464907571838672
0,46176208402749
0,46068515226182
0,470201015187652
0,468116648553415
0,461250436818576
0,476405021920465
0,471500772319481
0,49033208290265
0,480218545949822
0,495436673375385
0,506806293804202
0,513518487537383
0,516760244251989
0,534568169683453
0,511964179935206
0,538795027638269
0,536975494333113
0,545626843499812
0,568642804345363
0,584051723565253
0,575026841712745
0,596234648936085
0,625206111474718
0,63539251774439
0,642119572083842
0,671136186613159
0,67591254860884
0,707968409091336
0,693242182717496
0,730074479530475
0,70037175012801
0,710859361681443
0,705463456281745
0,732298922599191
0,723837140856594
0,70185509406116
0,728269883212672
0,720937107016159
0,722284396164671
0,777263226564119
0,743523878626181
0,758396521573035
0,756532625271466
0,739926581980785
0,723627601347813
0,726757867873257
0,735298356674944
0,737832551829166
0,702482650844454
0,69816882199572
0,694309634706486
0,704143752149828
0,690468360465193
0,695309311842755
0,683815301638798
0,715590861019308
0,679684758130022
0,649039364060124
0,636146139532457
0,709793781580289
0,71353221844529
0,68635276639447
0,678602064127941
0,669733288213161
0,647565624879387
0,65374880577522
0,648481928136061
0,671251963935988
0,65949077865322
0,695126097476601
0,675189804865177
0,672450815480643
0,658118636528522
0,653286386712722
0,665147414330494
0,652896611055159
0,660609021906685
0,687099712638154
0,701148543454559
0,76702750881532
0,696927022925489
0,66646536602584
0,651628187021965
0,68698914381337
0,701560132616638
0,678142549164808
0,709933429045597
0,705771457157042
0,712939395069741
0,688039681180621
0,656234847283948
0,718131701878336
0,691777515347108
0,703560769569833
0,698972306100556
0,698778514328445
0,761899959296935
0,807420434594577
0,807113687722296
0,735153753022299
0,722605453183844
0,762664824832962
0,726627592636519
0,729488287139806
0,83031131749155
0,825864186985374
0,69279765333178
0,92541659504451
0,833441282416267
0,820676216530024
0,745456971992926
0,977258670493776
0,890379448801576
0,982684886222757
0,925272501989335
0,879411022820722
0,874336460495809
1,17173519231983
0,850568124983564
0,839599407562077
0,895438921228422
1,05266252318215
0,918099986138667
0,915712014868621
0,80507555190331
0,840741351214562
0,809169296668941
0,795508797675417
0,835985531536781
0,919079074328811
0,808615920075546
0,980610176001367
0,764378717275708
0,976082918743454
0,914069972775769
0,92502559013499
0,878067144655012
1,0793783655809
0,799252267902935
0,936461977513651
0,798275140143629
0,975964028638986
0,753022245618721
0,830353878336674
0,773805637355445
0,940153239624922
1,12211697384752
1,05392775849141
0,690319285225309
1,24376848959845
0,857472534381822
0,833597481616077
0,766962293142575
1,10016843476689
0,917303841883216
0,760432262434687
0,758398766442561
1,61138654314478
1,19819447002089
1,45517931361844
0,888917405040649
1,44390392755832
0,930168163517355
1,47344152196735
0,706873922327255
1,13317897753757
1,39990507137208
1,53209537135091
0,628427460090309
0,775434605075649
0,692713261469908
1,63515652533323
0,826969412300027
0,769489341948932
0,75009168894315
0,857719108199672
