3596
4000,36533379555
650,420452594757
1
2
2
0,0655211973710355
0,0580634441909772
0,0676407949897754
0,0627174186936969
0,0675190345083692
0,0583972785485979
0,0806508378102066
0,0559396786871309
0,0673320683163246
0,053661814573139
0,072155560691922
0,0524148980920984
0,0679876160047036
0,0617428133841832
0,0712713618371816
0,0594324945902741
0,0616841999241973
0,0624407924742986
0,0677021801176455
0,0579842874285233
0,0727809927563621
0,052899732072765
0,0668708802218182
0,0558637027477741
0,0714368933515931
0,0643555855037441
0,067746006054427
0,058817899365471
0,0706960949167974
0,0554385072923721
0,0650813430337491
0,0577330576582867
0,0756925491215566
0,0628205574889276
0,0679467356788239
0,0595549976904586
0,0743761836248919
0,0644622133599928
0,0666363322473779
0,0605813040503655
0,08009341282667
0,0569307689415259
0,0764566659701995
0,0603161634075976
0,0693845666676442
0,0573599750314658
0,0685013768007993
0,0605381079476359
0,0744488585155954
0,0600430345690821
0,0704957308899504
0,0493307143580814
0,0825434810140395
0,0698907035281635
0,0770539326421948
0,0749612625816417
0,0790552500826947
0,0463276408124761
0,0694329503061895
0,0513602715142639
0,0900867824050498
0,0725390341323495
0,0691253335682546
0,0651533522338038
0,0605491926186706
0,0619189038390782
0,0696333974251468
0,0606596452159345
0,0637285850906872
0,0656863987934933
0,0667469455572801
0,0763751938561402
0,0793780323307464
0,059574000803155
0,0752177461598714
0,0640110843540736
0,0645393666274223
0,0569493655066755
0,0588579461190984
0,0666918991541548
0,0867610968956612
0,0633406007420327
0,06419905860218
0,049041404507692
0,0780543825287342
0,0790452321103863
0,0641201737490001
0,0606221700261904
0,099532077145627
0,0680952858251555
0,0686155010482038
0,0614410014404088
0,0615215681591381
0,0531815797739963
0,0666332531166085
0,0577763990741587
0,0594972249931258
0,0537540067159597
0,0528686509111353
0,0711484158072327
0,0671301747778497
0,0787370164639764
0,11690775133144
0,0520889201702349
0,123584369523314
0,0656535551296435
0,0664501116881648
0,104148059112425
0,090068574620374
0,0692267945679119
0,0649699243096417
0,0607416484815344
0,070999220788061
0,0676567891878882
0,0525247827358664
0,0833553504407434
0,104521927134484
0,0554148667214584
0,0615423006926532
0,0610083650624871
0,0467496672794802
0,0827458195173119
0,111431909806645
0,0648664089637456
0,0868892434519433
0,0554956884474472
0,0640151716997694
0,0885676602204458
0,0999518429187449
0,0623607716727879
0,0625066726135843
0,0549273197078176
0,0528343193347257
0,0462082202991964
0,119959929040798
0,0707494687406488
0,0740109086311392
0,0450156302215164
0,0972465497397995
0,113938545655632
0,0838733399552196
0,0570168341894511
0,049806305150033
0,0623268815006084
0,119127588619245
0,0759272982486078
0,0654424299664115
0,0802613280009047
0,077473223479529
0,0571829556264915
0,0702693187914797
0,0541349366420546
0,0848741958879504
0,0657938112712706
0,035134805313049
0,100055339262206
0,144430095013991
0,0812759995780222
0,146945809936369
0,0598250797379967
0,0848298090228391
0,0563123583748016
0,06604869391666
0,0476114840232618
0,0739172589267641
0,0326920034515501
0,083274426160243
0,0889290458770515
0,0583271779539166
0,0607513866472364
0,112484785306862
0,069632337438852
0,0578778673185239
0,130484788744048
0,078823419606919
0,0558887495595241
0,113237527437702
0,0731374774416549
0,0546480043597528
0,0590628021143521
0,0984468193578947
0,0588800108383745
0,0689203141049814
0,0501557869068419
0,0718766486023609
0,0767242666353931
0,074820576891566
0,0573121626823272
0,0703454214068599
0,0421345239579368
0,087521865734476
0,104311219804025
0,109589477975607
0,0687997787644285
0,0709266313174683
0,0250237484476808
0,124862307842448
0,0900779674172569
0,0720029282835523
0,0561953557955604
0,0579501708719532
0,0532177852181589
0,0636615660689024
0,0530981524069319
0,060128915453006
0,0323245033200414
0,117530461664727
0,0704340700786934
0,0738409782581739
0,0474713898280268
0,0771711359796213
0,0419294978679234
0,127828213763018
0,0888988600614136
0,0738192085320519
0,0561227970502543
0,0591619202471723
0,0749082058860263
0,084320341159944
0,0527130403725123
0,0685709112112657
0,0492082496620541
0,0605066858083482
0,0473890129597817
0,0629090028322631
0,0521867216663877
0,0635182512954229
0,0525836424340951
0,0628069197307292
0,0618464881520151
0,0780730568031354
0,059508186656041
0,0685020646910278
0,0565439972866347
0,0496825179636253
0,0654080037582624
0,0898413398289178
0,067018182346848
0,06639641153083
0,0518981336766795
0,06809948457596
0,0480412152681453
0,0685835279608085
0,0614727042459717
0,0615620050425188
0,0453640555403451
0,119256791586913
0,0586075184556789
0,0741992741588589
0,0323271325936565
0,10226651773035
0,0639981134990761
0,06775751046888
0,0511264487924846
0,0725510569546809
0,0434100673695459
0,0651197898661018
0,0917353342080588
0,0846302247807059
0,0432303679383629
0,0948997764335186
0,0626995275502906
0,0723759558180616
0,0449394056964027
0,0595402378332046
0,147152465566621
0,0853263986121795
0,0488565389294516
0,148304241072069
0,0701085090290751
0,0927236611844906
0,0528103423387369
0,0407398398290298
0,177594253969367
0,137439151157177
0,0596511170144136
0,070212937943782
0,0835674883749187
0,0657767518128959
0,0696523597872081
0,069854235434014
0,0735034086973659
0,0982821146699222
0,108290818442207
0,146535255009688
0,0337564248991966
0,111911399169229
0,0895982381117941
0,0775264410950023
0,0532590341311342
0,0717236995882211
0,0419761414578994
0,0937394218019797
0,0727964002284452
0,0940930565584218
0,0566891025265083
0,0717401086054116
0,10038708897652
0,0810240795567762
0,0528775180247374
0,0795211033047202
0,0747113225120493
0,0677833767281528
0,0535561013567502
0,0595944958394216
0,0706839947319866
0,0591486090530438
0,057980669465738
0,147857207760988
0,0744770161849434
0,0744468813305962
0,0888636757988838
0,0703182385694069
0,0608492460628524
0,0652297883647579
0,0576383661021616
0,0698475568174563
0,0612896579897772
0,0559220742166802
0,0924011885406655
0,0699307723517221
0,0624151676241057
0,0734031648126497
0,0550049375700997
0,0674943067687839
0,0596834242346974
0,0655817654240384
0,0548621781382478
0,0718361012245311
0,0455367392979213
0,104759825924771
0,0974865369775786
0,0473494816857099
0,113642109093379
0,119003984515113
0,0720148675450565
0,071241418163595
0,062716554274566
0,0739606998408749
0,0584262408204654
0,0749005129845481
0,054560426744054
0,0700934635557254
0,0822381917781745
0,0853723238671398
0,0658062188538558
0,0749877089138352
0,130690806416594
0,166021396769071
0,0906871539575406
0,095079043156326
0,0388374920861572
0,136966598744494
0,0993519652147643
0,109740488180496
0,107757909568823
0,077506069388381
0,0880793988467018
0,0732179602478016
0,0787978681159467
0,0780993581271587
0,0792232456229466
0,0787671279455294
0,0815787360780569
0,0772911539761997
0,0842407376139754
0,0794546503753338
0,090573945552468
0,146181663499493
0,0966483322211837
0,0955921432711347
0,0941071601321707
0,0752161419557413
0,132590843830026
0,115186262751917
0,155397963317565
0,134229146478516
0,129545282745047
0,170777332021338
0,100971699061281
0,115028267249252
0,0866894465857951
0,112561165889103
0,100421554411002
0,112918635384289
0,0992864258836279
0,109970709103504
0,100390321408959
0,114123653760006
0,107021882886852
0,113729248405345
0,10356702602945
0,151327025996365
0,105058740731391
0,129344381843186
0,099654937099491
0,150341092091896
0,172981367378819
0,200233705837543
0,127316359352632
0,156564069337939
0,117480989198759
0,130927699497907
0,13230150873671
0,141421108818674
0,131617996750268
0,136633683387275
0,17308500422693
0,16240819149141
0,157609363625574
0,17525969375146
0,12764293519669
0,185751478022686
0,14697241096114
0,185940227354041
0,174609262037951
0,177024053197279
0,127735664566586
0,199569936234112
0,170651458829804
0,182817474638268
0,193695044097627
0,16782074823271
0,166009256557179
0,168182590334373
0,180740368634915
0,178512440923236
0,182200371032561
0,192879773622321
0,170616983905837
0,189867487252256
0,183862924850512
0,190373905424047
0,212549764856596
0,20744999875096
0,192601905260194
0,220339721994999
0,185052749083157
0,206639257485317
0,183250657188474
0,247835882779021
0,212237594519923
0,254665499389722
0,229929821147068
0,213986557500351
0,210558700300936
0,214923940019701
0,213882427777023
0,226015479821073
0,212960374964889
0,241540384540411
0,217425374873708
0,240673872387242
0,23685857965538
0,238463873790955
0,237022185939231
0,251909432634623
0,234179837677134
0,252387150134073
0,231765235471696
0,271987568293764
0,242232504093282
0,30335188528887
0,274611333750705
0,339906669084775
0,297341949201424
0,288372977764652
0,283933584349727
0,281802402844688
0,271452870816601
0,274625862543212
0,279930320724679
0,302900955325425
0,283170021986038
0,310162517809177
0,288754464602864
0,305042915570255
0,29043542391837
0,305855456458037
0,299022073204581
0,341906235895098
0,298775705196283
0,325154775152865
0,30378163978942
0,323711354091998
0,334358141923548
0,359474610012748
0,334244978557969
0,355926763427624
0,333430064323402
0,342045946395478
0,340060660250955
0,366406764659551
0,340725743217101
0,380166489157796
0,343874696607563
0,388907479773149
0,356754888312313
0,371671868388991
0,368439193803749
0,385101910247275
0,366985302241247
0,393009111851671
0,367102783754219
0,399132009121812
0,366497944919233
0,404430409758376
0,383951432445471
0,419337752347384
0,37611200483891
0,42554076408481
0,415613102396689
0,446697187246141
0,406191444291722
0,442511362049441
0,411498480328623
0,438747867785549
0,409191887373149
0,438803675655328
0,429293030075622
0,469571566000412
0,435366884490413
0,480112307322906
0,442406117451315
0,459882949519829
0,480896735161384
0,487293571946935
0,436391274327341
0,492625803783341
0,469845122586351
0,491050859163422
0,452829594381615
0,516547881702984
0,486957807693676
0,523279679478139
0,481212083282403
0,508025649718538
0,48636921458896
0,514555470385921
0,507591204996088
0,553106910059423
0,510995680219022
0,533514697862875
0,526771110398901
0,553412226238578
0,537193427153304
0,579637894842147
0,512063260218518
0,56120656280486
0,525922713855124
0,567759372810115
0,54465788881644
0,592175409824809
0,537824085072361
0,595030418559582
0,579375533244749
0,602528037693027
0,558317143315397
0,600014259587333
0,580001034030393
0,598517672249756
0,577329441251498
0,600201076974459
0,593449286626043
0,607707483669323
0,577852001966005
0,619363713796273
0,591778864697197
0,615210788306175
0,606910291962958
0,641403972125557
0,605734800535654
0,648895260016409
0,627115514902409
0,660589721249147
0,644145774848486
0,683300318555663
0,63110735105443
0,662777569865074
0,623899166856111
0,688596437895298
0,642081791901626
0,727833889645111
0,641062237465369
0,66852627449484
0,677303897158128
0,733175686174995
0,655667347108281
0,703139978532558
0,661554104141302
0,68915609641939
0,67975076415868
0,743890339307974
0,678952728864238
0,734709430610695
0,682017396554731
0,743582962444154
0,705309297685889
0,764639402193313
0,720283686974025
0,758696040678623
0,707198125973648
0,762967683910818
0,722085226602411
0,745208214736338
0,702522373508229
0,774778771460496
0,725302466198546
0,76983268575347
0,723103007803559
0,799250181581732
0,736439187925458
0,820339304814876
0,734449752956405
0,80038441031141
0,763849873638804
0,79960202947325
0,751915183233622
0,871391184237324
0,772554532093168
0,843879636223864
0,795436862161381
0,8197618529202
0,778945642457212
0,822225613612085
0,783789494187009
0,830466904395347
0,773131231538822
0,826874544545617
0,788133107343819
0,849963649624384
0,807622471633827
0,819791101660248
0,764395170708867
0,897292345981794
0,800364820790006
0,851870944022084
0,845869076190059
0,886432946306219
0,805757417470461
0,823505453392617
0,797307739542795
0,844717021862026
0,814137001143259
0,900783606237289
0,821747282606865
0,898049671485137
0,835578830065451
0,868466502646357
0,833139799320894
0,863912084961306
0,81505366734522
0,91765261144045
0,858054802718422
0,944659235412457
0,869978664284864
0,926970389583979
0,854516859762692
0,916191496476949
0,822718483609798
0,936119353151012
0,883538483430266
0,892548141685198
0,825385850964354
0,919988256970915
0,872286779645403
0,938860819298437
0,858199739232666
0,932063209694421
0,864752182690802
0,917993655516558
0,847907678207935
0,944086309809748
0,854020091513112
0,938707542141298
0,831568013860253
0,905150882117415
0,890027731357576
0,936655277335
0,88203020092374
0,927234780554362
0,912438680221729
0,959760754038903
0,867971080872489
0,962431587265433
0,896218568250647
0,975913345439282
0,914398280311577
0,931085962678277
0,907787339587263
0,95279354810264
0,907573167516486
0,961834678069891
0,917879106115496
0,952324200195669
0,886892407351963
0,949007629993799
0,923359505164198
0,950234755254197
0,947678482736017
0,967642724279225
0,896034286588782
0,944463538571015
0,922907769104147
0,955372520962187
0,912235510385711
0,936839153838417
0,896656200273435
0,974904148275706
0,910937373915676
0,963627913874568
0,893494003575751
0,960290393667952
0,934641871527249
0,978853505450645
0,967291290791913
0,981970027403947
0,898301191026663
1,01835526779231
0,931552283225442
0,923146617699432
0,911793956825517
0,94842837372867
0,942517813947897
0,950184988400088
0,892840732113309
0,934750282814945
0,921510074828124
0,957184839370596
0,900602696089073
0,956973496315218
0,92428555469756
0,963621668730252
0,932047496807631
0,973201495630101
0,92173499803223
0,989533370994587
0,905409355379631
0,944677383228744
0,934429165795312
0,925815242974236
0,925680535273647
0,928606076577611
0,92186958567276
0,958477863359255
0,912911731390488
0,945665108800425
0,907222678259711
0,972161286500883
0,93311431044037
0,933582231008128
0,905572072723339
0,958982557456752
0,927312829832926
0,988341046606974
0,882750167819444
0,926300221978444
0,929202676499189
0,950686936332842
0,930738316317761
0,942546552172797
0,926159456936682
0,957374545415589
0,904178201893207
0,943200488809122
0,910746084543866
0,925108774150912
0,90858767503982
0,946445261842461
0,911042305278193
0,961775247049085
0,916266954638342
0,974646371824453
0,903119456291805
0,924748686353804
0,887858140553369
0,961456186086126
0,935640270824905
0,941254470947993
0,885326769504689
0,941225395013774
0,899382406350251
0,926654791576479
0,905715818550882
0,93239466603299
0,889263701081598
0,927152158886284
0,885133370531004
0,907204461502313
0,873902365165754
0,898169596753844
0,884134862268985
0,917588895438197
0,890104534936076
0,902033835308969
0,871742444427268
0,92727750773486
0,883573354918894
0,891451596475142
0,884307591205024
0,928465958054247
0,849985120864498
0,873063232582415
0,851853349848661
0,887146154824718
0,862316566641842
0,872480801246331
0,871652314055132
0,873275232260374
0,837109686781884
0,892793720707272
0,86544179123093
0,875378687969805
0,842032840818862
0,865220126519471
0,825058085255226
0,856729943294361
0,821105634284381
0,847438848815742
0,824305959502888
0,838986181676842
0,830964013959068
0,857383375356221
0,824589848327458
0,813561786770949
0,823396878057555
0,849546530791622
0,825028377143355
0,817855147082951
0,791577779451122
0,843760538600731
0,778720584956653
0,812311657515079
0,802791550474095
0,83221047302818
0,796915207373586
0,831567460100946
0,781259151949846
0,811025208429354
0,800495718852093
0,800421602199469
0,78803200508171
0,811486062465897
0,772395203450872
0,790705788361352
0,762271385959961
0,788380640124567
0,758649755239446
0,773759143592191
0,770184159270625
0,766627224495281
0,750045163065486
0,780935204920985
0,744277716824866
0,753815924766498
0,757695703741364
0,761791137190295
0,760226572478267
0,762605321752372
0,724069357089947
0,731306853645612
0,73959916698527
0,744310783487066
0,743431369224108
0,728183166760105
0,709776479259165
0,726372739195053
0,731406769861944
0,735517384298893
0,709472852232104
0,72745813016036
0,721854640707342
0,711097639105578
0,686935096653057
0,712870427734758
0,680898559729455
0,704242398467827
0,682125839689121
0,692463756690092
0,666281705739087
0,680414851083235
0,695437009611195
0,688618383020077
0,663906010207528
0,688395533714074
0,655802939048727
0,694330502119998
0,647162391913289
0,648372523622227
0,636267478853153
0,655962160522508
0,640356917765388
0,646902223846832
0,642563022830392
0,662906555840779
0,64698106230648
0,635972495425217
0,611052490912859
0,639960861301233
0,624788857569364
0,634697762187278
0,613554061006268
0,632327707570897
0,61543067358691
0,629839205903489
0,595978795971542
0,608549244957663
0,597700819440477
0,613949560191272
0,593148492214783
0,60521642417925
0,589987288582243
0,593480178645265
0,580190269173077
0,595974300128823
0,583117935569626
0,579277634972445
0,574456216052554
0,592850006246295
0,563732826342741
0,573350865435278
0,563268223318564
0,566695483219541
0,567675259400197
0,570486805145451
0,556560275615212
0,567594378387361
0,544419385588977
0,560122236663025
0,550241466140849
0,543481697965687
0,537150963922537
0,549759053463968
0,530092381333115
0,531617166558478
0,527332413250285
0,539664678309634
0,521044887753531
0,532635954843375
0,520990069202121
0,515870238082083
0,508188645308711
0,516803914920022
0,502254095923395
0,519334192151518
0,512654439443626
0,515400801606822
0,494040649904719
0,503744878998788
0,498184689157973
0,508003063994732
0,487877826761156
0,492425156610902
0,475778248120602
0,491097287978721
0,483484025448667
0,480778897900745
0,478322068593898
0,482794351299973
0,474791720858878
0,475102355256182
0,472543773862793
0,475233728488478
0,462973543554654
0,470192303148409
0,456803615401682
0,468155402431216
0,458036468767504
0,460056209165279
0,450927320889338
0,463855640042594
0,448434649655118
0,449398669915612
0,431890624017054
0,44264252468465
0,436832498637712
0,428950322072476
0,435976441887881
0,443461601598852
0,426316147653978
0,434074888527096
0,435402722270252
0,43110343084962
0,425414391979351
0,425550093606094
0,419061692310891
0,423121483163407
0,414702988586737
0,421911362242706
0,414017512701219
0,415447975457807
0,418791678549705
0,412955524119063
0,400652110966759
0,408646444959373
0,39725921517427
0,400634148784388
0,394731282636334
0,398530125076746
0,393844774514519
0,39483400460488
0,390918157056282
0,397637439463656
0,388779498983262
0,389055858623377
0,379688834184952
0,379540171682415
0,37535555056354
0,374545194356366
0,372161644815474
0,372711373683968
0,368956166194097
0,373890335983219
0,364974396379675
0,368777059674614
0,364248591883965
0,363629260142724
0,358689152139545
0,360405034461266
0,355999999686426
0,362582719518571
0,349807498903563
0,34834797348649
0,344206513523081
0,346497595598722
0,341671256652008
0,34233700937662
0,335560413149043
0,345065499786194
0,341134537886468
0,34234791700559
0,331034145714593
0,340581728125717
0,329037799136764
0,327331120910698
0,331967990888265
0,331406097424575
0,328125979268431
0,325533986811598
0,319713519090562
0,32230608243574
0,312261540729858
0,318505879952611
0,314674702117217
0,311146989193276
0,309064788765154
0,31078072740443
0,308053530804683
0,310416451241356
0,308755417051984
0,308218079866158
0,294737984141941
0,302327412502585
0,297029138913874
0,294694914968506
0,290428890525219
0,296696386524695
0,293052035966778
0,298684301947528
0,291883869622844
0,298476979884746
0,291663149494347
0,291902134093056
0,28898014059296
0,29015424300488
0,286859426678444
0,290214887668357
0,279718602973974
0,286185538084449
0,282147294847454
0,284176605093011
0,2771692828116
0,286594803099194
0,278352829341652
0,283005629356973
0,278213462779815
0,284442301749293
0,282137515554383
0,283441757670923
0,274226179959736
0,273443897757869
0,276466761402429
0,282578616055238
0,278254636317385
0,278776218227451
0,275966882551416
0,287413371512506
0,288273746798729
0,285772938797537
0,280483216602879
0,29344057048984
0,286698355499448
0,287102788546656
0,289689664917355
0,291270820113858
0,288035106633872
0,294494251361488
0,28852014880122
0,301755145036587
0,298444989187622
0,298451831518783
0,296210794251973
0,302124305976981
0,299545229499697
0,305981123399486
0,30606367101727
0,310410165804943
0,30475200852917
0,315021515567617
0,309305219451213
0,311352544527566
0,305641088751388
0,322049469010712
0,319308235075873
0,322557877112853
0,319309999036147
0,323209446653961
0,325278609308093
0,32206954812113
0,32478772600009
0,335704609736768
0,331174945378266
0,333825558865217
0,330502660473655
0,332894658228513
0,333415480981702
0,345571795346299
0,340446839950281
0,343293729918051
0,345604310840743
0,349062612468683
0,35257557607308
0,361087914930974
0,355257756545004
0,355394752825113
0,358356345085125
0,360747794136343
0,365342903106509
0,372695407663403
0,366093240292392
0,37914709763695
0,370373465163102
0,380311431780325
0,382083594949386
0,381409818370443
0,376517307123939
0,388489794901277
0,391599138954223
0,385705823260779
0,381727318461244
0,390011913022301
0,385923514789711
0,391446042815274
0,384604789548182
0,391148250494304
0,386541053216025
0,386923022088494
0,377096539291418
0,381427215079424
0,3803241125879
0,384146580643752
0,387240185717976
0,383356401250011
0,377308652287128
0,379393912507451
0,376026563692511
0,377169269080329
0,377051848412833
0,382146107709203
0,377161303042467
0,384287553446093
0,377653971481142
0,380409195169192
0,377635097295452
0,376637672806672
0,378378316366732
0,383543276828115
0,375828733383629
0,38248431285139
0,369136981180853
0,378901845110803
0,382531061014974
0,38130828242344
0,382157694742487
0,383792045276842
0,376312388256699
0,380201768511711
0,381766205239087
0,380169536497143
0,377661722740043
0,3819669211315
0,378941192176589
0,384918327598119
0,380323192901126
0,384172845200238
0,381523853620615
0,383614284354182
0,379214881201125
0,379630740675234
0,37968146464191
0,377877404038538
0,372171500332797
0,382460932110719
0,37848975464114
0,37217889560287
0,374243306494567
0,374834445580642
0,368286242982317
0,374880074107198
0,370266245162276
0,366121756851912
0,366319324416492
0,362555967863865
0,354560569089176
0,362695562998727
0,354422158154143
0,352856882668625
0,34923672334943
0,348592661871341
0,340646081730517
0,344374951208461
0,33977517747279
0,333518115928271
0,336770248860549
0,335620150034765
0,329764231692738
0,333114722223567
0,327501645161815
0,325268951910525
0,32355349060978
0,321109586539213
0,314967844847739
0,30595879239234
0,305249711284142
0,306522892135792
0,2999409167412
0,303542447303199
0,296376431047285
0,291937072275748
0,294117878288294
0,294012487596278
0,292108210527755
0,292340371618367
0,286753624124441
0,2855108745367
0,278326202021558
0,284999060835133
0,276554088947201
0,275709695212918
0,275479457905059
0,275189071562193
0,270891834016886
0,270777362760582
0,271244929822782
0,268660225453862
0,261891376732788
0,26146973624446
0,264999982270592
0,264204174300666
0,258544845286556
0,259957381479728
0,256099296810525
0,260483308062697
0,252149978061871
0,253366253046625
0,253157189433146
0,248674641068775
0,249182015380129
0,249370816436166
0,248551898880621
0,252039954809658
0,250133933962228
0,246984055103902
0,241090338446837
0,242173422892146
0,24422711701968
0,24345240503588
0,238455935518894
0,235251477345522
0,232660030788429
0,23640547670241
0,232700304350404
0,232941221963565
0,234685229057637
0,231502493521771
0,228242872461168
0,228812894449081
0,22724321218314
0,228971721362245
0,222936834363737
0,226720519018439
0,221914809441155
0,218116445208353
0,219866067158639
0,223384478781386
0,221147395756135
0,219636042920431
0,219302946404715
0,219612169461519
0,214360224849763
0,214935902707225
0,216448271649471
0,214955272520421
0,209956774440916
0,213791146868952
0,214214314269914
0,208951932063968
0,212103071001747
0,213522945306913
0,211829788469611
0,208022568579372
0,208898179760134
0,212905149324559
0,209046332694886
0,208065190989355
0,202849415707676
0,205491690042515
0,205367194640438
0,204339411899912
0,204040683620883
0,201816802775681
0,19825575267792
0,201431530654794
0,201782409175419
0,205176063932486
0,205214267106689
0,201578577666183
0,200056933808163
0,199753533853283
0,20000495400019
0,200421164853682
0,195879966910079
0,19746195975028
0,196005610742901
0,196076341634316
0,194278858051202
0,194230745747456
0,194000908944518
0,190212622043237
0,191200570506008
0,19349939367594
0,190983544836052
0,192282613976952
0,190600194090782
0,190551652032056
0,188469909951162
0,191918267544194
0,187883776163571
0,186065760671131
0,186483728066354
0,188848504058221
0,185897223959289
0,1864475690292
0,187951405228983
0,184362158615861
0,183932715311751
0,18985234155599
0,188895777360633
0,182758136588089
0,183595904692087
0,188813474001939
0,185318905087458
0,18381369894147
0,18128286533476
0,183722149948859
0,185752296342981
0,18503795643763
0,18199868160388
0,182611585365762
0,182004054043681
0,182910199796421
0,180985659014982
0,180749486737161
0,181935084235877
0,17838503910747
0,177551426740859
0,181436214646469
0,182020061971897
0,182696139489519
0,179792098357068
0,181376695800411
0,178266317126617
0,176042220968165
0,178285383795473
0,175416789104257
0,174533324888256
0,172889108851868
0,17504569955107
0,17714674253718
0,172755516373523
0,173419411410925
0,173273312879066
0,173479101095131
0,171172543623098
0,172808924458458
0,171295059040379
0,171378714907476
0,17049936257113
0,172738027901393
0,171883354317234
0,165371194898771
0,16546941213262
0,166385630439851
0,166761701258342
0,165194848387032
0,163861185114109
0,164730611903427
0,16393345881777
0,166634225734234
0,163312811260357
0,1614823226622
0,166371723384378
0,162359018984371
0,159258534796782
0,163334500477513
0,162615120231746
0,162388308006234
0,15968380895624
0,158244884414147
0,157848919249345
0,155819861099708
0,156320684295544
0,156546328093609
0,156945467575708
0,15614050395595
0,156254013588883
0,153459328511144
0,153227725191923
0,159092195138882
0,155390988853454
0,151117496355878
0,150601346242635
0,152660428395235
0,152692525787721
0,150424924687183
0,147952096594072
0,148204188974313
0,152006032505514
0,149034616509195
0,147950150102136
0,149203264973387
0,147389751907878
0,14914803868062
0,148356692859073
0,14504731163734
0,147872792967914
0,148188392020621
0,14532683873177
0,140991636041777
0,143401259531535
0,145258006409183
0,140040352936515
0,139743190573321
0,142568553758953
0,140152901435973
0,139472110549703
0,136928353048255
0,135147898286209
0,134758970271519
0,134444442616007
0,137393197377143
0,134764741853832
0,133392847006805
0,13581459519821
0,133149042486387
0,129284009920483
0,129712190923864
0,133893130984012
0,12939593505362
0,127594122277762
0,126880911539432
0,127608642695664
0,126941887926109
0,124423459314976
0,125715084825732
0,124278569309403
0,125590992071535
0,124270887380691
0,12576478156583
0,125535930880799
0,123429972986171
0,126013389205865
0,122172550070737
0,120647394802568
0,122618220980998
0,122795553886365
0,121351354326242
0,122209292053745
0,123325598471284
0,119378898935005
0,119402752093923
0,120125766313817
0,113816628234942
0,118342837287736
0,122121937272345
0,118084996890945
0,118857375612407
0,118850317939019
0,115890270478816
0,115525886395418
0,116571386825405
0,114391634706079
0,112922806585885
0,112567938877765
0,114264381294177
0,115231395304134
0,114098158404055
0,115780809773235
0,113473150595213
0,111115114256236
0,110987355775222
0,112392673072475
0,113578325797856
0,112430454375662
0,114014537009314
0,111799314682979
0,109576725982675
0,108058618430007
0,108366593800588
0,110802434355394
0,107921298114288
0,107140370547154
0,105292138435757
0,107884675649037
0,110235345088245
0,107405582557131
0,107307479946701
0,105862996833495
0,104330177853168
0,106370070468141
0,103384384675972
0,104155197478359
0,106223338229808
0,106550018560769
0,104818900654601
0,10499307804987
0,103310944641154
0,104885347975754
0,104553508877828
0,10531507535607
0,104570879619888
0,101521286986724
0,101618014725393
0,102630497933379
0,101023986548626
0,100112873069261
0,101237349470107
0,10244970323467
0,102581989659819
0,103406300826175
0,101640202957774
0,101746577877698
0,10176064225023
0,102090392484432
0,0979070194015403
0,0993079242068112
0,102399089278182
0,101770980303682
0,0992087009715202
0,101037081810043
0,0980943540683206
0,101421749979331
0,101211026191167
0,0979105461983542
0,0980052572302577
0,100601338425576
0,0996280339980247
0,0991537356182733
0,0954805055884874
0,0959250608698867
0,0987247434890892
0,0988918852067883
0,0969569859541612
0,0989167377457529
0,0970121437673867
0,097459795956013
0,096744602271369
0,0949326428049888
0,0939749326546439
0,0968679428625715
0,0949764998122175
0,0958159248806048
0,0939738331181436
0,0944529791742761
0,0950250546009796
0,0923527613241045
0,0937700624753085
0,0934820909896061
0,0912669936470281
0,0915806043629524
0,091522396158007
0,092283963549456
0,0913218262171458
0,0888376426678669
0,0863458089189203
0,0888776176536772
0,0902924044894955
0,0921224014989996
0,0882370161858008
0,091049454592833
0,0910823715050318
0,0893636254466169
0,0871260902775388
0,0886117244826574
0,0886423118595452
0,0902444588674298
0,0890607590199612
0,08661128191587
0,0891929848026201
0,0868412116422916
0,0872077466115398
0,0873591531086892
0,0875034682967374
0,089012246935462
0,0869346752366165
0,0876803274699832
0,0857547816794228
0,0868233216711451
0,0874816376280871
0,08986555142817
0,0860030422924347
0,0853410097024675
0,0884602175312887
0,0876278350309384
0,0816762239594835
0,0824215620158419
0,0859917378976993
0,086003370452219
0,0831874428537021
0,0847129168383289
0,0805933837746967
0,0841135285607286
0,084014974135277
0,0812712363882195
0,0819923007636403
0,0828278811783934
0,0825890219778963
0,0822887690053227
0,0806907121168812
0,0791451172009894
0,0793615734304199
0,0793866094151059
0,0794225117228702
0,0795147293161066
0,0785199864464306
0,0802195293783452
0,0801891216797275
0,078661636550163
0,0726783939013605
0,0745725811953874
0,0765442149885451
0,0746460232738865
0,0745317517457197
0,074457478220926
0,0732590471145423
0,0770156077802533
0,0743863746953065
0,0737699337643758
0,0736727591872935
0,075394089107571
0,0737594905063651
0,0770290901359201
0,075158574409692
0,0719643146130823
0,0730854340036549
0,072013694882622
0,0697746453093282
0,0742755809716958
0,0708706834754534
0,0699325751571894
0,0719257909002462
0,0712230266794757
0,0708361510817633
0,0729873681098546
0,0710788129700517
0,0705074330786889
0,0695171195950349
0,0720447078342142
0,0715189504289325
0,0701517103197603
0,0684883718597638
0,0707859628407591
0,0699070563031015
0,0707845150073284
0,0684875947341785
0,0673857310166777
0,0682343745150985
0,0701346055232437
0,0659363099689531
0,0669262923475562
0,0701902165756235
0,0686420469381142
0,064756704031526
0,0673602749679961
0,0653355133352805
0,066572300496703
0,0668033903931503
0,0657721169542104
0,0647743551843922
0,0658413480525504
0,0656251793107044
0,0627729013317224
0,0636733633988719
0,0630608014880506
0,0630219828705199
0,0622796821915386
0,06130199750736
0,0643158723204052
0,0624982769643954
0,0624177613920712
0,0613172999195994
0,0600702048117192
0,0633132523265713
0,0623418610897054
0,0613985681968061
0,0618429416101101
0,0598333449477876
0,0611566382101458
0,058915344384318
0,0595097893547947
0,0614011305515591
0,0602385446354612
0,0605230091230274
0,0609340241581833
0,0589135509752165
0,0607970022396659
0,0579557825952021
0,0589380234642279
0,059674214740427
0,0590772958982454
0,0607345459999034
0,0603970815790831
0,0574967647021577
0,0588321568244757
0,0615317003587914
0,0625873870937823
0,0614724388610019
0,0610893188041648
0,0619621901484256
0,0602290608938529
0,0593150280525752
0,0588446217448092
0,0572935667868653
0,0601655489152576
0,0568142970486785
0,0592509002560573
0,056169579237958
0,0551495919455953
0,0539259946848581
0,0540279834219331
0,0552953501236471
0,0574294024273206
0,0561420301471947
0,052393511100037
0,0481972326374965
0,0505501677333732
0,0519905058528146
0,0503163912094032
0,045348925111742
0,0477988543114506
0,049664726055131
0,0490383425656623
0,0547463343371257
0,0517157831675824
0,0450693716026332
0,052327513264122
0,0543815876337489
0,0501797074356979
0,0566384242276176
0,0544199727678616
0,0556192776580687
0,0557384947231067
0,0539860001206367
0,0483308059883929
0,0482250913192553
0,0511335661449277
0,0530252633438726
0,0518441155939088
0,0484049051051597
0,0507495840977748
0,0496635189087907
0,0476583658641756
0,05128782945372
0,0497587060512163
0,0458668057428476
0,0500423199360889
0,0438256130681341
0,0524201314348845
0,0453231828346493
0,0609068806056208
0,0491065861510759
0,054326705012907
0,0395658457323023
0,0596103106053907
0,0446080138609438
0,0670423735028841
0,0360650451527663
0,0651493973120792
0,0352649590699011
0,0782061911444085
0,0374344002001171
0,0741551472232195
0,0338615362733355
0,0812991844770411
0,0350754921272805
0,0749759283994115
0,0394692324928594
0,0687929028743266
0,0432546008359639
0,060647677910189
0,0543054470241341
0,0591447639261863
0,05247079740055
0,0552214408572544
0,057606044693293
0,0518579146940074
0,0563661680567903
0,0545301446828257
0,0516501338950373
0,0562051261739842
0,0496346181389257
0,054867416754545
0,051065440433623
0,058016600054128
0,0502273057309169
0,0532714670739414
0,0492561224279141
0,0545811242446849
0,0513735555758916
0,0528496706357775
0,0495623027676338
0,0516503420970774
0,0478518518436895
0,0500855176285887
0,0486251394160863
0,0526711109932008
0,0495691116736601
0,0519784798281581
0,0489650287498022
0,0516658473398577
0,0505698314130712
0,0535179379338364
0,0486817519455818
0,0524055966910865
0,0506188256200159
0,0512728340817562
0,0488504124037156
0,0534446404138744
0,048717241878479
0,0532621394395942
0,0499293079715254
0,0515253100297484
0,0460443939549714
0,0513461781142995
0,0484946232492467
0,0526101819264905
0,0508428323232248
0,0550640415640557
0,0507859638677168
0,0513567772780618
0,0477570423369443
0,0513643075629713
0,0501035774498498
0,0511856069967944
0,0488393116312691
0,0531495375589023
0,0508938338004849
0,0513716633016744
0,0496726922978891
0,0533074621123166
0,0467013923295532
0,0515080145725247
0,0489476441862541
0,0534019234534113
0,0501984453879964
0,0525101179092413
0,0482048048128263
0,0526602311629418
0,0511710671030513
0,0525567148135138
0,0494094997299024
0,0513622875983315
0,0494286133991529
0,0532623927213174
0,0499126765937938
0,05041840594802
0,0488169829648784
0,0512407053584214
0,0488051788421724
0,0509819487628574
0,0485330587080806
0,0494608172975963
0,047957073134901
0,0510336914224061
0,0489866877503158
0,0519278475535429
0,0489301050413335
0,0508465530274433
0,0502244127219364
0,0518019682657073
0,0484692517805687
0,0520724429544587
0,0499026295939679
0,0491779331561746
0,0489543920791117
0,051921419109703
0,0481732522840374
0,0506410087954896
0,0501735146913711
0,0517048239945016
0,0502375100074133
0,0523360641573771
0,0515996241432996
0,0553730245187135
0,0501561550323679
0,0509230377107199
0,0493083787083225
0,052792331372202
0,0506607308652641
0,0516569574472179
0,0501605485523682
0,0514611543780853
0,0486987357162119
0,0531800665976987
0,0514094449253255
0,054018563844346
0,052216433724065
0,0522963535276159
0,0514566729701546
0,0531175065007121
0,0516970456650103
0,0532888558127061
0,0523771582411937
0,0539674558499403
0,0511785105040789
0,0520267539225125
0,0505093029856288
0,0536787630463943
0,0511923785417108
0,0551794620566535
0,0534392125436164
0,0525778850663571
0,0510678720019048
0,0520743595568603
0,0500557878360808
0,0534250838565958
0,0503702621729954
0,0526568431766828
0,0496251767493786
0,0515668507415941
0,0483734290499248
0,0554598156212028
0,0517283675667213
0,0522251551196445
0,0529668166510863
0,0527753432118473
0,050616025394999
0,0533145194352616
0,0499375522220266
0,0538250014004446
0,05197899095205
0,0531539741152381
0,0507393905822136
0,051907539863021
0,0495464258957958
0,0541731006533216
0,05070165907035
0,0550896940740046
0,053710649795033
0,05366500217032
0,051256233684064
0,0536581016767528
0,0522624854791679
0,0550408383982231
0,0526837289441798
0,0556485473056756
0,0526193918027113
0,0564259173100726
0,0513096313280735
0,0550384385429476
0,0551846538299508
0,0543429745629158
0,0533699570348438
0,0569502019177332
0,0522904162423644
0,0537796271684108
0,0562688940182004
0,0559986266523259
0,0498705644839471
0,0537138187859407
0,0534100168133854
0,055091067671188
0,051370395857711
0,054393068368855
0,0541922659212805
0,0553228176128204
0,0518822631776373
0,0553700508270384
0,0529122485091667
0,053208900427474
0,0516870378067391
0,0519707603736059
0,0518195177152104
0,0541658345368695
0,0522532815573124
0,0525179326132358
0,0512128412141164
0,0526184552200442
0,0492916678372409
0,0518188731434994
0,0503517219028352
0,0523703929133578
0,0500476765170687
0,0534677183333797
0,0496843786334415
0,0511217685675971
0,0486924017820887
0,051582375647993
0,0497606726511705
0,05199290355569
0,0492501101986616
0,0506303735932683
0,0507941929576915
0,0529051529999206
0,0483958202380259
0,0508205919911879
0,0491097495901155
0,0520668880113024
0,0488067588570514
0,0502677815431603
0,049132994956264
0,0511091658282867
0,050349473735443
0,0504209025513053
0,0492296319232414
0,0501095117344611
0,0482753609745977
0,0518914747247379
0,0487371909225315
0,0512702748260159
0,0487043004485399
0,0540814145879721
0,0502947894400038
0,0508778912276065
0,0492916192686595
0,0507040260416698
0,0490273080087973
0,0507203556726263
0,0482451660671265
0,0525613551659689
0,04958913765682
0,0510718855277324
0,0471674951769827
0,0526385451436057
0,0466275095682335
0,0512954761800511
0,0499505660806296
0,0485638576490104
0,0496575638411133
0,0505050281610118
0,0479212983275347
0,0503975309294671
0,0482797657873837
0,0491933359908907
0,0491437510933747
0,0509677647511556
0,0466068981743682
0,0485589129995485
0,0466343593850622
0,0514991887640852
0,0486161780713283
0,0497957906504085
0,0472127093668447
0,0497771519596605
0,0490514175965589
0,050437375801059
0,050516399910912
0,0519134472263612
0,0464681091952063
0,0516611348765658
0,0480538792090601
0,0494313252271852
0,0480530113004296
0,0468210754065788
0,0457890897330719
0,0501001710094857
0,0457848593163746
0,0482760006401397
0,0458415487473893
0,0483303207786216
0,0477811994005442
0,0483811450881158
0,0457224235697905
0,0493520657174519
0,0465895648231784
0,0506406094767622
0,0474276499152448
0,0503401136235533
0,0449272468386512
0,0492020718523294
0,0441639361214062
0,0474205189217339
0,0501497794748852
0,0508607652633687
0,0467105509525101
0,0486071827728716
0,0447003504168526
0,0483070276037375
0,0450927720282352
0,0483369807018321
0,0456267690881162
0,0495135384440259
0,0471080259959711
0,0463500135234274
0,0439691060752813
0,0473326359894682
0,0453083026150979
0,0484676242871403
0,0443761328579507
0,0475723632267941
0,0448271107178296
0,0466257511681542
0,0417910058634759
0,0462676094657005
0,0433358766277585
0,0471838714738387
0,0461411936807914
0,0465748507429398
0,0522874956745719
0,0447501641882662
0,0411433396349021
0,0437546961496609
0,0429995229114789
0,045380407653278
0,0437297568856774
0,0450957189971729
0,0440624756563243
0,0438315422364741
0,0404022028243697
0,0419841692771601
0,0442847488652589
0,0404592471836744
0,0414181817092793
0,0433608953720967
0,0416479206729038
0,0442897696404414
0,0422787250055066
0,0417829941419571
0,040639218307237
0,041791240702549
0,0412462170844133
0,0393838116462263
0,0424872406865686
0,0392359607081249
0,0509399776282348
0,0523520513401987
0,0418986190945731
0,0433795544911883
0,0435114784828823
0,0462471434323755
0,0383446239128157
0,0456704060178721
0,0409929987177511
0,0444459635003912
0,0397531180584312
0,0421239228926342
0,0392258037697487
0,0408701928717344
0,0384824371639509
0,0429036750667991
0,0389502645715111
0,0439160889083479
0,0400947430118471
0,0403949351838183
0,0374982718208553
0,0414035117575425
0,040540999084915
0,0402325497021452
0,0387678863822358
0,0393403409642127
0,0387095230605175
0,0518944208391965
0,0443499709968897
0,0454837457430792
0,0379587875562226
0,0424822807341992
0,0388007270462634
0,0428636585749151
0,0377980957000804
0,0423245296830647
0,0365849843365102
0,0385939581451287
0,039530819104715
0,0407874379786621
0,0380448296215664
0,0406538506488245
0,0372731032854829
0,0419181105494235
0,035341949566607
0,0404908760946036
0,0357492042693072
0,0398616961578606
0,0343108929215071
0,0451958140681222
0,0383631923684803
0,0472382243545434
0,030837939569386
0,0484299595061901
0,0561962198148119
0,0433054975928859
0,0406900958648141
0,0365147389911663
0,0373793109926644
0,0371093588006106
0,0392275528518224
0,0396062214427607
0,0368868695183488
0,0383728175920093
0,0377783000665778
0,0377440688658876
0,0380574376492727
0,0399835926357878
0,0390185998348279
0,0374213396154821
0,0381149111067949
0,0369775698048396
0,0384009743315717
0,0360920540112404
0,0425923048525999
0,0569152548125861
0,0422944315788222
0,0435369360189707
0,0362939328820477
0,0343375475334833
0,0675468521714846
0,0398627127350088
0,0428322869403059
0,0372261659778365
0,0446107681471253
0,0350482738201315
0,0401073493510938
0,0328317845372202
0,0419450868243302
0,0437215306406911
0,041662242362531
0,0428871667513467
0,0380638141482275
0,0383764136155725
0,0369009952334452
0,0383896563695465
0,035292770655934
0,040184181739892
0,0375001492439861
0,0382111881254491
0,0359574622470556
0,0342608508316486
0,0380632335334677
0,0330257311539923
0,0428050941307585
0,0436755233706068
0,0398699421561227
0,0354128547475496
0,041806583926518
0,031301210394105
0,045933785819314
0,0569077386546827
0,0358151559216068
0,0448971126753753
0,0320964997423474
0,0420960916643964
0,0356939309064335
0,0393746145620738
0,0338034720413668
0,0393115279227816
0,0341005018460531
0,04027508956644
0,0340390866155607
0,0408639900740112
0,0343352099411959
0,0384287684818249
0,0331043362151164
0,0396354458114789
0,03582099805414
0,0370251408174208
0,0414117512022409
0,0373965322674055
0,0593473792409822
0,0568483645805728
0,0548787861138504
0,049870496499848
0,0454734423151371
0,0388254507272804
0,0372984180110004
0,0369287938102517
0,0385125941909773
0,0427052342541215
0,0384878167782266
0,0377184368287486
0,0374477704776601
0,040271297536369
0,0339595037761752
0,0389061383686683
0,0341662935391137
0,0393813687664792
0,0335328255107688
0,0412362466382806
0,0350303394451807
0,0423361189125232
0,0302353725195363
0,053886434906913
0,0357581408934326
0,0487882188639231
0,0248571624461847
0,0906422473101334
0,0505026290342599
0,050291780387252
0,0453487270922017
0,0382949601486772
0,036846860494307
0,0372264899084112
0,0402449818448115
0,047930478824626
0,0355105071018147
0,0391446979653861
0,0340842349350219
0,0432209653282015
0,0406524204300627
0,0322162760593337
0,0466253067706006
0,0767397595415345
0,0452780809546407
0,0502016572796533
0,0300091402053159
0,0511304659437546
0,0690578924389012
0,040894323548304
0,0485045269605082
0,0418714343857386
0,0401621321206855
0,0370992640687101
0,0375721293139039
0,0381130172513545
0,0456029318112707
0,0404785918814823
0,0389359329792689
0,0403608181342838
0,0356858775521078
0,0488647584651096
0,0402488851570896
0,0555170241208374
0,05037649315682
0,0382586895374496
0,0460664503421144
0,0455528982131286
0,0422207288241723
0,0437554124290428
0,0421368055855603
0,038906417576351
0,053862016563505
0,0555298330080516
0,0442824167092057
0,0638392864790754
0,0519793903321466
0,0397396348783412
0,0471037243422628
0,0517098288390018
0,0604201417622432
0,029500166682514
0,0677661764972696
0,0715134987315762
0,0614168786883732
0,0676483386043638
0,0427930209918544
0,049749784317762
0,0374147608227075
0,0484043329891982
0,0323050130186647
0,0734222859325512
0,034488840242365
0,0586533447256325
0,0278677358983898
0,0686558743226285
0,0504669598274511
0,0559432802831924
0,042626021211445
0,046427705605926
0,0368313612498338
0,0707777645922444
0,0436476718708894
0,0481960405007142
0,0794828280162382
0,0766172897653871
0,0809762198407289
0,0486767091931957
0,0460534605405108
0,0945598719148237
0,0446636905899324
0,0582442638614988
0,0371018606110829
0,0602378218695738
0,034205510739604
0,0560342573629924
0,0856517215859376
0,0551675738923363
0,048126825098395
0,0549881497201473
0,0431408789269357
0,0849884721303429
0,055224217657522
0,0568758895036372
0,0469384283827915
0,060315113731247
0,0334751596242299
0,127509058422453
0,0538845914561857
0,0888457652031922
0,0769128405007632
0,0825943716622876
0,068988375240403
0,069954882508376
0,056371594473977
0,0797681034020166
0,0817620907493792
0,0669554341872176
0,0436453805901044
0,0893142181746732
0,0833313262797227
0,0614663613951178
0,0728509401318262
0,05710146475962
0,0558577018620328
0,112127957965031
0,132908940496062
0,104328048104997
0,0710081753807178
0,0714043978000668
0,105372535893708
0,0698065541932514
0,0668774784899129
0,0641234006080885
0,0669917993367531
0,0696863442841893
0,0674000929222361
0,0894878112799112
0,0664247888738383
0,0811294863891245
0,0655353986136463
0,075563845379124
0,0899610806993666
0,142966373436294
0,115781435543213
0,0872124713175978
0,133432932713383
0,103427251797444
0,0985214645804981
0,080100820124274
0,078893202298174
0,095650905655089
0,0856028513428345
0,0863429592016494
0,0797083286703447
0,127232076668981
0,097850943570358
0,117564123573983
0,118387781280874
0,101776032490754
0,100236118094351
0,0870394575150207
0,363578402473031
0,124167055217488
0,144102440206319
0,107195282628713
0,15028858917179
0,206166323435284
0,14277926857401
0,133785325614315
0,138115476242272
0,132251942350822
0,150689565412214
0,154625049008024
0,161728355775942
0,175629027539179
0,165147343422476
0,156382638902308
0,199014394736442
0,264823855609993
0,26075214463399
0,209129228231183
0,19470946855871
0,216667899855587
0,225015835907721
0,199318781618809
0,218350888172997
0,199127279029284
0,236735451431144
0,281853299699301
0,235487773392624
0,236706572934955
0,246888476694921
0,28711190218773
0,234437810422251
0,34910300966293
0,287302838001369
0,291269360862987
0,264207715257228
0,286518686510709
0,285432226587871
0,285341252672353
0,337381330517031
0,320748319139661
0,313005192550396
0,316524085681457
0,316922867163288
0,322174985011123
0,324780012258558
0,334203224735735
0,325079961087137
0,400210169683206
0,358441107285504
0,589299269427084
0,364770853977619
0,355522424855908
0,340228886885917
0,346107064993769
0,404443491768066
0,378230974453256
0,414951097967074
0,3747973784716
0,349569166117995
0,357200998540654
0,346897698493071
0,353197280312673
0,33982692012114
0,358018127535547
0,329999152479574
0,385322801209757
0,331733567391047
0,429719200949696
0,430445214698732
0,36273049132295
0,346470840540106
0,348438377285904
0,335777778206399
0,347339043724441
0,333883530494481
0,361988586548885
0,365319662271931
0,343743011195349
0,336870822995836
0,310211832263508
0,357221033224801
0,346065776103259
0,315771354718037
0,31192729075173
0,293249766702493
0,304745203561619
0,276792865237981
0,317029847139259
0,353533476434041
0,284136008453004
0,288713553661235
0,272777539223494
0,27501952226219
0,275359758970116
0,267126788042651
0,277844974444208
0,26832141731477
0,264116164147015
0,272624213177492
0,254662235181639
0,259284429377498
0,257754725031119
0,269626322866694
0,255128899908426
0,260514745091026
0,258920817780534
0,254804647551644
0,260578474516759
0,254065235207661
0,254266321270375
0,256205122349684
0,266256232247424
0,262515780575461
0,255628440629362
0,257819156036987
0,249103460057688
0,259938066952618
0,260803864897604
0,254005956069684
0,256738430037534
0,25189932835288
0,258185085286553
0,253722368513124
0,252650546914821
0,257406195942635
0,254986186520872
0,256305258824477
0,254176758793701
0,257230080673589
0,26084746594116
0,249075866243105
0,3390051290846
0,281538051950073
0,262932558400588
0,251483863326395
0,252808632428316
0,252465476290015
0,242051980455611
0,311493532048769
0,280117564635553
0,248232585032208
0,250731624514402
0,24116913723076
0,269158003554593
0,252734089035336
0,242879088087536
0,258359133440987
0,228908601453581
0,303510099808675
0,310516786968979
0,346313112469324
0,350480713383873
0,277195929698597
0,23909713155322
0,270253863552063
0,299562122184276
0,245090410671216
0,249025299259672
0,233017685782693
0,303864998951248
0,258532338974503
0,249444407986735
0,245456236395253
0,236946206277169
0,267745152685084
0,28441511103448
0,251408882191984
0,27943723861757
0,289136451850266
0,266562115485929
0,308820980194307
0,328718757944393
0,276103783289026
0,231796264098188
0,234672618743539
0,231794950076949
0,241392288218489
0,303928277829801
0,229523931487789
0,253397624373758
0,216474649043623
0,219597760597968
0,223629168572099
0,246318685656792
0,223931275362708
0,221406052858799
0,267293278038956
0,205286353205048
0,233665634153025
0,227526489301815
0,268901730246872
0,27065791729911
0,217282061714581
0,189861599004663
0,247201305859707
0,248596116667946
0,214219690234031
0,225810977311032
0,182857307392142
0,196004628849776
0,219302983989757
0,185061603269253
0,208204183158822
0,202379944420404
0,220823676350922
0,262015661482723
0,269084426891611
0,24582758891538
0,186912527535678
0,167173289499453
0,166468043230932
0,175785036457653
0,175778652252715
0,152795028815572
0,202141964296443
0,170717705404332
0,167035545583801
0,225032289669187
0,176920415223847
0,165946671459039
0,167372636349278
0,160495863758093
0,176828283174306
0,205736143345286
0,234056505281408
0,191490558102167
0,189641104164045
0,201782397005793
0,179299035738547
0,183952101075138
0,176508570929723
0,186584226785927
0,184630819322497
0,198485488994046
0,192003558974277
0,191471107815545
0,199764218108563
0,197613471760632
0,236988053253849
0,248138564845157
0,206688874936702
0,26251679615982
0,248404353622907
0,300443334773555
0,247945602646016
0,238328843032051
0,241354495263057
0,244277682112434
0,252471034667734
0,247422836616847
0,26606525315396
0,301404597260361
0,262387463350037
0,272897929486754
0,267812655940631
0,275414751271082
0,274862687306561
0,324088364579956
0,297969080315425
0,367787000854369
0,342063458469203
0,317142157417787
0,301391267416152
0,290272138598257
0,300179266014332
0,298369226299676
0,289713049546787
0,294341693310468
0,29567677775585
0,336345651405421
0,301392915503432
0,306133776320044
0,300168456005588
0,300738464537968
0,299742535803416
0,308522253032307
0,309459841558402
0,31004038594356
0,308707364763289
0,315240634856987
0,320654649939977
0,407274079664913
0,34442807353325
0,329731405964566
0,328714062167453
0,334542065228165
0,328857137532768
0,334576684179031
0,350148689864104
0,345311415751694
0,338266069854074
0,343398383675268
0,341475949794275
0,345042928272849
0,356207526153731
0,379946590102142
0,343416864085393
0,364949303537148
0,34098729772408
0,399938147210264
0,41092228932206
0,384915356949962
0,389905975913722
0,373666080033812
0,370164609872739
0,366608557054239
0,366497480415848
0,369134697395129
0,371787432014381
0,369808732248055
0,371286635920094
0,370110739026155
0,370292450370756
0,370969437057513
0,374372705478602
0,400772704109224
0,378098686118046
0,373357880135715
0,373120297730278
0,371168566188298
0,367148015604673
0,408338718114622
0,39250359452125
0,380433727995676
0,375743146970832
0,384844091827408
0,393305068486118
0,383518065684139
0,365948071433517
0,370963801941044
0,36705114198923
0,375630085037803
0,363798192971083
0,377698101874874
0,401454718714528
0,382886633178619
0,374544072297703
0,375988613992662
0,375182110351057
0,377528008684791
0,381550409642067
0,383024154416828
0,383248548508172
0,388933176149108
0,393723108533688
0,382989924558615
0,386830021535671
0,401306306481315
0,398814702405668
0,403347335736898
0,378522753766434
0,381093114216601
0,382603177647077
0,382636296383306
0,389343151879219
0,37831063985676
0,368193034432138
0,370369163476667
0,362439318450363
0,367416207961458
0,395834538980728
0,367565675597106
0,369904093815005
0,361106253196238
0,344419546629095
0,352694772653699
0,341259261843688
0,342045003394864
0,337703753054959
0,344253480641486
0,332462715202085
0,334002858711546
0,332339783940852
0,329598759806284
0,329258605871578
0,33150439098886
0,326728491614328
0,324760848881183
0,324410424471736
0,330491530280422
0,323851378347514
0,324966704982888
0,322960892094422
0,324903215328469
0,339113078471753
0,3488205277303
0,345245027013152
0,330829006070768
0,332802382969786
0,334468760487844
0,323183761655041
0,32516283724529
0,317445223106686
0,322894970098699
0,319718230188433
0,32470261883044
0,319495027205778
0,319289329532165
0,320397118288619
0,325104555184165
0,318155492996314
0,320835753756672
0,318717573379122
0,319973343001241
0,318605239961073
0,325521108788908
0,322603362363829
0,330411647456549
0,323087492427215
0,325499373527024
0,326793311812455
0,32284743291
0,324537163576122
0,327445638083604
0,330254833572821
0,322252725509839
0,321809903818478
0,320696948741983
0,321828414252787
0,325437278527741
0,317931270294286
0,3214791096609
0,316850959734522
0,317646181782948
0,31545341769795
0,316186690429867
0,310310842556599
0,309596320416701
0,305812391103231
0,303204729562626
0,300287306701259
0,302907146981804
0,294422187513473
0,291819828662993
0,288778360776225
0,289928210255286
0,285837590755969
0,287243694725808
0,284726248135889
0,280884612818796
0,279162038121518
0,282901671954846
0,278522697829696
0,275783453506733
0,271200564297182
0,274484274374398
0,27442857796263
0,27591451155071
0,27388751936466
0,271826866352369
0,27091539713706
0,273024501706829
0,274169999114259
0,273579186826236
0,272070900415784
0,275887409132991
0,277695754926074
0,277298812244814
0,279208224981809
0,280844487012304
0,281911600327469
0,280971862308866
0,281908725884689
0,287088444762617
0,284006962390473
0,289213604049586
0,287100474340961
0,289550988979563
0,287427123264269
0,289702235562917
0,290071205121688
0,293211920354819
0,292866822760351
0,292719043909116
0,28854633358574
0,289758743018891
0,289409489638198
0,291242866839419
0,290096455596392
0,291328504621314
0,287999244120912
0,289505108611431
0,288230046437141
0,287197987348233
0,287419262272536
0,286086833072192
0,284470439304355
0,285147020012131
0,285066244910337
0,284033836810021
0,280727182240087
0,280976733262817
0,279768099462122
0,281983991742213
0,278909828915618
0,279902347866005
0,274516077090642
0,27571337952911
0,274983194244824
0,27828132674444
0,274540754315556
0,272068032324624
0,269778309777064
0,269973759218127
0,267661360777575
0,269047919385604
0,267472119669491
0,267035654093827
0,266612214241739
0,2651873685795
0,262430510817137
0,263507527170674
0,260798099456306
0,259607701739396
0,256955471110825
0,255289791762588
0,255407685587768
0,252549809324849
0,250010960558852
0,25144538054073
0,247489569447716
0,245374353503723
0,244059032248511
0,241031032973138
0,237988593034266
0,238656326281998
0,23536215333865
0,234991092738144
0,232126477620247
0,232331474610686
0,230006616187072
0,22953572750422
0,22834818213837
0,227926383795773
0,229035895824701
0,227388221612438
0,225291648298487
0,227923802240809
0,225068564190739
0,222431527692526
0,221011420193565
0,219134245000269
0,215427964174367
0,215365818848365
0,211405184511939
0,210816241355418
0,207780518940791
0,203512392781921
0,204896051072885
0,205854018113563
0,203904252412352
0,206488510487956
0,207081282569962
0,212578288104663
0,214365768283861
0,217140314719319
0,225869919200015
0,230610614825769
0,239941714794802
0,251580035576865
0,25888244333666
0,26969805934663
0,276913581692755
0,288490469229867
0,298362647509558
0,311197554061647
0,323964797517396
0,333795961347463
0,344145797870363
0,358519819148565
0,366246906519821
0,378284497715346
0,388812580278073
0,39847171677326
0,40730665630164
0,418144080314673
0,427000758980108
0,433566702631565
0,442100278825697
0,448952621623776
0,455746592659229
0,462254156816917
0,466181383628327
0,47316283352487
0,479398444104073
0,482692440344076
0,483092781430769
0,489578725702142
0,487883755396965
0,491224741607249
0,490060973570001
0,490490068769323
0,48917905830759
0,490832682988376
0,48908871655954
0,487557278920168
0,489559133244956
0,489293343717419
0,495066529592746
0,499404611007423
0,496582337958747
0,5040554459613
0,504349035143071
0,508078136228445
0,511708167495941
0,515936272122439
0,520873990538462
0,524662278783314
0,528398275273161
0,533246375145877
0,538814050696143
0,546420413975769
0,551193882913024
0,561836496358286
0,569117839869209
0,572686475084586
0,581138567668077
0,590671114934313
0,598078184539184
0,606881624211808
0,609736125385612
0,619497737371785
0,626323077938486
0,631105911306489
0,630041222346357
0,638070672741174
0,64100002165968
0,635918703101417
0,633524136497258
0,641300093033193
0,638268191974183
0,638406113925293
0,629946868859868
0,625877713597
0,630933377125622
0,63034700578641
0,629942015349769
0,635570106234325
0,641333332039052
0,647529763856251
0,654843770714453
0,671315001775644
0,684104693132133
0,68485543008519
0,696537082320394
0,712231295343404
0,718195342708084
0,732954748702544
0,744149313972057
0,752900379336551
0,766476981614501
0,776063640032698
0,783202231619829
0,802559699002501
0,814575286172414
0,824705600220113
0,832765866963243
0,849208270036363
0,86777888411799
0,881562983772739
0,898423054267757
0,911735618765887
0,932752744560047
0,942610434082143
0,965775742091464
0,983916669413633
0,98446802171366
0,99682596188646
1,00491444671176
1,01352653740449
1,02068626988407
1,04697503452919
1,06302299425575
1,06426271131002
1,07072177615226
1,07001839644566
1,0649776127021
1,07751279633489
1,0839174863764
1,07500940919113
1,07392897794423
1,06988791469139
1,05999377107249
1,0537427362536
1,06617870660518
1,04609590663158
1,05261088584612
1,0597592399088
1,03787907462247
1,05005359620427
1,05640480672159
1,07210148462054
1,0725360323182
1,08046547288194
1,08940682502129
1,0901212186691
1,09764311676489
1,11788302600399
1,13791925951343
1,12582669440804
1,14296681736879
1,14945761409023
1,14079183540138
1,15115802814749
1,18801799481536
1,18487433564981
1,17258392173167
1,18592762037878
1,18326736487601
1,18764836607881
1,18400066466066
1,19475025074471
1,2034106238773
1,19661358230015
1,18653997342764
1,20664236378843
1,21229493837723
1,20988217204626
1,22428469954202
1,21246516687676
1,19645228800743
1,19946074153354
1,19385598921337
1,18926673814547
1,19002455873776
1,19010421850814
1,19947512038249
1,19016777191624
1,17546544462877
1,17468671703762
1,15691813046464
1,15763682108634
1,1328036507598
1,12972919924522
1,09823480221439
1,0675165115929
1,04947489640522
1,01487682062247
0,975573281459426
0,943672160250629
0,913863363297822
0,883411592874078
0,859264177006564
0,823207690903975
0,790994700774319
0,772963824050317
0,751966462749503
0,728416765337531
0,714781195881682
0,712542677997738
0,699576630675851
0,698615400472188
0,69764516038596
0,69455903797575
0,683582437935495
0,677016704184829
0,670122622296515
0,655886439422541
0,651046377835146
0,639879432962347
0,633372060272949
0,633025244934089
0,61414404888816
0,600501567465473
0,589563660329905
0,572903419152272
0,559487490327558
0,545507566924307
0,526285758423098
0,509117507547957
0,493167628238232
0,476560933949371
0,452783838907922
0,433755041323198
0,414420883798145
0,394471550709605
0,380679822645461
0,359419193602948
0,342875420820567
0,324794209490446
0,309241681722018
0,295670666549536
0,281210440969525
0,269930370997941
0,261840671372658
0,258026147386011
0,241802320674336
0,234485276613882
0,232108975061021
0,225059128631261
0,216855677650748
0,214728341895956
0,211725941261067
0,206651993405009
0,206319773579684
0,207809392536868
0,206016874246558
0,206060026952256
0,204958438868779
0,204126839762914
0,207493492938898
0,205837555045813
0,208839654759534
0,20803443540968
0,210571167717479
0,209984684931539
0,212036446405231
0,211355487226227
0,211435652971744
0,210673166309932
0,212196003432571
0,210232011846688
0,208366138398528
0,204212822889751
0,203480614681382
0,203127292479493
0,203688595129886
0,197921968738908
0,195178274928412
0,197102564045187
0,194174158819559
0,194138854347656
0,194621734256105
0,19473422856197
0,195481713723629
0,198131619865802
0,199704441105143
0,202625230529834
0,204172936863153
0,206964045798985
0,207060872686685
0,210087371668958
0,212539094410937
0,21696067656059
0,218186391506951
0,212266156130033
0,214944417987238
0,216038231725481
0,220534382425067
0,219507732946256
0,224432384029649
0,223377295238418
0,218054809513153
0,219561540967616
0,221016735374519
0,224830054191591
0,228550599572717
0,228585140174545
0,2292707303253
0,231525692933763
0,229155300774692
0,234225044495505
0,236631309238951
0,243212976691834
0,253658299665925
0,254813416476217
0,265378121250526
0,272686241869807
0,280299969792968
0,287256698230803
0,296283477259577
0,299552500503882
0,305561837629159
0,315957951344981
0,314085718112402
0,308634175376858
0,309269230148625
0,308336900208534
0,298505408126332
0,294671065367321
0,289970254132108
0,288165237722945
0,284482902929111
0,277087730349027
0,277716704670474
0,275965294095285
0,270250453724916
0,267329261049721
0,271491350758006
0,26928383279131
0,275274332100009
0,276896594578624
0,261449630660566
0,264560337187607
0,271227069289433
0,268715121397693
0,2705878035997
0,265875009071013
0,26406792934944
0,258610662105165
0,255064081598996
0,253235798688115
0,253428188825417
0,249538980129579
0,244561642005174
0,244020684372559
0,243930301199506
0,23817132815567
0,240161055125185
0,241704909050414
0,233951636563946
0,234926683280975
0,238243964598031
0,238517433506011
0,235609573986607
0,226475094234617
0,229281297230472
0,227284604144492
0,21979271651578
0,227278937053267
0,219801623210592
0,215952692194037
0,225861127025067
0,216069398167663
0,204035391598244
0,212253696643062
0,220031823599699
0,214954480488022
0,214573115736603
0,214889072770954
0,210208622444341
0,214445658082865
0,211013506910537
0,196497435825831
0,200191241525172
0,197618806765993
0,199455121613254
0,202584799207657
0,203795881595832
0,210935753825963
0,196681095781241
0,188956836576893
0,199536513537369
0,189637204020902
0,194112412121236
0,211664739185873
0,205203939588399
0,201559799311313
0,193025422699171
0,209390503631733
0,212036197631482
0,196659913603197
0,206165073480987
0,208428531936901
0,213004311427689
0,209960732992483
0,203291096710304
0,213036099006012
0,212579824498916
0,206455656801692
0,211185912166873
0,222969834896299
0,220842476532476
0,223670219909735
0,228480128404761
0,231420050155815
0,227411321665795
0,237374169338132
0,235481206446829
0,24002812787585
0,245755198808221
0,250279592857253
0,248163675760288
0,25872235958191
0,268310008651865
0,256172800464024
0,270367366439432
0,28256938281448
0,292714187268598
0,29183450883835
0,299353862647086
0,321054001554504
0,321868999754105
0,326979461262243
0,350628104079485
0,35261759541596
0,358198546487167
0,361990029530221
0,382213037723917
0,387069682501012
0,383708891560219
0,385992364283923
0,379322006933975
0,39372817885054
0,397799664301818
0,366555972074068
0,357014615955627
0,375222363620147
0,371481298793744
0,383066662131794
0,371450981520914
0,368771680788826
0,364872284435156
0,366060937705271
0,365027199671902
0,357932947933736
0,359702062784487
0,377495934306101
0,359551698034269
0,353726121831778
0,342125880642821
0,349632095007365
0,341575767396331
0,346865624584243
0,336989213917783
0,343638827933012
0,337362071094622
0,326553587738464
0,324270947666628
0,340323636534982
0,325682107544971
0,33133521669136
0,325450048068635
0,322072970509987
0,31421117818338
0,324602268450145
0,311391552110405
0,345323863513423
0,315870348604161
0,304940285710872
0,327918999198192
0,310707253800671
0,325218755110448
0,32683092327244
0,332212402889902
0,341032632259316
0,349228356033843
0,34586114979415
0,332639269538456
0,349640347787317
0,359788895392738
0,33940279564451
0,336417906431812
0,343486124990446
0,32541145639046
0,327970177369171
0,341646636579117
0,339938382190778
0,326914446013233
0,364730148688517
0,359015157230812
0,329413027700757
0,356888297537885
0,382888632826977
0,374319021803883
0,36119233743335
0,373947714009601
0,377677261324838
0,371185947124647
0,388649619661753
0,370072144601872
0,368415327535304
0,390815299463885
0,397386082006101
0,375316787419976
0,421772227596576
0,420192994075892
0,463379356323221
0,400800401557247
0,421993714290524
0,430129381089654
0,404158817699717
0,460603038872349
0,461439082140089
0,463531683487924
0,500763986590918
0,456908316383415
0,45550762615583
0,481913284707629
0,49366815249738
0,475741047158308
0,474331062934353
0,455877967207895
0,465423227631392
0,437673517870439
0,505810525781722
0,441948218102044
0,47549295169245
0,472430425277838
0,425507697717066
0,418562775460495
0,490379515158155
0,434679711887101
0,398744812351661
0,382814494915867
0,454968734163295
0,442089582580222
0,469969871685811
0,461769938191947
0,488923966222305
0,530463950702778
0,442468763453828
0,429207479771405
0,366574821074619
0,397450837536462
0,491849959533143
0,48897705904977
0,481579357229228
0,472398145289916
0,625184608737712
0,591866700549671
0,476658953284781
0,384164171484054
0,53497351351049
0,554044591532127
0,362589362681214
0,263088993116088
0,909928694495239
0,575923119221262
0,528828368263512
0,451575960514893
0,478394969028601
0,531046241999666
0,640440938949217
0,396015972687694
0,404745317972137
0,46165045311669
0,337267751800303
0,501968569164469
0,589295019905395
0,460471176003108
0,482528900378534
0,52661074527228
0,349774878311338
0,303586284517151
0,488438000761253
