3596
4000,36533379555
650,420452594757
1
2
2
0,0768493474337006
0,0574487735469818
0,0624727026198614
0,0708174672888528
0,0668367322361904
0,0553883778483321
0,0651935503119024
0,0630312601613192
0,0570053817164004
0,0614306109156172
0,0653580712074252
0,063109545550972
0,0527005191520121
0,0588367710164721
0,0656105410078338
0,0629668163550016
0,0689915197710811
0,0652333557819947
0,0606626152441684
0,0653264766362002
0,0657015843566196
0,0595808656143138
0,0645941896379432
0,0676536793630589
0,0659581540808664
0,0627448199076968
0,0563616666100104
0,0620699740011258
0,0749986294938246
0,0637519043825014
0,0593090482931944
0,0577404640973202
0,0636707824724351
0,062722829300208
0,0571435958274623
0,0581047098677793
0,0621418842067928
0,0671911476975156
0,0625803293659161
0,0610525979002421
0,0590677673168246
0,0591337836841666
0,0609157816270458
0,0592604767394625
0,0617178724977777
0,0485777982638658
0,0586430397419743
0,0603986577084302
0,0657738177945307
0,0593293804197657
0,0574876663550266
0,0612831649845418
0,0673368122979503
0,0650583706980054
0,0750153421987181
0,0598316729060886
0,063375405757941
0,0636254930489689
0,0610752302872026
0,0624834751126997
0,0770621301867277
0,0469639103361205
0,0609294597432809
0,0542186723817256
0,0692041730296811
0,0585521332385864
0,0629409898669974
0,0529830632905386
0,0652364350399702
0,0525263128377571
0,0545336386392137
0,0756234123216516
0,0562359951857175
0,0637929444560933
0,0721679076729586
0,0627083002221633
0,0556812956440755
0,0585416421137845
0,0591926502197332
0,0641540866264012
0,0659506547493404
0,0521292079025637
0,0539537671020402
0,0564218185146598
0,0712295134061366
0,0567482807795021
0,0504941157725825
0,0739048719887991
0,0599615065921985
0,058461537701826
0,0604817191725891
0,0597795173269238
0,061227846573554
0,0645388306676377
0,0584773660986563
0,0603914824782873
0,0555078012627764
0,0560742477143682
0,0529669616494193
0,0673698606557831
0,0486393832539718
0,0969679640910813
0,0440361319027575
0,0661262776990915
0,0653215887077041
0,0342442902308296
0,0837585881068454
0,0428517435387833
0,0642504026712706
0,0489545163458853
0,0576250196640647
0,0541073750381303
0,0608517572998806
0,0529280044873106
0,0646351132522189
0,0704977612825293
0,0439073147788714
0,0612061454035376
0,0559801372311165
0,0550768709716287
0,0520000791096437
0,100075653561522
0,0368834056191031
0,0607789205562795
0,059631060464722
0,0562457801361747
0,0750222421356803
0,0827856007544303
0,0463531221567777
0,0603773885465973
0,040600073809469
0,0587515044013036
0,0424536106057879
0,0816388027169551
0,0584237126409483
0,0440031030905317
0,057273786569998
0,0625535585359374
0,0958720776048873
0,0514315897908653
0,0489299577295019
0,0564831965627123
0,0537075889994526
0,0867539387203089
0,0575407135636134
0,0527450100219813
0,0652655093817873
0,0709697111677229
0,0335202177466932
0,0565931497371632
0,0496978342958363
0,0610679726962877
0,056674211927774
0,0545087250915158
0,0708550941636004
0,135384171211351
0,0251588552225701
0,0969890074866158
0,0329027683121156
0,0564810770668021
0,0552794931939364
0,0434051507561208
0,0550606804540575
0,0489051322526199
0,0564176176355481
0,0522314511007118
0,0939177769433676
0,0371180351144647
0,0585980046560523
0,0740762737946186
0,0704294130060459
0,04310592302307
0,0806052855979993
0,0658917050483798
0,0376633849599381
0,0828258172338542
0,0587395335067603
0,0511214900677218
0,0509448953987601
0,0790199937977421
0,0401085033531516
0,0636128353331245
0,0555441849673314
0,0537133276455632
0,0622557286981693
0,0595759430811437
0,0538000693191216
0,055874797905691
0,056200250463631
0,0706703830616487
0,0724566994542831
0,0601670381942989
0,0444294964589603
0,0560502015477745
0,0435855072632879
0,0667365594046301
0,0873377796652166
0,0389497243649572
0,0579677985701208
0,0456025985844631
0,049773100779865
0,0555857138307786
0,0553942992134452
0,055558889133221
0,0470862649687956
0,0767589676554413
0,0670932546316767
0,0448170751755596
0,0615312480462375
0,0566907440265057
0,0664196359733484
0,0529929055619492
0,0769509293439226
0,0301951801680372
0,0634947957022602
0,0419698271073375
0,0675485449236507
0,0651014891048789
0,0482422549983906
0,0530962027231416
0,0547144218504249
0,0554417853137316
0,0580764081971415
0,0509693113839332
0,0635849665009988
0,054095674497267
0,0559235315359786
0,0537091515855713
0,056881706028478
0,054004617303511
0,0630179818512556
0,0505165475149232
0,052533061630559
0,0589456821553075
0,0588320104563079
0,0703409728398906
0,0439137774181492
0,0607102677580828
0,0534642725366049
0,0545357740564373
0,0493059400987625
0,0620440094515274
0,0564304894502282
0,0604814210358135
0,055214145048314
0,0787541334566505
0,0516580996217677
0,0370644630826228
0,0636394601118572
0,0504388850945071
0,0850177161799322
0,0425938775250328
0,0705605025645931
0,0499521844382019
0,0662684499244681
0,0490525100613887
0,0820774805830051
0,0673805728188474
0,0565236185697037
0,0509777103803363
0,0742787765337415
0,0428391634013961
0,0705783824355896
0,0513270288938314
0,0992567132261813
0,0601878538990266
0,0533661589864505
0,0844608970595911
0,0550043403076365
0,0373859959616016
0,0697534633490908
0,0468557132150162
0,104416614763969
0,0549516958543442
0,0644505708093093
0,0522025734740942
0,061393172203375
0,0494839063034233
0,054139902726882
0,0668923145160684
0,0697851862361209
0,0935205985343482
0,0668775790537271
0,0966280992054264
0,048367048929061
0,0607834262155952
0,114761706730142
0,0349719576843401
0,0692033565522298
0,047725619603014
0,0696794188091699
0,0539364240572182
0,0808685795449332
0,050203212565609
0,0813616557788357
0,0439074355677951
0,0952094435224175
0,0586615075148919
0,067176439382538
0,0594639952610792
0,0797568856052844
0,0569181672538054
0,0775576105285325
0,0538813284405969
0,0757026463040132
0,0708597844755074
0,0666705237848584
0,0871449310997923
0,0910816825187115
0,0408003075304014
0,0895962419255886
0,05099840521647
0,0642424119597811
0,0559494895595153
0,0751450816342964
0,0656371569613672
0,0675972784419443
0,0658150443329844
0,0901142957460086
0,0658785465885349
0,0572228733850164
0,0756127186110404
0,0700108595031318
0,0711197689460665
0,0765944168126264
0,0780164156710198
0,0732245139593739
0,0715296079180971
0,0765976360562913
0,0719661668765171
0,0967201887411712
0,066572070385112
0,089811351157674
0,112601285320706
0,0563984467651216
0,0746078225052135
0,0735513927204806
0,0770917404577314
0,0807773190543833
0,0750929456040714
0,0823716836925342
0,0815365783603526
0,0975756571971602
0,0839435693038516
0,0803048283097817
0,0943024968685263
0,108997672195873
0,119595528071669
0,0915257362460921
0,0805432064613703
0,0975495493930366
0,0909682467452819
0,133273655661335
0,0573857749288038
0,129531924540695
0,0810076278821621
0,0985861153431363
0,0895030967172478
0,0980857265047515
0,0987337603728611
0,105000358754912
0,0995677768995288
0,103607354923524
0,11915110668946
0,109183620080559
0,114385741650111
0,106497852217524
0,131917046935201
0,128724720790505
0,106629288008431
0,120781931051543
0,115802083569755
0,136156891474553
0,169035083850119
0,117618179358591
0,164324761645353
0,118109046573091
0,164630021984018
0,139691484570132
0,135787035129092
0,13935960736282
0,135317021077777
0,150299794090571
0,142405751443013
0,14625109385773
0,148423305376725
0,15817022783704
0,161089316368468
0,158227575610543
0,165906376059553
0,165619078975107
0,178270204229873
0,182250429682856
0,158977677059965
0,181048797713312
0,177464510386335
0,22544316590122
0,171300910749591
0,193927567788975
0,166907157432789
0,207032996733203
0,166934791511205
0,211761538547764
0,176345914319725
0,204184774619807
0,200956528952219
0,229132777261527
0,226096221965302
0,212476673907709
0,224421157488163
0,209639994515653
0,21739070381135
0,245934245447951
0,209136876632254
0,261186821280104
0,227823245150666
0,239482703111193
0,236865100791972
0,287065487411078
0,227305314177258
0,276825978076401
0,241090118277778
0,251714491203249
0,243637770989631
0,264121755430421
0,26856358386242
0,267738286271754
0,264076116704497
0,285640019827384
0,277904241101294
0,293194070901561
0,276516298664973
0,300939168157605
0,311661595912158
0,282730652738668
0,299876414821315
0,313220505583547
0,298353082914322
0,330172135078956
0,29818103587568
0,383918208631735
0,304976251824447
0,357494687256346
0,300101849944547
0,325754024009093
0,326359114438677
0,343967811868207
0,335189212940519
0,349115959634343
0,353175752277138
0,36898823256637
0,3380147073827
0,367435876280421
0,367491116834
0,387550992637189
0,364649481197052
0,39293808591076
0,37671920017044
0,382439947928261
0,388950033811328
0,408646516832763
0,395094965249353
0,490072094107124
0,400357850411654
0,45338101136031
0,398131105551208
0,426259643286331
0,403709040387355
0,406587830996545
0,424666938943174
0,435265822990473
0,423643053198454
0,447694592757603
0,449716383262092
0,450968890749199
0,45116108245204
0,482219402339657
0,464334844529323
0,473936685038344
0,455667087144694
0,49821382640214
0,462460782554292
0,532902281683867
0,490740131357399
0,517181042451055
0,470000778083504
0,509019228830864
0,493327580109341
0,535764403318601
0,511547065846335
0,54941295951635
0,50469096564117
0,550835736956751
0,524766788804752
0,560648710206504
0,51225756412925
0,528431062092115
0,570977377314636
0,562803670688628
0,539523036263301
0,591394351559626
0,568984185589513
0,601056119717442
0,543409514332803
0,602946533160609
0,578251538700595
0,630606496412613
0,580900287903675
0,607844909516637
0,579098876846319
0,674639713093072
0,620613696540281
0,631185255280056
0,603295080216359
0,629354811199533
0,651159578231803
0,668811423573825
0,649212827818255
0,681663303735567
0,647311317876177
0,677279708586324
0,658314977844594
0,73284668762485
0,655976812426944
0,655995764838125
0,698029122580336
0,758549947564121
0,676091156979568
0,748591626133883
0,691028314524455
0,721519834704026
0,670383443311475
0,706754804304973
0,646040411709335
0,72990099092535
0,739931405515658
0,76518989650647
0,715566506557882
0,747637099352456
0,719366747694093
0,788933151123133
0,741699226592391
0,783178119610159
0,762804214450539
0,82129850922257
0,797886667038541
0,798702656805236
0,767069752150628
0,791931574576625
0,742220396904418
0,814336688306635
0,77755798321453
0,854708561374171
0,799981365354391
0,852035186882368
0,83817686767564
0,842832037742161
0,79295529298179
0,844244124188171
0,843214724534134
0,85990315654257
0,831505806114348
0,848995145033568
0,861172156459386
0,922886413820326
0,802101142885062
0,891514947219561
0,820729116716581
0,872103611264337
0,836484864778536
0,931188061473762
0,897262305043191
0,948168984974431
0,91524803638847
0,977152628698203
0,910799490377775
0,942481139683727
0,901003040710608
0,982671625763022
0,889601977622443
1,0044305644473
0,913194414722273
1,01147850986472
0,962257084575576
1,01258775767978
0,913746675947942
0,967934287129492
0,892416603738792
0,988764480940326
0,989741050885712
1,0068001264358
0,987393897633784
1,0595492678405
1,03852443516625
0,99194369588557
0,966757154737887
1,02054160443632
0,94343489965019
1,14070877114234
0,934383213627667
1,02723291108162
0,956814171689671
1,06272818285439
0,988269847943504
1,04338633921301
1,06040451810564
1,14282803080284
1,03104945692343
1,1068213091617
1,0525297378035
1,14939384458509
1,09700083273748
1,20932143599101
1,01714387889772
1,22780744702882
1,00912856935873
1,07008697009351
1,10485984225751
1,14969333568042
1,064064822016
1,21130864250757
1,0950452991431
1,22527957717575
1,05397875601907
1,29049118511178
1,08718547856338
1,10277274506871
1,05361984530582
1,25122471874503
1,02678366152007
1,28168051532629
1,02764053286696
1,1817311364605
1,07417955177173
1,17576155104634
1,09432474279483
1,22070146093098
1,08529112884643
1,39707793726643
1,08629461678291
1,1374728587579
1,07694837891997
1,27563059096592
1,1292212342459
1,19847841917344
1,20681359145589
1,25949283641719
1,17613859716028
1,23399060043566
1,12880339180731
1,29262337694259
1,19598407917654
1,33879985797859
1,26230953945179
1,1843486437722
1,18106222129317
1,28690775650136
1,20913242310748
1,35741723225103
1,30568102536897
1,34066438556221
1,19255095362864
1,35448212661122
1,25046507247154
1,31850715932995
1,17918642337602
1,3151551930388
1,19936734565077
1,27989321110348
1,20076918551901
1,49424410418521
1,20373683726445
1,32221881259036
1,22252092587944
1,22148614292793
1,25533958905103
1,43696196267168
1,22333246199375
1,32463021381537
1,24625905047488
1,30447877363758
1,23476535528721
1,2760095511778
1,20723225401272
1,3696818354748
1,23528122868922
1,38501452706022
1,26390140125721
1,40674267312377
1,23057876849546
1,34441751495482
1,32659026659646
1,32359040664853
1,30961224118944
1,32733408277078
1,26394991869107
1,30219667483637
1,27860745501547
1,56102074612817
1,29129464518027
1,66118910633273
1,3283507605405
1,39457208351129
1,34541807238585
1,36896324860455
1,28759213638045
1,43363775750388
1,16706202068991
1,36914451505139
1,20448680996809
1,29501630271968
1,33863455126859
1,38049233204034
1,32072637805791
1,44868357473581
1,25970113269314
1,43799978689926
1,44437403500679
1,41192670235884
1,2807841761963
1,42061240256409
1,32750784550941
1,38747297883805
1,27969231585093
1,37465947586848
1,26603613040485
1,3987857068378
1,29629731431393
1,35527120021006
1,33564586752183
1,4273958798602
1,35824630944563
1,39596510343567
1,29789890820294
1,50324265979388
1,35680616334843
1,35772309226772
1,22145422476034
1,47935229465465
1,28134646373158
1,39242729292138
1,35338770611739
1,43589521006248
1,3094724752451
1,4396338975968
1,3830028616039
1,40886663326709
1,27022835333432
1,35436997021127
1,26672474333133
1,43954067594065
1,28338725661089
1,32550865038443
1,26014376287768
1,41166711127219
1,23985214563004
1,50589818812414
1,40736987859251
1,57359497206694
1,30936786365813
1,42468196741961
1,32227724899346
1,33900506650412
1,34882420075419
1,48072773250276
1,34873719234105
1,48388771457002
1,30425061898388
1,41415512617931
1,39417821735776
1,41864985196232
1,31731528460468
1,41210496477317
1,31400148994633
1,45492965194943
1,2679369073624
1,43778223397679
1,2909472352299
1,39226526921119
1,35902036174091
1,34218489642597
1,29700503476514
1,38732217000011
1,3974831991516
1,35501449557761
1,27495521227351
1,38437411552663
1,3703241347402
1,3752492889702
1,30198479350424
1,4503200732556
1,37310272803227
1,5351261255977
1,31649783515437
1,26473604954717
1,31954069712225
1,43069670349106
1,33587927664052
1,40911306890072
1,27359544997988
1,36040107106916
1,32802029516165
1,45186616507049
1,26692162958569
1,38385969093765
1,26685023539216
1,35293831305428
1,27223837171061
1,36149897766757
1,2483009968434
1,36750582809298
1,28251845438824
1,38940820760693
1,31465179347255
1,31781483284949
1,27792134117523
1,36139160325964
1,235634917671
1,28034976078078
1,24025650465798
1,33580279868872
1,21374901705532
1,22231543934152
1,3426732420945
1,29923669650621
1,27713456894834
1,31676554217664
1,21303027436444
1,30656216106159
1,22446910015697
1,28629391223347
1,21500552222283
1,32046738544597
1,262603699332
1,30662448517489
1,23195290505686
1,25943817518806
1,19953492692931
1,34548848069981
1,22437563229776
1,31419828186123
1,21384175922771
1,26244385670474
1,19441260002211
1,20374547169902
1,19251587039769
1,22070670003706
1,16867964669387
1,32200906021772
1,20540144255221
1,23525186290702
1,17532975306883
1,21983081918982
1,21119379400591
1,21268074108015
1,22274112209776
1,26111901950008
1,24651368961789
1,20687988201514
1,15245748028963
1,20013884347373
1,14491674135437
1,13942651256699
1,15692600708938
1,12728418794823
1,1219838980283
1,18588948955253
1,10104138004857
1,1559267036389
1,11566073573317
1,14879070310311
1,09090413544763
1,15311636774003
1,14921704333894
1,11573126178564
1,09099268168081
1,12608376388068
1,1058076553816
1,14108268285285
1,08374389301235
1,12907426365005
1,05712740939517
1,11951359698846
1,05070779915115
1,08452100991791
1,06464827162381
1,08222761552034
1,05353967286417
1,11827616828696
1,04040769317666
1,05723468273382
1,03000904215225
1,09472619182921
1,01200738681163
1,05614716750785
1,01068873285577
1,05704867526947
1,01657221899195
1,00894554938118
1,0114271495911
1,01228202228469
1,01503629227679
1,00246816248349
0,978645450143387
0,996802665366476
0,947703613806227
0,988139825054794
0,980163403152903
1,00138525137475
0,949077940178546
0,972005316945042
0,943291143455888
0,966252044162001
0,959726235570609
0,946777438506786
0,92857042622644
0,933513470481425
0,919299927415471
0,962586687375978
0,919798197480013
0,947998594932132
0,920868192917616
0,915415439087039
0,928859601100512
0,947802835139066
0,898791361517416
0,925140803135107
0,879702097715692
0,890986005417729
0,850491401913671
0,885709430171331
0,866642389861501
0,899124571240684
0,83502427527264
0,898379289915778
0,853498950441979
0,892849187640823
0,844388642937051
0,846357924233173
0,842127078915309
0,872291207836221
0,815852205709251
0,825922789119882
0,812737128331491
0,840199109952305
0,810522403835752
0,830418543446602
0,823302362209081
0,830155558455806
0,792290841486807
0,81046555060017
0,794562448529028
0,781645357867658
0,781600407100444
0,801344431994059
0,775169955490147
0,819273518938197
0,762591909788954
0,786870096501842
0,752926823336105
0,767399733955962
0,766429205900155
0,77123361942099
0,737148495966552
0,761396702391441
0,747878779071654
0,745080391023343
0,726404673291549
0,732557781981792
0,718927660031025
0,750842092502337
0,713296768610903
0,72958599175371
0,716243406079482
0,730890183823589
0,698431323001919
0,721831322500216
0,706619845679317
0,707712525210903
0,69567607729946
0,700133863006275
0,711581831808916
0,70849943324799
0,662422291709811
0,697892189070677
0,68002512109095
0,68491145974023
0,6735702605833
0,675093936592214
0,662527177328544
0,665955483213757
0,662916398512294
0,675003720272444
0,651332799953933
0,671322490771758
0,646588168214256
0,652192052572545
0,644321493081725
0,655707281416602
0,629993033737184
0,645781203338601
0,630198332253628
0,642734818312959
0,623582793952819
0,630450861680773
0,629006885186671
0,619777327871699
0,607481819874011
0,619402545487315
0,599394032629329
0,601132408891883
0,57653654944495
0,603219794045968
0,575085324993257
0,59565327890885
0,576894996765297
0,596149555421622
0,577211127099558
0,593847973120092
0,579659612442651
0,581263912684851
0,559780081351208
0,572675241885314
0,563641965311242
0,571760454858953
0,546709767023406
0,559730116393641
0,552098386832126
0,564220704318476
0,5422649256517
0,558423671155161
0,546854372105377
0,55232834178728
0,529364758588794
0,544091346597666
0,533308893623057
0,545110508930357
0,529737386690366
0,528922094753061
0,524072401043447
0,52646866710007
0,510345623898519
0,528940564057967
0,515975604886486
0,518889403583358
0,497065979955721
0,505707054610538
0,508103378488704
0,516527597378994
0,494651470632558
0,495891252572038
0,486555984127336
0,500256781770188
0,481282708302883
0,501422912547299
0,475722240029299
0,486742103577206
0,480370843314278
0,483570938939813
0,482028533693135
0,482724626151804
0,472122962751923
0,475908866511522
0,469655487236651
0,482030203099336
0,464200577553223
0,472323998557085
0,46127622509956
0,463524164092011
0,461680557613878
0,464460386145468
0,460636268572634
0,474831364050762
0,450255967650819
0,451831177074969
0,457705627788696
0,465150670111724
0,452784502824499
0,453664795698945
0,448523807496503
0,465520257077279
0,450263073084062
0,458626581773708
0,455058655691183
0,463996734234883
0,454882965318797
0,458427946201071
0,443078756784366
0,46020980661707
0,453930136655973
0,45994292108596
0,453681837669952
0,467805110606658
0,463568850586434
0,471767656212214
0,459277086775861
0,473710850016932
0,464048982358874
0,469345212334625
0,471292479143741
0,47679868072768
0,476737314201767
0,478540725135612
0,468045756346319
0,4886842363242
0,474622751312255
0,495182199663473
0,473811551896369
0,483224558990909
0,477719843100764
0,48971046021107
0,48061327093173
0,496525170928778
0,487642729526275
0,500764576289706
0,495137868798647
0,499545887133164
0,500536712920214
0,509731957832296
0,492548665475668
0,499196510906216
0,503560949908394
0,51295465149925
0,502214321168235
0,517088409315986
0,514130120400845
0,524538314417194
0,517400948822343
0,523999994918149
0,524274441139834
0,530537685510045
0,527899184441463
0,526643170781622
0,538080534526381
0,547565979561058
0,541353009011637
0,550239943720659
0,548508228632336
0,555496927528252
0,54838178094809
0,561901070551107
0,549698506498337
0,572731386982571
0,567404919522826
0,571532430818102
0,553578689249825
0,573208118559305
0,55871215002118
0,577076857892191
0,567120459737905
0,566814211494592
0,563133086614622
0,568641137454936
0,567855101507221
0,577989590612322
0,561109173980248
0,579745256871727
0,570147797268112
0,569597973574638
0,563901945235396
0,57228448653574
0,56852195530283
0,576467965500235
0,550327860155316
0,567494815452254
0,554395636420669
0,561394955674553
0,56227469237821
0,573914013868145
0,557289672990387
0,567366475514085
0,556504190372636
0,56920806493953
0,551698800799024
0,565204418283807
0,554308302254248
0,561030012871097
0,553529617472427
0,570612125164703
0,550091445162551
0,570244382233361
0,56426603959512
0,569250172962984
0,557727463597396
0,56711861413285
0,553732682668075
0,567930537000635
0,568626314876997
0,572742414065541
0,557329172874753
0,567955270580312
0,55693634554754
0,569527639040188
0,562862742728204
0,568834434821225
0,560341392326278
0,55939380951851
0,547891108854143
0,565879687956216
0,560005772756225
0,561812691339569
0,556581715889128
0,561647759104146
0,558403183784053
0,559807718989622
0,546765203079745
0,554060252729459
0,550928188538803
0,555888679194394
0,54053886271098
0,546614408661657
0,535536332998762
0,543726600316634
0,527531011033183
0,529686459805067
0,519830302196236
0,530956450812055
0,51280012577405
0,518638981259118
0,512393875354222
0,51335551657442
0,503432093668816
0,509332151061641
0,49774259333981
0,505210491832098
0,504782426731927
0,498400315958167
0,488757716947276
0,499659057761284
0,482848722396257
0,489329151149979
0,47068811985163
0,483835036130484
0,472134737530823
0,474122481364968
0,461421481550616
0,466575775177591
0,45623942184665
0,454459490831167
0,453723522572858
0,454455304918097
0,446293403919192
0,450681003380022
0,443726738860884
0,440579813386556
0,433084223720839
0,443968098787371
0,433286972114898
0,430430884890443
0,427360796947366
0,436494684723383
0,426087592458017
0,421031234209096
0,415015332883743
0,425802232598913
0,413866378498739
0,420455035786951
0,409843584610597
0,415276370170101
0,40569748192449
0,407359875782214
0,403950566998457
0,40227295318776
0,395859121143611
0,403995520555024
0,400403677922719
0,399548843963265
0,38352643240722
0,395471483105938
0,390183434454578
0,390966354094963
0,381076668937277
0,388501907625327
0,381527242638881
0,387881596805276
0,387377720652471
0,384895229635997
0,377716759704025
0,38628975909628
0,380590934514967
0,380141327934719
0,372969113930595
0,380622940003679
0,378077885797139
0,376000477336868
0,367184865372459
0,373202555051316
0,36495470812186
0,376021035616608
0,367863089836126
0,366674587798489
0,365929360056556
0,369223866928068
0,363393841583367
0,364189547920476
0,35977293603899
0,357238604640612
0,347014487180432
0,358988790025558
0,35492898605698
0,357835039167397
0,351661530370989
0,35693761968143
0,349814387614573
0,358376289600383
0,350295175998604
0,349642348595039
0,342738779780179
0,34543266177435
0,341958138624901
0,350751518955369
0,343315381705826
0,348258161488595
0,341766145995762
0,348720740294022
0,336331705126179
0,346456657053115
0,338203041982883
0,343166205291151
0,339888907648813
0,338955915432991
0,334402254231512
0,340332478997965
0,330409365083454
0,336044308159035
0,332578427532047
0,333017110468112
0,327018718535849
0,336881382069004
0,33159148975172
0,334845482224273
0,327268749745775
0,333261944631883
0,324158269567109
0,32844113828082
0,327734734039534
0,327217620620468
0,326481155676057
0,327007154311387
0,319968928323323
0,331049287782657
0,327202310756317
0,325805151398072
0,321381950163679
0,322290882673602
0,318549177960531
0,324875379684509
0,322200217476507
0,317710377078061
0,315445347427872
0,318091749820827
0,31303577204957
0,321167155753973
0,317204900929936
0,320497667748679
0,311074240539995
0,315235176760013
0,315531065894491
0,319403045172727
0,314962224538258
0,319303467524982
0,312828567510045
0,312314219044159
0,3123858880807
0,317239208001638
0,312567008201386
0,317614552545272
0,308882155051634
0,310270436342714
0,304675935066226
0,311604542591993
0,306704478262572
0,307525000351925
0,309290565579639
0,308451375112423
0,307006639038808
0,310515278154319
0,302364202839847
0,308804884903227
0,305441999825726
0,31084013658059
0,304676843025164
0,308045885570219
0,303161738629199
0,306583007937045
0,301302502141415
0,30331837081054
0,300787646871021
0,304252101255108
0,299205463352968
0,298906301676134
0,29361107349263
0,297597267110343
0,298359529619478
0,306155071238992
0,294547031001399
0,292953075247242
0,290438601367046
0,299983018005237
0,291285526356976
0,293568471436789
0,294169440182038
0,298520164325879
0,287191380562774
0,29199477590645
0,294152683523337
0,296854858409716
0,289922398290746
0,288656772432198
0,286622492249703
0,293374223911323
0,287263525452297
0,290609352056198
0,28791138042078
0,291563268600654
0,281317744821017
0,285049919387404
0,283739560976768
0,281996186312427
0,278494126165399
0,285107597617067
0,281531398809733
0,28285230769333
0,278573283531008
0,282904568164005
0,277860855609797
0,277373533578924
0,277052658291591
0,278869257965926
0,269327619634819
0,274216495141582
0,269997931757046
0,278454726164429
0,269177763971274
0,269555899291524
0,266542763274026
0,269478222421407
0,271487696092574
0,272529017320148
0,26360356894827
0,269247892532421
0,268448819012178
0,266989815484412
0,265912997229008
0,262665920607694
0,254793762284246
0,267634018376284
0,263041598895994
0,265395486103181
0,258405140669539
0,261160074188205
0,252297251015888
0,254767691234783
0,256425221864985
0,254619708430012
0,255802862449392
0,25888931837467
0,25228180176761
0,256344495867292
0,254495359333583
0,250499209296053
0,247972036708707
0,254130050528892
0,246061900786678
0,250635662872446
0,24418459234886
0,249097756074793
0,243804685594706
0,247804607872684
0,246261958946002
0,248351202726009
0,242975867746924
0,251911625641289
0,242386082232055
0,243704891253916
0,242396315567992
0,24682697284794
0,242472470180475
0,240511396451356
0,241557453760633
0,239365115424942
0,235327347675575
0,237184150277906
0,235096621937276
0,241800791865034
0,233251822766534
0,233112650472424
0,233566413313117
0,236501919314066
0,230879844493159
0,234850845352522
0,232234586615746
0,237858136912329
0,228674909701362
0,230617888565422
0,228814974277555
0,233050579959677
0,229573809706133
0,22663802134951
0,227121677858445
0,230799325724402
0,221411665362115
0,22877242726981
0,227625708411436
0,227036941301678
0,225593012085534
0,228172035639601
0,220739987481303
0,225226783039013
0,221629186678106
0,224373438268414
0,221366550866636
0,223233228651655
0,222337580335454
0,221507018318727
0,220848960149446
0,223079065393462
0,220571349424383
0,221699403381805
0,219302184214961
0,218525149720507
0,212824574435042
0,219445187408052
0,217268132256031
0,216970675925608
0,213319897854317
0,218877417288907
0,215632496051175
0,219507994205246
0,214651139338442
0,219477667369253
0,214175115108619
0,217425571995329
0,21024336217112
0,215410442554229
0,211688004351797
0,212963924425985
0,209536634908271
0,211068201609357
0,212342437813549
0,215953468824164
0,208200625122849
0,211306754285164
0,209527118406529
0,215715733840879
0,207155952406805
0,206369966610898
0,210510348351858
0,213750104136177
0,206881613681819
0,210523137862431
0,205407770045719
0,210433018013567
0,20885186971139
0,208034365110938
0,204365292892031
0,209280276763641
0,207911732532536
0,209689689973218
0,202662169479599
0,206985731166317
0,204611204903981
0,207512220273286
0,204975537953307
0,205088386910341
0,203827036962648
0,206677261036512
0,202699342547671
0,20338261036717
0,202061720553747
0,205342136109577
0,198667767914146
0,203683012286597
0,200804975523056
0,201675604114522
0,19756783811204
0,199413512859786
0,200362031921168
0,202931754897387
0,196659780647412
0,202245210969361
0,19481259471764
0,199191449996778
0,198333554282681
0,199910016517853
0,197289850820386
0,19997707104099
0,195351760801192
0,197448599503571
0,192349119626952
0,199394115012627
0,195369739524151
0,196150484434151
0,197777702408869
0,195024933821011
0,194969636402801
0,196792787143783
0,192863930562474
0,196693988872111
0,187943118743687
0,193436965696315
0,190924557160486
0,195945193774462
0,194390481026685
0,196644265837051
0,19220075019724
0,193408142824066
0,19102012288961
0,193881810827431
0,190833171462216
0,193185654835356
0,19315997971757
0,191965378610424
0,188890476744377
0,189617962806614
0,186245022783384
0,188816282125536
0,187927916009415
0,190915651740285
0,187255363273336
0,187579459526694
0,184455314936598
0,185677045063387
0,188383398729916
0,188178075463297
0,180220832512372
0,183815506216407
0,182487981783199
0,184616764653133
0,180403999634947
0,183900295431976
0,179635168890204
0,18109538141155
0,177705469431631
0,181840937892828
0,182408751447368
0,184214149585076
0,178828740711132
0,183785280978982
0,180338662665619
0,180889817339448
0,174710807237145
0,176740846820301
0,174192805137386
0,178969613233908
0,174792369065094
0,181059958497108
0,173547843016983
0,175792183002847
0,172491594664689
0,173638791518912
0,171816417959012
0,176395997095681
0,170774935993921
0,17557936013793
0,173455106563389
0,169661862225229
0,167878996544898
0,172930047477981
0,169684684160386
0,171263751686712
0,169987908269802
0,170376918381304
0,165402226359687
0,169943568331906
0,167800957819231
0,167143677959639
0,166259564851084
0,169691698886645
0,161773776277771
0,166772592226807
0,164158486500638
0,169586180271476
0,164142992190472
0,164230309313008
0,165550170440014
0,166129285143244
0,162244055715038
0,164684690712085
0,161524319149546
0,167112558831311
0,160788634711072
0,162261516509479
0,156002787253067
0,164334676339403
0,161116296987549
0,159911776015761
0,156955386052293
0,160493544340025
0,154731816801284
0,16097310858112
0,157876119093395
0,159259823071552
0,154157361956204
0,159414827374635
0,153472880113306
0,156764385658635
0,153473982110322
0,158099431823819
0,154975730161222
0,156816637840334
0,153329401133156
0,156664862062412
0,150882944799139
0,154969900482176
0,152425590797332
0,152788197604431
0,151984437318089
0,155041161986592
0,147872396624495
0,155221011648455
0,148694092278894
0,153523434770537
0,147978615495996
0,152808813818251
0,147562576855418
0,152168925414543
0,149641711131448
0,152311583855726
0,145146020504308
0,148998015537952
0,146168574509518
0,150649814741685
0,146049329495767
0,149713665797682
0,146499481203581
0,149875902146908
0,143092858139697
0,149179830214029
0,146033437771387
0,148722760908373
0,146439640448683
0,150664096543978
0,141548557609402
0,145128241956534
0,1462926479195
0,148231602036579
0,142445888555618
0,15242019173533
0,142854104160253
0,147487131344871
0,144273694365248
0,146970490421426
0,142463921621105
0,148386595723805
0,136301138589918
0,145045717789274
0,142178896873057
0,146148342976578
0,134639322030405
0,151180147356911
0,142851567444188
0,147273539367929
0,134601400777048
0,147145559499783
0,140263681972941
0,145929429517778
0,132863718159849
0,145287364083388
0,130394228939573
0,142589700210119
0,131337209898811
0,141238798138703
0,132714392435393
0,148779058797503
0,130361185634381
0,142100555184923
0,125942113866445
0,147907859540975
0,131580424610292
0,145196185423933
0,131586463183212
0,150136822019933
0,128675630668246
0,147750755506647
0,132136064777541
0,150966321202142
0,126601140665115
0,154741537035145
0,119874757521933
0,151212609379069
0,120159875070628
0,147852011734396
0,116969326257731
0,151111545379289
0,113169038261463
0,154949370892377
0,113904639898698
0,161766637852617
0,121723698190937
0,159256995362392
0,114141397587463
0,153356824889166
0,108872513807943
0,156896126288134
0,120617235505338
0,150899315540525
0,109834825037179
0,15167659324426
0,130033734380972
0,143509242736579
0,123932806394122
0,132649677879879
0,143446364969416
0,127422657711328
0,147525559496934
0,117335244749507
0,158347515881837
0,11223338339932
0,159437617974639
0,110048361001346
0,155060113060496
0,118126978146342
0,148067263136824
0,121978995775826
0,140225377136467
0,129122685519409
0,138167235082134
0,131494205091064
0,132787530679253
0,132785194617523
0,131965085769221
0,132070824260611
0,137621324016323
0,130824191187432
0,137467532398003
0,125864858424665
0,134589023222158
0,127628714977024
0,134774862831028
0,131573411412151
0,137012064901981
0,130332535812212
0,13432314816084
0,130686850206958
0,134855580910505
0,131877870232893
0,133947257416828
0,126941182333213
0,132901979589403
0,128492577770891
0,133916655286992
0,13156710244156
0,134021753052444
0,128738506008356
0,133122388913148
0,130605739839616
0,134561650368951
0,132480204239491
0,136440588953282
0,131463039566713
0,131391575619369
0,130623764475009
0,133072358239431
0,130748225755937
0,133746852118611
0,132284715549494
0,136129193610995
0,130683650107608
0,133953432109843
0,128054843101455
0,134610278508942
0,13107092120163
0,131309619979346
0,131025084722942
0,134573249416998
0,130058136936838
0,133225556037836
0,132980957248553
0,134133864838542
0,130548933737875
0,132694784327819
0,128309461109847
0,133657759357196
0,131363167189781
0,13484680417458
0,130574231187103
0,132356331399966
0,129404028557502
0,132269704174121
0,130621338213987
0,133651255703049
0,128327669320395
0,132433503258361
0,130294223532789
0,131492729041313
0,13250285197115
0,133826330139673
0,131008636599678
0,13343209048609
0,13362266618625
0,13313883354895
0,130404754664137
0,131834714888707
0,132177709668215
0,133648754002303
0,13136592419021
0,132741998465957
0,132480300389882
0,135299542159644
0,131211207376248
0,134855234554611
0,134434874054738
0,134278901788029
0,129918399640637
0,134858915633576
0,132570220350373
0,135202684881362
0,129528585532559
0,134185829080492
0,133007147074575
0,134837850922486
0,134737416723758
0,135934758840921
0,13298814904443
0,134686865520112
0,132275803337501
0,132850386520839
0,13217095153416
0,135750154143138
0,133828393831423
0,13419086051111
0,135517677177431
0,135988410571976
0,135180454313285
0,137049286615771
0,1370806377898
0,13557788620537
0,133357347928402
0,13563956429063
0,133758201655425
0,135327046663162
0,134777755963973
0,137219817767376
0,136035829942079
0,135035173884763
0,136493827029627
0,137184918086415
0,133573820518534
0,136711176181649
0,134167522665775
0,136426179561052
0,136663713231534
0,136010658429968
0,136343484222473
0,136926426799522
0,135338387220763
0,139577348187169
0,13581995943175
0,136476717815013
0,134681659378431
0,136856441467508
0,137537146556995
0,135727445789265
0,134873282350147
0,138372669018324
0,136267089758996
0,139033538142383
0,138262676060679
0,139905183633113
0,135410192234575
0,137325452465227
0,138284061989702
0,138413420800263
0,139640108012715
0,140965735570339
0,137360156751783
0,139265912237629
0,138461955682465
0,140863488638232
0,140774749507861
0,140022053218378
0,140011830594678
0,139553629695822
0,138816761200413
0,138776913779448
0,140132387196803
0,141361262198727
0,140060653565526
0,141301477303544
0,137445071621801
0,140762010594875
0,140546567420359
0,14133187003263
0,139919898448576
0,144967389171918
0,138708059080832
0,141266552137834
0,139398329673471
0,141269733840598
0,13970752418927
0,138674507551326
0,138490700555708
0,141963628763211
0,13851920689668
0,139633773458112
0,137779996955218
0,1388995874968
0,139485421633618
0,137250614861308
0,138679280842564
0,139800650043255
0,136954676398934
0,139925806353709
0,138794646425107
0,13973151893979
0,139449492920247
0,136193504104075
0,136324860829727
0,136906319465327
0,137410869590425
0,136316233110823
0,137400335786162
0,137678090866415
0,134157337849064
0,134624703643807
0,134724575441796
0,137304319420183
0,135009098377697
0,137540350271884
0,133947322358808
0,137445419075884
0,136813197038474
0,136165338169893
0,13529411826376
0,13524902264326
0,135001538171837
0,134259065718378
0,134739577864882
0,13505578807048
0,134677038032401
0,134363522159461
0,135693829998819
0,13419037907293
0,133584578251246
0,132635473794901
0,134006855937106
0,135560621921635
0,133832374363752
0,133336882643799
0,133019518105665
0,136211591867607
0,133180157144575
0,133718820259143
0,133177886159139
0,131673401545307
0,13072920041929
0,130944825251799
0,128897436778888
0,133824638708986
0,131673136705887
0,134284616497001
0,12998244704277
0,130618840518856
0,130962026430786
0,131340915979881
0,132145643223495
0,130941937016756
0,130895805357422
0,131283507960935
0,130112764747497
0,131130796540766
0,129107654011309
0,130818956734568
0,12700204814053
0,128327667515771
0,13050015770369
0,1306886479844
0,129199366437987
0,129635704934016
0,129593863358212
0,131430236136165
0,129017133241354
0,129227101551259
0,127984480559575
0,131197803579382
0,129291072244057
0,128219360284064
0,13020664794047
0,127887414861638
0,129794929351325
0,127201528323475
0,129829099825977
0,130907149733539
0,127069448959077
0,12670776405111
0,127843181056861
0,126922749081614
0,128289663826356
0,127533897076326
0,124059460698513
0,127096142186208
0,127068924617582
0,125167187659574
0,126744974245915
0,128037530856777
0,126113665866125
0,125506492677943
0,123716235829327
0,129279649006213
0,122794836378878
0,126238660947043
0,121674870470392
0,124322456330548
0,122657612125908
0,125202929761024
0,124178112793098
0,12440118236094
0,124466835980346
0,121953648573383
0,121048572234093
0,122012670891844
0,123195582936591
0,120487211767763
0,121790478277517
0,121901917559764
0,119943367397774
0,118952932474193
0,115535114951218
0,122182974130845
0,117663025685604
0,120874542539754
0,115077707719626
0,120340776914413
0,117312970977182
0,120760823712289
0,115256842973116
0,12081399835359
0,118183979035918
0,116780828777808
0,117240107035276
0,112917661010294
0,115449293885024
0,119600328356675
0,114683115218675
0,113705127798911
0,113946640332133
0,117018949679823
0,113988428485306
0,11239621701739
0,112092656569764
0,112899747997454
0,113235475556326
0,111456925856153
0,112382297795439
0,110409091024556
0,113195863597614
0,112060440124657
0,110785581842226
0,110101034328023
0,111137016530495
0,10872483178763
0,110340834931279
0,107135309067877
0,119295451354795
0,110015267926345
0,107092073182006
0,106870719447099
0,111540559937818
0,109580301394714
0,109718089292835
0,108445235917653
0,107843686165454
0,108890899444721
0,10847283702561
0,108361631289165
0,106731500008247
0,108914468036106
0,104538001907472
0,107720097039898
0,103486084682548
0,107298484054539
0,105558317627177
0,107371711703585
0,104676269707441
0,104329541287844
0,105933171689938
0,10851078181456
0,105726853715546
0,102419208479411
0,108368102186084
0,108304072645773
0,104875669146131
0,106564519957493
0,100309063207128
0,105345999985429
0,102567756448263
0,103194868397306
0,101526861320622
0,107002101600324
0,100124802973429
0,102868903807219
0,102404729929845
0,103974444368546
0,103976292724184
0,101241017613352
0,101885654752493
0,103967546944382
0,0972210865904995
0,102216571855168
0,101260057688773
0,102781101742952
0,098785089833294
0,100974720191037
0,0966358704671465
0,104076758637714
0,096278745292105
0,109045577625651
0,0961092904556929
0,104466099641275
0,0988440457714394
0,0987242514691992
0,0972606986104448
0,100090768509955
0,0968642521918365
0,0986601940736092
0,0969126925301843
0,0975087232777984
0,0965469909902555
0,0960234485227913
0,0976212481190059
0,096852001782534
0,095842123659005
0,0971589285474179
0,0955663597184485
0,094719125954113
0,0966920468283561
0,0963820127876354
0,103578431777188
0,102501495482612
0,0925517184588343
0,101636779978767
0,0906561520784018
0,101394211062485
0,10532375809777
0,0896939267538394
0,10119334924863
0,0911818844291813
0,0992217550729548
0,0901513060243297
0,0994032148740416
0,0897710868324365
0,102916237291161
0,0926056687811569
0,0974423108776886
0,0958962204892318
0,0937926721251434
0,0954277834204554
0,0959561388344775
0,0950682853115686
0,0945831270365617
0,0930871366655061
0,0961459950283343
0,0939380447173571
0,093519163642343
0,0922142913711354
0,0936486595456294
0,0897130023482605
0,0990114291928515
0,0925007732818064
0,0954803727119284
0,0902562810762178
0,0960808075974335
0,0882891695270389
0,101842126235682
0,0902132842547713
0,0921121200101033
0,0934144105275981
0,091920973559735
0,0937417027773188
0,0946414133687342
0,0919109806612567
0,0917473938508294
0,0935849720112965
0,0926434621470568
0,0938778999997163
0,090959766971367
0,0927224248798619
0,090332862386191
0,094679555557398
0,0883819818217029
0,0921051537631437
0,0897436142850445
0,0923822297688586
0,0888875303390075
0,0932427229423168
0,104912029694515
0,0937742578375747
0,101800206408537
0,0894462943405082
0,0932500589667306
0,0897043761676701
0,0952737675672397
0,0889698081297437
0,0946439084078007
0,0903929176509806
0,0906048093949426
0,0903524607807202
0,0944189646680285
0,089754407204351
0,0933345864491105
0,0893842996247828
0,0930409893086676
0,0913188511795623
0,0923840219879033
0,0903505293692721
0,091769534581864
0,0910097776554932
0,0910876362730403
0,0966225212788989
0,0904461328946331
0,0947492056271734
0,087471699181469
0,126462190584684
0,0775368625486477
0,10410276826382
0,0853373388720606
0,0946326706168711
0,0892517716492772
0,090937378368002
0,0909903269276203
0,0951775007105187
0,0866082548424328
0,0942703315543701
0,0897386649814126
0,0963954809642936
0,0903984324350924
0,0942859943697848
0,102930655164547
0,102671916846622
0,0901956493490682
0,0984881223012299
0,0852625594120273
0,112017473863119
0,0909460266416221
0,0921120328341848
0,0973598611659838
0,0911002066614904
0,0968142051677572
0,0916983033377948
0,0956914902988086
0,0950242840318772
0,0993330518878982
0,0897778765952489
0,0973218312759417
0,095367606251006
0,0946361770495732
0,0978799163823715
0,0939960451472341
0,104114304430441
0,095911769945897
0,0918835268989386
0,102483296877549
0,0944824577596429
0,098334227638321
0,0968406457777015
0,10075828824388
0,0956101288980006
0,104426839088511
0,0946261583259264
0,100011312066727
0,106534607407669
0,0959178058883686
0,0971158945078857
0,101618924601153
0,0981735209640056
0,107777049633741
0,0872496658518005
0,127202261026265
0,0903647557217838
0,11696097772778
0,100791159806831
0,0999335900608841
0,102073450659981
0,0996798231474168
0,100362744786203
0,0997867864306575
0,117814569534259
0,0891488838347469
0,112699123168493
0,0871147622206097
0,123067585787653
0,0968087687362673
0,105613680600533
0,0995475452482674
0,106652613104432
0,0998375755477483
0,118818421743562
0,0943410045888989
0,121244981621992
0,112129908971209
0,115247399011851
0,118241354830271
0,0964369351783686
0,113023372019761
0,120375499740243
0,0968174191761797
0,114245907274846
0,0980434975244942
0,116509728208678
0,101976026484398
0,127035122929651
0,110500552330209
0,103269474033129
0,115012976322624
0,111562697457836
0,110393580812663
0,126982440233979
0,103909245876614
0,120455623345099
0,109761786381796
0,117575903714742
0,109031908449855
0,168786130867936
0,0901556708381577
0,148652634281021
0,109916879713873
0,134026177357673
0,113448436016176
0,127939103479828
0,115377617661089
0,139887876797735
0,123091921102881
0,128809145242768
0,120024267537986
0,155825448167887
0,116850352037382
0,132579323791062
0,135207626649814
0,129421330107254
0,143060402478907
0,168550661906793
0,136981433291358
0,148423591362021
0,134066846422774
0,14572582820735
0,154150520576125
0,14133834898737
0,150058228440107
0,144322618702866
0,1498858099267
0,149441709176391
0,148521582626404
0,159556094983099
0,150467546682309
0,164565619365254
0,151364259192513
0,168188089982557
0,167020605920359
0,189161161844954
0,163946229619168
0,166603802124253
0,19723629010994
0,167915945587204
0,181536730926484
0,168648462824565
0,175715802735525
0,182667490203649
0,181348268745153
0,183873070905038
0,181459889520358
0,209075646187372
0,181303239578368
0,211874538883061
0,1888227460677
0,200037888013055
0,205177974487311
0,221195669964769
0,304237687867959
0,193560705411194
0,244672912535399
0,219590008011205
0,274977344742659
0,239564888007392
0,24692992257014
0,256871935295514
0,265732470864465
0,267829842977928
0,286462121912482
0,283608363269472
0,293868386153046
0,301711230235539
0,311694750136963
0,311036224432877
0,343911024583655
0,33892889708562
0,365305059055905
0,346176268166738
0,352744435241313
0,371064198656663
0,381974925252557
0,371900165321915
0,39661849184313
0,380010550507609
0,433064407595872
0,428594711546278
0,424727150860343
0,427818741399885
0,438774510103973
0,47736703625864
0,447850048230292
0,527010569165894
0,462835379903805
0,500951123042203
0,484031901189694
0,517840868844343
0,506919717953129
0,520807767210645
0,541660284124567
0,540546053125632
0,557144010400133
0,558413293927854
0,564968028548199
0,57071961016188
0,590160337719223
0,59979747198019
0,607893753812204
0,648647937601522
0,615550241079632
0,76832696627843
0,602757818204125
0,622851953829935
0,60886384737007
0,634178457851707
0,651828445518423
0,654439374515076
0,66843114622732
0,643575783753096
0,637497415339575
0,654253509789933
0,641366936249001
0,644068019092646
0,641983620190071
0,656157187471011
0,634952238471272
0,680505782414504
0,634769609909282
0,703430621694843
0,680697822215513
0,663943333172416
0,646374205500223
0,649311214158616
0,645614063510923
0,657009972782276
0,653923101708334
0,660168011361654
0,651353891515085
0,63512833474661
0,641728448547268
0,608775756514804
0,638667828596848
0,616919637428544
0,595981473128928
0,594358710534562
0,569576316825245
0,581768234564901
0,561603261328278
0,59208063109991
0,599503594501863
0,540859800078386
0,552217774891376
0,533552170358163
0,533548535925948
0,531938661983599
0,521621503844244
0,513643708320389
0,506214846204446
0,507768566958986
0,518081705487988
0,502239884762495
0,502545906876792
0,490646945901301
0,494857391007087
0,48713695176702
0,493094659015153
0,487871340038038
0,488112569643435
0,48325512594152
0,485225265765154
0,477737959087541
0,471770414684987
0,480750693322564
0,482988248045438
0,475646144673512
0,476776606258637
0,470432079940848
0,479886702281644
0,474126654306045
0,475278367880794
0,471566053302327
0,477109791558838
0,477546296344363
0,477277434448998
0,487431732138373
0,475983668768512
0,474629551523837
0,473595500142242
0,469465967434658
0,471984518384917
0,476261561270948
0,467733547464638
0,535585477898787
0,465937490651198
0,478619626234466
0,465685773817801
0,472305340466162
0,474061189770514
0,466011697021851
0,512555575048423
0,467744268333871
0,472652440854541
0,462084955692596
0,461762304585869
0,480397162976338
0,465418456938425
0,457024499199088
0,465592633265962
0,453452575831308
0,518288359116199
0,46348229952512
0,532212402720682
0,468022546218005
0,46685649570759
0,448275591825611
0,476151746076863
0,478300732253212
0,452664766820807
0,468146725094474
0,444437574216912
0,499162827257295
0,452625700645664
0,451331675695492
0,449474868112547
0,450091526493631
0,483141129865585
0,462010622699066
0,451278119147757
0,470206271286487
0,450525670752476
0,445542880241244
0,457263061396145
0,468382989983081
0,437249031028094
0,418273349906244
0,429944124338603
0,421298968004818
0,423211098717137
0,449195168664713
0,406250128587205
0,42070005833516
0,39604475477216
0,411627650166444
0,396694382847737
0,406553308388202
0,399823011850582
0,394780285240885
0,420984139965754
0,36680356635758
0,416712301188752
0,379751543477672
0,424594743277
0,390989513013638
0,37505843707642
0,365521398504482
0,412661514312565
0,381817002510573
0,369740138916185
0,375710698750872
0,350087752704988
0,36585601401592
0,3639055134708
0,340174428397828
0,360991596568414
0,339605853063275
0,360078104523956
0,376227558664443
0,361226153384409
0,351566350821261
0,333046342437289
0,323667034611946
0,327675834334301
0,316886732048989
0,327458148689352
0,308853496510723
0,361210382951317
0,306836371422716
0,313785589547085
0,344191173395534
0,311901639289392
0,317250341371289
0,321206834846921
0,314312772868453
0,325076965525013
0,323763399774103
0,347210323682461
0,318971021897532
0,341903353097133
0,337410311305145
0,327354554094045
0,336193625802084
0,332524698642109
0,347095856639397
0,343057628001264
0,357867256279975
0,350636568003448
0,357598063601156
0,369042889527202
0,364481550127685
0,393511279232211
0,393663993146412
0,376048979038424
0,428349856184803
0,382632176930833
0,458523297718864
0,413686710883656
0,428045356190783
0,428583806386567
0,438317319550569
0,442197395766355
0,441429254981072
0,454429499064066
0,482417099028471
0,453282754171056
0,480131079346195
0,465416501362738
0,487985769278668
0,466540790226634
0,524558361615564
0,475712052096493
0,560933740280094
0,506618653119277
0,518106647878776
0,50667248402294
0,501259281470427
0,520419299339097
0,508681055677624
0,516385579192211
0,514970033874508
0,518751564919159
0,536910250976941
0,515508121432999
0,528838501795574
0,515867332999599
0,528029076320934
0,524899333365937
0,527960970251815
0,532273744091505
0,541729659773449
0,539155968897315
0,547427634584485
0,542965963509577
0,600426543093093
0,54858936813008
0,56668743389774
0,548586084762114
0,561212092644626
0,557002767944217
0,567310494218236
0,58747950229177
0,573805187348081
0,584667645114642
0,584723110042399
0,584551632624222
0,59147490292381
0,580293565413792
0,624411380842824
0,581415172352595
0,616407059844746
0,588299997798074
0,648234864024387
0,614017729060459
0,617561430744004
0,62104197058545
0,617415752038733
0,618885661513389
0,618621930230428
0,622500560070375
0,630002894949139
0,633121978932332
0,636957136588889
0,633753969104547
0,63153209532834
0,639946302632507
0,633310711211651
0,631556735206878
0,66089087208484
0,628039021327693
0,637154539488737
0,630714207311783
0,64613031905587
0,628844913025434
0,649335238606552
0,630774152830007
0,634093042100128
0,632063854975137
0,636379698770183
0,644139588464213
0,642328583111285
0,628835300376525
0,637865424300215
0,62755886342094
0,634611792630296
0,633545465896096
0,648230305085751
0,654018928550768
0,641203612157366
0,645461074172283
0,647032512087412
0,649087443407065
0,654708886805356
0,665418140167328
0,657517573553861
0,66346572323163
0,667550428057917
0,678657081464904
0,667920281412285
0,679302386878002
0,670607797618929
0,671137454901219
0,679411485161571
0,661015168708512
0,671832758859148
0,664022499668138
0,668760676491662
0,667860747828567
0,656201107640869
0,652173807763665
0,646807689254318
0,643776240586888
0,638977264075755
0,66944633481861
0,628148651978256
0,637265781539825
0,623963062412884
0,626311024892174
0,618333648235354
0,615221156223756
0,606229006549483
0,606013363487624
0,609689096944621
0,597711417453295
0,605927664705055
0,596888847848969
0,593983246274851
0,597221248847937
0,594007735053643
0,593912221162972
0,590059747252203
0,590365002341579
0,588228091097752
0,587771922531727
0,586328975536026
0,591664620070945
0,588511631763121
0,601184812401779
0,590102646088465
0,604052637934752
0,590356181670376
0,590167292720556
0,592311913276913
0,582027489001689
0,586959229003955
0,586079103722524
0,591648586059398
0,579600797081431
0,588354883028699
0,584740547557562
0,585654092073112
0,583885418441669
0,58719649268718
0,586053705333442
0,581607659146351
0,581684721142002
0,583271888899263
0,579241170006017
0,582721710984688
0,575182325987886
0,583583384162692
0,583518378829239
0,585322600878352
0,589099058707019
0,589009315364238
0,588588646952127
0,584216329156838
0,588095516231084
0,582027061706853
0,578739272889856
0,586047292770775
0,583273534233474
0,582037733100003
0,58095551487273
0,581493541396898
0,583353430003666
0,579182357020203
0,572335066010376
0,576359310490638
0,571248393439179
0,560040728446939
0,560849610522333
0,560456936556438
0,555361282923938
0,552375942916439
0,546054751025209
0,541264525571201
0,53981450006976
0,536831184610839
0,529319660803725
0,525864556604593
0,523036143100896
0,522291024862172
0,519838677403687
0,516881528084365
0,516800559063334
0,512080093008284
0,512198157315065
0,517818751094232
0,514186137143529
0,512242936823304
0,509306552796012
0,510742373969407
0,513563249055227
0,51402089784777
0,514702185736158
0,513661138241042
0,512537003229927
0,513217439077372
0,514193141927632
0,515976303718361
0,522005139232455
0,521158328527597
0,523180227641014
0,527285484417947
0,527482254709281
0,52527326842358
0,529618620805716
0,535549338050177
0,536718796002131
0,534634048657934
0,533979468830532
0,53375108296821
0,540564018899503
0,539288172364609
0,536895493222482
0,53737727240371
0,53968134459074
0,540320956069712
0,539845993041972
0,538422178115788
0,53169682113578
0,535066155953041
0,535769155702715
0,536389027282623
0,536392649043405
0,531310895418579
0,530757187875312
0,531775709363757
0,528988048970093
0,526500330451443
0,525875727036802
0,524889583200005
0,520701632413666
0,520431984579089
0,517293859641646
0,519914572689376
0,518232771310507
0,517178594598807
0,512619347510709
0,511062142207904
0,50894534813714
0,506461734289287
0,503823226619817
0,505455362738457
0,501762090628948
0,50368771033357
0,500824351140541
0,499241296304558
0,49714961618811
0,496879824706961
0,498258139894873
0,495352787877407
0,494382973364516
0,493586896983818
0,491511648964311
0,489539401500675
0,485350446241959
0,482646749994785
0,478344687283364
0,474785534315836
0,474157115839959
0,472432693059411
0,467974297109678
0,462212741431986
0,456459967884506
0,454143344998411
0,449575254080498
0,448693213330914
0,447510671713958
0,44332769848175
0,442079988432902
0,438634897530054
0,437826538579989
0,438158043466312
0,433403237224181
0,43559936906592
0,437290649743136
0,430214942600463
0,426295930135839
0,428836537217137
0,426776606513821
0,421987109231298
0,419068599223562
0,411819741237313
0,410175728097916
0,403784161371665
0,396480161218143
0,395173934427794
0,392207202456557
0,38681958879258
0,38180533703773
0,380135718461138
0,379418285258491
0,379420771169502
0,38187246068004
0,385595791081146
0,39027696412389
0,394788606597109
0,399973908520474
0,411334765104837
0,42149245212579
0,434118935838038
0,449266332592641
0,460697500290023
0,479416411514936
0,496342431657565
0,509123081537035
0,525457438218713
0,54262906041179
0,561640484239346
0,576997780287404
0,592656309105345
0,610441894329137
0,627636163586985
0,643538294092736
0,660067592694859
0,669886550906752
0,685704598996341
0,704565094520876
0,714027207556345
0,723423908017729
0,737196997742251
0,744448795969552
0,762652742769217
0,768455343645701
0,772330572731039
0,788961990426234
0,79359142761535
0,796935555454847
0,803255984568162
0,800182652987612
0,80132759711837
0,805163329473081
0,808062069030142
0,805964448200556
0,803871599275499
0,811615603721793
0,812739793621467
0,810933738157459
0,808135100743421
0,813621470632211
0,811419840266453
0,811063416430132
0,818723089635729
0,827834549892254
0,819785760632865
0,829351087393397
0,83298776249275
0,835536921710519
0,850985172912704
0,86165164279342
0,861341908883008
0,866570264389332
0,877050095695482
0,88924045005295
0,905029978624382
0,914486828155399
0,922748452553249
0,929937079813545
0,945947644857282
0,966002015057789
0,975066829506689
0,985110650311626
0,999315216232851
1,01680281615332
1,00952024895787
1,01300773766561
1,01547265777733
1,02371602444777
1,02758166181551
1,02412985140377
1,01631466933598
1,01655443232139
1,01389151557793
1,00798373324509
0,997406214139476
1,00654508671401
0,998618193262381
0,996752334177338
1,00970061354732
1,01508608932672
1,01307844011454
1,0278155390457
1,04653180470261
1,05535307488938
1,07768230613055
1,09103432627919
1,09887146231458
1,11338643261431
1,11805053986757
1,15413052074227
1,15625004190193
1,17485334471512
1,184639325836
1,18948687718658
1,23034006038583
1,2369205601169
1,23436332400413
1,26730616414795
1,29814128883859
1,30930938448235
1,32238289423115
1,35178783497058
1,35914203583222
1,39787934032722
1,41875313893562
1,45199639253632
1,42558518975344
1,49049881551402
1,53109073357453
1,54719096570936
1,53532268962983
1,55062929812544
1,58775767711402
1,60160870867516
1,57420553177106
1,58533604117907
1,58836508757021
1,62699919956791
1,65863742390486
1,69780543053558
1,67020810610224
1,60924471779796
1,56889518073976
1,62975016707919
1,64266207950298
1,65238752109371
1,60883023458539
1,59991581328312
1,61954036485045
1,58576890996617
1,61297514125728
1,61733456427294
1,63214592881933
1,68414914810024
1,67441487785682
1,63353107559393
1,64608614023725
1,72459221739851
1,66425766806309
1,70616263751986
1,71797931394471
1,77973888014114
1,78350301438943
1,72027602398942
1,82093952684786
1,83741196661246
1,79107081718621
1,88611495946408
1,91739480589238
1,90096447983798
1,84921250035371
1,94111096295625
1,96168437197135
1,9095170222255
1,85824650265165
1,8942251321853
1,86763544318704
1,94123293172344
1,89572831310809
1,983610794237
1,90981019512115
1,93473811131199
2,06382699713942
1,99654462541484
2,03160961876061
1,99873585323034
1,96938677674368
1,97966062185975
1,90937597029028
2,06623723645373
1,92437070542402
1,9043978360499
2,06337652975581
1,92890605055746
1,81083683350347
1,86905320930472
1,8641563763473
1,97430012622378
1,90058607860286
1,83541053202171
1,76326777884746
1,70851279741847
1,65718456862412
1,69147925765192
1,64318195394405
1,56841053139222
1,53925871843644
1,56767525034666
1,52345610593269
1,50058544648317
1,47564041891949
1,51248149940147
1,49807876238733
1,49603793475283
1,44586298199162
1,43443563462984
1,42508130169769
1,43902763122059
1,40921699580316
1,37583098399385
1,42400887139259
1,41943869979183
1,37745424713719
1,39045448923847
1,36027875760839
1,37462106135604
1,34853314038127
1,28662852348824
1,27179001978074
1,2605270464459
1,23012163488188
1,21166620659529
1,18584811754457
1,15406030171476
1,15251002439205
1,13079900469675
1,06881968869531
1,04114881814112
1,0135545462738
0,982498429443299
0,955938499383588
0,930622262849182
0,885372418450217
0,854637344559622
0,841641443688902
0,810499646034866
0,779150923957244
0,759306883953242
0,739031902361404
0,722178718520207
0,702107658633258
0,689267153964788
0,678695245018673
0,666342938933913
0,653928786129629
0,638554123503048
0,633992376110314
0,641348686885327
0,626865800883297
0,623308427198163
0,622682374981117
0,618616859853601
0,616008601497951
0,620746511923689
0,621043842858967
0,625684807428282
0,629279743656028
0,623529703593799
0,619988269206551
0,621820083223554
0,619569869995429
0,615198946539767
0,613965377716001
0,614248824642545
0,605047438334949
0,598180146318278
0,582814363694296
0,586164850775497
0,586791769549234
0,579367420561791
0,585589711777107
0,575343190497866
0,564978526213056
0,576259001384485
0,569511312893487
0,573139572004479
0,578920206586925
0,574890242018615
0,581392525517997
0,578455405997474
0,577700395638104
0,585249223921481
0,589890185125063
0,593726168111427
0,592596854693859
0,590671383914488
0,595524407802648
0,597601493545076
0,597308071228381
0,605281169287397
0,607206697981975
0,604993378996217
0,599658502370294
0,60760179033257
0,607297123064692
0,600654190048898
0,598347627194518
0,594751666728851
0,59858144335162
0,604433789826684
0,609645112581398
0,616893070050232
0,616419412786024
0,630602051590774
0,629873684207544
0,641330869524869
0,663652487502444
0,67131859897725
0,682116052631627
0,682807787631901
0,695154487894476
0,724826566196853
0,741852451033316
0,752476486943166
0,757235679711048
0,756806048274768
0,757306110813766
0,763028057708012
0,756165682889645
0,750332461852824
0,745289646286738
0,753085294204321
0,741721672270573
0,737551578480168
0,7234400199472
0,717002910560067
0,720174040354416
0,714518963538216
0,712454856507269
0,711590515418014
0,715121658742986
0,720493339939501
0,721589231616718
0,71352064434849
0,715907555735879
0,737871017471334
0,729869359696537
0,713699816635924
0,708088463393659
0,699607428600908
0,70143969760322
0,71572162415324
0,696175644847789
0,686092029442708
0,68707069755876
0,674529321068962
0,679898393680046
0,683594578510825
0,671909615136356
0,673705497963076
0,686015720769136
0,67888214727823
0,663696469481881
0,676044832842305
0,654380518939199
0,655817918154422
0,675322860849934
0,655098375884925
0,665163392624976
0,659040460318161
0,647432413108274
0,647725681032306
0,63897464452272
0,636434607921259
0,648140315120491
0,646059669957398
0,628601202530539
0,616416177030753
0,626391199690776
0,646125519130976
0,633669400312125
0,626207747059422
0,6392137987086
0,631571314984848
0,618968361590767
0,627623272348529
0,616413915532683
0,617214341219613
0,640117270246766
0,639852258497318
0,622934831979917
0,627299166450329
0,630335454618611
0,62569384245623
0,614195825159086
0,613399038123285
0,611276919055861
0,611055031214089
0,647024085965061
0,653559858464847
0,614921615881778
0,622902203325557
0,644263822304512
0,634694616157086
0,624198593346476
0,641857890297785
0,64561290682628
0,658027022753888
0,661593235366923
0,646999124683738
0,653825266831132
0,646125975983644
0,634620513354703
0,662883143739449
0,659905187498967
0,658900164287304
0,66649801593822
0,645702118242051
0,669596816565159
0,685735569033268
0,666541460255999
0,690991692752913
0,690575628286714
0,688242312035909
0,735900375931956
0,721175245361984
0,705623808229664
0,747081743327266
0,749907337112935
0,736860325738935
0,781743238321037
0,785137821521015
0,825940642334979
0,807127147906496
0,79966648044656
0,874629901463723
0,912195802528358
0,916808935316406
0,900715748883174
0,921411852047996
0,958711870031255
0,918065644425883
0,979392089675394
0,966431402895149
0,932284441265491
0,927008617861844
0,956274999860943
0,971995091183861
0,989256910186483
1,05129164784071
0,978380691731151
0,915757609990358
0,942391209697925
0,947026390752468
0,982651170572517
0,991499182449494
0,957367236924767
0,898494681111308
0,950114039071842
0,967148620628818
0,995115055799873
1,05074577937286
1,02267436735758
0,968757387191783
0,984239150133972
0,941434068383843
0,896084553428697
0,879500430592294
0,900893307601314
0,897591251642303
0,907385154753984
0,912678505613828
0,964666207542617
0,913852967955418
0,945931635938192
0,933683163877207
0,856640834311034
0,902122817173631
0,915214989229752
0,931135083851306
0,940907776997517
0,911900442460271
0,966067139687774
0,967018178266854
0,957365684939942
0,989657583012499
1,04830128243425
0,907246290538097
0,928586144732034
0,897109005373321
0,930141881041111
0,991876363430964
0,989561664322636
0,925142283143887
0,84669891872998
0,814124571673672
0,91227762720803
0,912763925203893
0,962270564621498
0,949145572161572
1,067680068661
0,939527805107357
0,933209595117029
0,998625527675849
1,01449224738371
0,947481373780761
1,06727888581472
0,934634983822747
0,943270756381639
1,03479937189813
1,02856560922309
1,0024498258003
0,921630149400931
0,939928584046832
1,01746257232979
0,919110949176154
1,06286196263263
1,03110401270275
1,03584324702987
1,03989116325632
1,21456485019106
1,15467364205941
1,06840330011604
1,17521660684116
1,38724944193967
1,16484474393847
1,30988131661256
1,58265480263369
1,21676785324151
1,15387933061117
1,33375761561128
1,20078116045996
1,51039336569442
1,4913247847768
1,42040395111999
1,02297761841084
2,01604200200185
1,22090740941617
1,23682041431501
1,48856780136076
1,56838200517304
1,18577695276482
1,18333904554022
1,04900904482285
1,15997416048355
0,9520162300761
1,10369910751911
1,3203469176239
1,14664869007963
1,04992985498571
1,20088958320025
0,98369221789052
0,953405625843562
1,14839344797256
0,941151106126115
1,0109390020352
1,43925228401828
1,1224868237214
5
1,1626818577265
1,02702597070234
1,01198817881069
1,15545232777885
1,01102115122875
1,72996567826284
2,41460533624389
5
1,40941717133686
5
1,06906630686163
1,07120136050677
1,2319903796657
5
5
1,2797358021531
0,828899507744372
0,904338283403349
1,67868213914572
5
1,2216037440544
5
1,52561864250509
5
1,34377600920313
2,539747506834
1,41492515193266
0,683595962561449
