3596
4000,36533379555
650,420452594757
1
2
2
0,103752365823727
0,0918458886412034
0,0990308314538201
0,102575119125028
0,0998864950305252
0,0884341148076068
0,109723512722875
0,0904382143425536
0,107403672246276
0,0903978878024653
0,106522636927818
0,0882617871495806
0,100263043354437
0,0913729445247244
0,101550013159944
0,0971696062373709
0,0993243614307716
0,0891624727717641
0,102182410326386
0,0914185029932044
0,103731795609714
0,0897507444472111
0,10344718659908
0,095720754617346
0,110954003372902
0,0991323763885006
0,103676153057481
0,093380248187114
0,103809170892844
0,0924181924508234
0,0985740611208465
0,0880611228445401
0,100451909218826
0,0872596643573852
0,0986224203723016
0,0910875391875406
0,0974693980149176
0,0949350105403197
0,103791736571593
0,0973157790813711
0,113229645229885
0,0885505693652685
0,107912167501723
0,0927311291629871
0,106168075681365
0,0867210396429635
0,0976360381347556
0,0893793744554546
0,105264309032525
0,0871461083031836
0,109755896413684
0,0948106939315905
0,119771108956558
0,101707730997719
0,102810572207467
0,105651404822488
0,114673380511503
0,0811216720636368
0,0973428490062297
0,0867345470592531
0,119364043715472
0,104947875440508
0,0997003314271315
0,0889459740595021
0,0956004606632166
0,090860829283624
0,0981839596051464
0,0924913897653837
0,0994382509516624
0,0972431008021034
0,0995841029755361
0,0995342228090424
0,116752807430298
0,0896836387728095
0,109388123472184
0,0941863505275886
0,0925324195456282
0,0898468338885567
0,0930289376580567
0,0983973253291387
0,124421109906545
0,0960812436663707
0,0978460534664689
0,0783875164363034
0,104677383098344
0,107292922834105
0,0989109371002463
0,0849396984149359
0,124675457791989
0,100340429169508
0,0990630017222652
0,0919013110333017
0,0928483359698573
0,0849579595033879
0,0904911402702123
0,0827738750921014
0,0940380696306592
0,0857802396578853
0,0980223355979089
0,10409715048969
0,101548299468905
0,110603324794904
0,143000956664998
0,092488292549303
0,15574821428794
0,0999453467136796
0,102461048203423
0,123887419979016
0,111019478103119
0,084268019670916
0,087711984723351
0,0818124016293112
0,0990310503111687
0,0914962204475579
0,0944604558390971
0,117341881400433
0,123534849872898
0,0858796690513827
0,0937730592244439
0,0839585384292791
0,0813411475422147
0,12453521653162
0,14051080954299
0,0931852938650051
0,116422832059187
0,0850224180939537
0,0966289568203241
0,12769453728313
0,120094006793754
0,0905531204440807
0,0921053221426251
0,0873597918416566
0,082410142309584
0,0931098776843554
0,138252209269648
0,0997948631761875
0,102490590373084
0,089705760347237
0,140471201871719
0,127055823147449
0,111990409260196
0,0806772514050067
0,0803318941732753
0,0913673155194646
0,142912095099094
0,0961814329051199
0,0904435624896638
0,107424068401396
0,10171987316801
0,0883479195570568
0,0894782595825275
0,0847226781349819
0,115671955955364
0,0913052989919604
0,071680962340282
0,133676961295133
0,15679622607765
0,114767943065528
0,14105523355572
0,0920579460388405
0,108855119213303
0,0827385419971448
0,0987457827014434
0,0730010807499543
0,100716738975235
0,0683995085995965
0,112968377666335
0,116483769510085
0,0947433850123326
0,093926343729051
0,135749950755123
0,0982791442655718
0,108157041266309
0,146311580840156
0,105976866828623
0,0879136531254866
0,125841634740497
0,0932962076443353
0,083827140171093
0,0936422417366971
0,117364532481069
0,0845166796730316
0,0924264391509258
0,0784420775347081
0,0999421052535304
0,104333782061355
0,100449151233734
0,0937441133433723
0,10155256266679
0,0766789225668093
0,111740638090645
0,138889037412075
0,127895394026142
0,0987389303816858
0,099417099125536
0,0640261907351598
0,1470787857451
0,107414883100885
0,0935714298868952
0,0802778889401005
0,086801654819676
0,0800114853620891
0,0884495761333155
0,0826259206558576
0,0810084146744892
0,0664906185755191
0,141564276312837
0,0978788107156914
0,09606147776439
0,0800693832380885
0,112013803277109
0,0756927609663497
0,163989370699925
0,110983753692482
0,0998211958404482
0,0807911346840668
0,0939291830472434
0,0999379468748014
0,117431804665498
0,0861408395480187
0,0944064713428806
0,0794881739441251
0,0883024128976216
0,0770343892037248
0,0879683533314224
0,0856107123033056
0,0956565381379028
0,0798112093884586
0,0873399869413844
0,0852459544109003
0,106659435428207
0,0919445713551375
0,09745890587416
0,0894099921734691
0,0816566946409669
0,0952327984905139
0,111060992869472
0,0908642669280882
0,0930596186488721
0,0814635576815126
0,0970283243700052
0,0804162716653633
0,0953862033827292
0,0854006205242941
0,0901862878596161
0,0832126392820911
0,132358628534007
0,0871333261020062
0,102231113048295
0,0711058327942238
0,131836735660474
0,0895207733216661
0,0994270569266288
0,0849149602728957
0,101765831044159
0,075738343067048
0,101505842492238
0,118526410556106
0,109105699421373
0,0757974067309933
0,120654537604407
0,0831054695889206
0,102909701350574
0,0848194973286004
0,103148357606858
0,166594992776139
0,116593056865392
0,0913791094447167
0,162935550728837
0,0938365042385917
0,114566520819258
0,0818175721916436
0,083262689836985
0,19251748554441
0,160776931129229
0,0863183066306175
0,104877333901081
0,111377244825956
0,0989509380594856
0,103531008353012
0,111372385693203
0,116266966091437
0,125158946737743
0,149819271613347
0,162159294393178
0,0744411107024853
0,159224240837335
0,113340268308922
0,110426821073854
0,084420302898732
0,0967812087444565
0,0832760758912923
0,129418405584078
0,102061393812815
0,133987548599642
0,0919484251768945
0,113979114571012
0,124328004243746
0,112629535511687
0,087082321092764
0,120034967167188
0,10304027317788
0,0987039127250928
0,0919319226560732
0,100836497428693
0,0978821432363233
0,0989120912900088
0,0991455863568702
0,177296312038913
0,104119299878737
0,127263175546972
0,121184907918475
0,109096050704959
0,0885957110969697
0,105502833604571
0,0942456294172132
0,107509165198685
0,0930564955210358
0,10273327208502
0,12018810313591
0,105067179602568
0,099314630380236
0,106944314015368
0,0886427121425154
0,10501450797552
0,100930366416417
0,106450695018497
0,0974727920681097
0,111876199090772
0,0941407584663032
0,149676783902779
0,134908253231751
0,0946459666261453
0,162651596829336
0,149584910435266
0,112348783163725
0,10679432277241
0,104642533385485
0,116737282006391
0,105264161341092
0,122267115050645
0,100873785667095
0,123558571269032
0,134867046172235
0,13469880342232
0,120570519257993
0,14528038743071
0,19573128543083
0,202319526385585
0,141680402291364
0,138571684814393
0,0998994617820371
0,194932399844221
0,138313020554995
0,17793442370148
0,146660577237221
0,13650250865185
0,141548730501831
0,133695428113717
0,135346977712114
0,142227718240653
0,134987849062994
0,144556204971667
0,14770027874468
0,143173485284552
0,152275237602161
0,144971393367119
0,16254887951781
0,204540496703882
0,157039196567169
0,168672134778649
0,158820852858429
0,161552512236196
0,213752280627451
0,19616071043853
0,232745741017381
0,20179900737054
0,224065777362508
0,245603596307973
0,17871835413396
0,191159113816723
0,167598196803143
0,197320330843099
0,189216302484929
0,192059975991289
0,189437163311972
0,19192295913448
0,193249076020961
0,201303576674244
0,191295338423277
0,199241161930506
0,197036192185374
0,251822916874222
0,201892737652529
0,227638834450499
0,213959825210989
0,258299183749656
0,275970880062076
0,306204625444594
0,226303561327861
0,259222048987791
0,22469797535426
0,244877553544732
0,235472030075021
0,249869864480611
0,248873360373856
0,254142447665712
0,288056300989329
0,284870017829829
0,284468351524086
0,280753077466572
0,242360144258836
0,3069560797963
0,275523815576876
0,309174063951115
0,295541920266646
0,293730120392185
0,253381418607428
0,33565243868407
0,303007756581656
0,334297101791625
0,314954070925321
0,306304762993853
0,294130859403737
0,320613493116309
0,319476976068348
0,322738465753568
0,333045601574212
0,344996870979147
0,313791890298116
0,350428908782962
0,326266885292104
0,356745158693157
0,355951562397854
0,352169658873842
0,354945751640612
0,372352656819513
0,33966163549522
0,37225469962787
0,344659509976487
0,417422377155957
0,367549381011465
0,431180086445381
0,392737497521042
0,392538605004764
0,369716220024857
0,40829058149256
0,379961512556892
0,403071495047128
0,384248374643437
0,426161933291259
0,405406375660009
0,434761750489065
0,401409065734023
0,433113093592435
0,419550327304973
0,451852298186682
0,425344977851896
0,446636871169386
0,43218784259493
0,464501784834835
0,415829836898231
0,520600166311106
0,49659998073456
0,548089925554686
0,490579005586374
0,507935185578196
0,455001328576307
0,500544621458749
0,48131218503774
0,50592171546798
0,494998417297107
0,530059107987723
0,479518003110549
0,528187925757231
0,523864978181352
0,54060705016297
0,531278611068717
0,555593608935457
0,509882433341636
0,561825771352856
0,525090887782786
0,55874063357981
0,539231539694573
0,570645744854786
0,558605447690804
0,61279440795887
0,58095687830896
0,640088755542794
0,56437412635071
0,614406868217585
0,570657942392972
0,594227463926253
0,593668384175855
0,628258829074611
0,61045320504096
0,641711434611677
0,627301792016008
0,648338072058441
0,615361255030071
0,659937976413398
0,643085780180883
0,65412008158896
0,617146973076148
0,670757775857939
0,646082271087693
0,735567494651193
0,674046971863943
0,70701130031146
0,649673974084194
0,730510882368692
0,678898696306568
0,736044975491661
0,687065833938646
0,756280775497484
0,687871051842102
0,767039345923499
0,675259733968467
0,722495122386595
0,709870552782802
0,749574825251183
0,709692128018341
0,754876788534953
0,72304280668925
0,809136983836716
0,773144496391572
0,81496103261433
0,742993135263101
0,834751953398091
0,762743156232433
0,815047096921021
0,755754109274123
0,815311855001131
0,798323704281178
0,852382519428026
0,788703245242391
0,867951409353563
0,781410995887392
0,83250242914822
0,788143578242961
0,853672718194115
0,851356115525699
0,87841195268903
0,851499877924133
0,906538273878211
0,797613148221771
0,941140458812059
0,84512219512098
0,896230952028069
0,934805588701501
0,969803661396186
0,902984394428039
0,981551453638524
0,901136319229531
0,977713422607987
0,866922226175473
0,944979555785709
0,913629137499905
0,981769614329
0,924887443766868
0,99897651371516
0,924170360801911
1,01742857024699
0,878014018104235
1,10649732465902
0,943281521457146
1,00339816969335
0,930175863659651
1,00246167884248
0,975121851929347
1,02738572678001
0,987055622157297
1,12036554468557
0,981475585925576
1,07067808866898
0,963519852886672
1,15685651341598
0,947550684897379
1,04150107380126
1,04509411606166
1,1288219367478
1,07704464847187
1,11866462819292
1,14398841570567
1,1212787823678
1,0128427308971
1,12785597653896
1,04217480359994
1,14863842645367
1,14868697248257
1,11090881012643
1,02964916344567
1,15596468374203
1,06937631304659
1,13041199608221
1,07821453327826
1,17361544238166
1,12581589871993
1,16674602432364
1,10364286039349
1,23346972592857
1,18143993720893
1,17773787629483
1,1001267579109
1,26315766058615
1,07190935884304
1,27618929444458
1,12741898250428
1,21989788482229
1,15738065352775
1,15321474562992
1,23631344555056
1,27842736718394
1,16481568384616
1,22849693595344
1,18419374009172
1,26004302094055
1,13854321475778
1,59649228888271
1,14998095198883
1,28490192032986
1,11769532282576
1,38755356529051
1,30168255289356
1,27195745872132
1,2465074063729
1,44277521400259
1,1774777263232
1,4356720059467
1,19149061853946
1,43829191525122
1,22946177993605
1,43085442936177
1,22409364075088
1,32464092096467
1,28989703070915
1,31135231306976
1,30171409428315
1,37318923879611
1,20451681263868
1,37811423667331
1,17432756036587
1,42369939800992
1,37342249573368
1,47784033360643
1,24521321611141
1,67025497676595
1,40485796172247
1,3802328224905
1,33053715219832
1,41186451598629
1,32275585443201
1,58124094714906
1,26768147883129
1,37040526914413
1,39326502704535
1,39551363220215
1,299809680294
1,38119802218333
1,39905128138068
1,60851507079356
1,37318222966682
1,60557946926876
1,32284927893374
1,46329392037393
1,38113994688211
1,65148589967701
1,44888386440941
1,58514502763778
1,36054981295754
1,52875549052404
1,31594324090626
1,4552067283542
1,51444611625847
1,56762747828703
1,36578236014738
1,74300714328334
1,39463384558885
1,56430383571728
1,4605579370375
1,6181927051596
1,43445606950581
1,47960266583726
1,446239571297
1,51334127824797
1,33353864149593
1,62168906890628
1,36932446116102
1,59471450602258
1,55325052068686
1,54373979590229
1,43117902758491
1,54404819700503
1,35776719363576
1,4413668764826
1,43915036854554
1,52307465915588
1,34842460470655
1,62716256615024
1,44308155541077
1,59409083719162
1,44884665469497
1,49773888321343
1,43234082255977
1,58390554041297
1,43792229991772
1,38797057802983
1,4294245638631
1,53990754212663
1,49448464474829
1,72690024079392
1,48809058663114
1,78687186651661
1,47192003444974
1,61351773500154
1,48367081356403
1,64225328933694
1,44934888000474
1,57220793931621
1,63051699239411
1,59498739700519
1,54298547662788
1,53628266021855
1,53447627232399
1,57641992337259
1,63155295873806
1,67974889452553
1,52775873907133
1,61899293008551
1,57293478996729
1,49581381810502
1,42275504510916
1,55893797142616
1,46593794114417
1,63801149847036
1,54245044496748
1,49537184106549
1,4210364206343
1,83683521959592
1,614001831016
1,52315671444126
1,48683420915129
1,78404576455096
1,51281151848779
1,6134711733584
1,53806972764489
1,67931655081478
1,52534233519951
1,65823866982705
1,49507397464796
1,54403780085968
1,45071372484213
1,62670237381872
1,42949109118528
1,72498137641223
1,53179194625546
1,63160416116551
1,48774600875261
1,61422702091648
1,59324222701703
1,87283085786071
1,68015059435024
1,57306978466504
1,54800400675684
1,51675781286832
1,7121158015906
1,75721144135385
1,46522061640378
1,67410265758384
1,62732172344469
1,60349172115219
1,6366916602486
1,69275118989263
1,53039635172104
1,81068120221491
1,49458283380732
1,67768621357263
1,54719545926242
1,69229398637062
1,51590519771437
1,71196554964004
1,53634628732007
1,5636063493801
1,50238865270636
1,75399335421542
1,60061053476057
1,62836868147915
1,59929536519205
1,6933397235068
1,51222926256259
1,55472578417572
1,54055302168237
1,68086895020885
1,54840401851106
1,57222916389172
1,5235332657571
1,59635227031879
1,43276066937088
1,66768158167614
1,45350358426571
1,731030503803
1,61405060990218
1,66717060336282
1,46294362651852
1,50943539147005
1,49598316819133
1,64399768303186
1,43927547215526
1,65598246067659
1,60834189965209
1,54288551336745
1,41381809048311
1,56233546598087
1,50078040251755
1,53130154116839
1,47049742974722
1,62423405199607
1,55843002709202
1,68112655621174
1,41038811730359
1,51516059108987
1,46893244864368
1,65450699077809
1,40078137331553
1,58385863865112
1,45209902184517
1,43292584684523
1,45128940739712
1,50745162888617
1,47240699620486
1,52155654123369
1,39871376302835
1,61954088799693
1,39017884839464
1,45903023310771
1,47674096936252
1,58930664486443
1,44718497225684
1,55516734517977
1,39593781066018
1,44578043744454
1,50960050650582
1,4282209813187
1,3215253046608
1,38414072098139
1,41343604358223
1,50645699329495
1,39922356447958
1,47675413335275
1,43586629627073
1,40648425835385
1,3657372759084
1,44836338856127
1,33576482784915
1,45699577207971
1,37693527132147
1,37048072437932
1,37912975518545
1,43549513627085
1,35491357297848
1,406035454926
1,4088312561169
1,36840039299752
1,38080235349738
1,4251143024695
1,27394833202576
1,46552496475275
1,31983106251209
1,34841777010888
1,27663413756787
1,42449316668691
1,28981067008191
1,39180564650451
1,21309440872182
1,3067504433932
1,26564887139107
1,28847933882871
1,263586379783
1,32637413538998
1,24906612525287
1,27514397232514
1,24180706974545
1,30286345497192
1,22477137453111
1,27896319136474
1,26032375221388
1,29824364173622
1,21522020487374
1,30194464626739
1,24143075559868
1,28680737310845
1,21332139322769
1,30237043032681
1,18154351419582
1,26042277899131
1,19901385038275
1,23186033055252
1,19680322293534
1,16080989634081
1,16828998266023
1,18033343047008
1,17636896030458
1,19493391021958
1,11793014958048
1,20256020473804
1,14239701635279
1,16706369866691
1,12664275042134
1,18447469753062
1,10764702108155
1,18665809905268
1,11254150735533
1,15777197497537
1,15018351560491
1,15227785252482
1,0773149825126
1,12200093948112
1,10280636351216
1,0943763384223
1,05958119975866
1,10436049679642
1,08747702461741
1,04263034488384
1,039194681696
1,07622155281915
1,04140201362488
1,06822354026193
1,05188441766797
1,07985791883134
1,02703202064625
1,0315812698289
1,0145114961187
1,05299683129999
1,02913735470331
1,02527254057442
1,04034661499877
1,01476041746079
0,999341493866991
1,0059934848154
0,995601967839837
0,997715520630088
0,968816084501934
0,996369814635094
0,967904806875584
0,99609344821158
0,93418924134703
0,972870016639299
0,913574409961642
0,961555932279307
0,936278479852782
0,982110812225198
0,938410306690091
0,937732122976105
0,908831599456856
0,934962423511662
0,919494977728259
0,919951630485227
0,915165326067338
0,931640734815568
0,923494260305738
0,923202595948419
0,913781103109383
0,930594551429938
0,88308095044575
0,897709340331898
0,884866561281108
0,905560671810986
0,881239216355824
0,87212667016758
0,859461605039907
0,875084424774739
0,858509690592298
0,864977936757802
0,846882830598261
0,85048065083409
0,847160359696153
0,859502275261317
0,824144338565906
0,848082759003746
0,825917020390662
0,831726765727113
0,824578148254695
0,83221979179865
0,809061422116193
0,816636469819248
0,806812734830553
0,818032461489899
0,814434911378323
0,809839614348471
0,807676278037013
0,797068935485692
0,782408309118589
0,806351442972446
0,778350513007442
0,784107752626566
0,760461468859114
0,782710149101396
0,761459231484625
0,777734471702549
0,763916644228181
0,768894893920614
0,760461967344288
0,758452380517731
0,754249118812904
0,756801299918477
0,725820549724513
0,749111855382886
0,734834092567102
0,730665482769919
0,721299834594721
0,730723499278347
0,718203131581792
0,724059009150809
0,704135314026865
0,72331316259475
0,713503145305171
0,72005374140195
0,700458488094862
0,709222297560996
0,686452125441074
0,702171331943075
0,684432590574639
0,695380521291674
0,681301094933105
0,680519396738828
0,671600818631143
0,674663536877059
0,657302980063798
0,667395346254002
0,670027147104269
0,670869975741968
0,659212892119929
0,661923358769916
0,644364728122227
0,650782710086691
0,635806653189346
0,650541958453071
0,640605203139613
0,650763417517037
0,633882121714488
0,630628546129497
0,624875697762871
0,637456702715039
0,620142257091624
0,61903480666267
0,602456366300092
0,613060639814236
0,594489010921841
0,608876155333274
0,605088616335857
0,608717719359296
0,597454492327363
0,60007545162164
0,588488410341188
0,590248673010454
0,58850785076317
0,588111488071182
0,573016655669241
0,592003821412969
0,572092502536139
0,576318363610583
0,572054731053635
0,577748163414387
0,564868120441391
0,577308171463553
0,568826292139279
0,56723125193212
0,551722671476193
0,56030774243726
0,556518387700457
0,563209883954628
0,560756412704896
0,561992704591259
0,547374916094617
0,555220108642934
0,562934001719363
0,560301198632535
0,5440863671564
0,552736124688524
0,550764367503771
0,558762306576999
0,54277028585064
0,553100394984866
0,551777978594367
0,560536553989777
0,556928123992587
0,554293456150101
0,550864379887747
0,564217443926414
0,547538413677439
0,560066476042859
0,552410077911259
0,554816835590042
0,554449507386189
0,570823262145496
0,559869975512761
0,570727057076506
0,558029654138969
0,570800907231347
0,58053575070488
0,580549653400348
0,57942785486489
0,588953720518303
0,581592925409403
0,586289355928467
0,589926529888916
0,591115495914258
0,589233147154879
0,596549889686552
0,597392057855233
0,605195354050821
0,595032100985592
0,614257114300188
0,620718867569691
0,611862032295873
0,60535583167091
0,617180458434619
0,603297630540883
0,616210557721772
0,618393929165149
0,630236418107348
0,618115745352276
0,623358661809639
0,630557830636139
0,628605025762621
0,624209598255646
0,641958702008216
0,630739930892419
0,636475079657586
0,621637342911692
0,646975002334108
0,647328787857491
0,660684077473946
0,658787464573811
0,663315372660189
0,660495602196396
0,681847696277282
0,682256540943803
0,685331904444561
0,669128111866923
0,688630970833597
0,694578340682769
0,696367673232163
0,697762357770989
0,70256008130349
0,690018189937983
0,697117867713076
0,705167626496167
0,700285103697319
0,697243468073441
0,703012081939474
0,721929820678859
0,70983647670893
0,693753853392456
0,729335049886081
0,6978959058711
0,696275326493914
0,715017682810148
0,717259762829932
0,700325622844934
0,708324772368532
0,694721114386197
0,694235622798175
0,694577884081275
0,697651438101992
0,689893995320908
0,709738922546494
0,693826927828844
0,696399395527445
0,690474388009004
0,701560993108366
0,689444085652662
0,701137660979819
0,685621033136716
0,691024892814618
0,6785772805897
0,695969959674186
0,683640409092974
0,690510695737977
0,69921306387573
0,70691519075204
0,681181763937205
0,693794242785427
0,696842051429154
0,698556671923829
0,684490405153824
0,709487001708971
0,699204733223606
0,692049379068602
0,692636936353547
0,700530480375744
0,692314227530477
0,707029860181035
0,697610691824196
0,693496495784015
0,689700280075075
0,700976192562863
0,700506480126569
0,700478414559936
0,678785874261346
0,697454588391471
0,693890246730341
0,684740649317549
0,697583669509159
0,695421233462365
0,685077707014309
0,687343925899108
0,678900404065464
0,679358222549946
0,671526281677772
0,67559103007215
0,667039757987319
0,67335914080418
0,6599321011761
0,669095907125041
0,647265515875875
0,657640771889373
0,65192169755892
0,646534469660308
0,638582965465306
0,645422107275551
0,636301040261943
0,637699890434614
0,631290236660506
0,627020331063572
0,611571733777102
0,616257500807319
0,613036817350296
0,600559590977768
0,590688305788595
0,600367892312383
0,58847219660493
0,593939485080358
0,583533662533681
0,584576773484682
0,570276674216316
0,5723637164271
0,574320542994169
0,569221137632589
0,569068145258132
0,561559538651627
0,555034724763309
0,566852417527745
0,547929845092068
0,545962056952815
0,5437003646023
0,538356188465949
0,534158150190531
0,534340779293043
0,52855060514835
0,530609646216408
0,529879960012846
0,532888031645141
0,523086164102896
0,52015566921434
0,510775543050478
0,519132905935367
0,515907058652325
0,511540095473455
0,498799361066
0,506412725755317
0,496486481821441
0,502985344724064
0,495898087750182
0,496392137509618
0,499704100663088
0,493757664980747
0,485025226342998
0,49323308502316
0,484649424880754
0,490477036431383
0,483524414717248
0,476476506070366
0,476993491065997
0,483174971591199
0,4686927949925
0,470594983819678
0,475012531789493
0,472461850837744
0,462456642452522
0,466824792267982
0,455035897767086
0,457089514450626
0,463679858405526
0,463102495316442
0,458038914754197
0,459093972882689
0,456779938004787
0,453721922821012
0,449535859584742
0,455217242634352
0,447879798548117
0,446923720460424
0,44465834531365
0,448900795864148
0,44156864588659
0,43645109496139
0,440838712271266
0,442314454615587
0,427850650740014
0,434608060189664
0,433125352805483
0,430015365347402
0,428434423238414
0,432942634920853
0,428643491474612
0,424969266612085
0,424515903554457
0,433379977981075
0,427279965285447
0,420512010570813
0,419170454429858
0,429017269196331
0,416692993490545
0,4186075773872
0,419419529689804
0,417788281513682
0,412171369508424
0,414380620335486
0,407858276451999
0,411117303664885
0,417750443659035
0,416297167393201
0,411124131051909
0,410809667541921
0,409259890332148
0,405146249806338
0,403470887176945
0,409550677072243
0,404214250753461
0,40696293751123
0,402225901476804
0,401306985249693
0,40172860774245
0,404524268311999
0,403718557548098
0,404730797906493
0,39793461999041
0,397048934487731
0,393030769296754
0,392205684948261
0,389392572195886
0,392580199563114
0,393929333034006
0,392451427068623
0,391831409743505
0,394506901503899
0,39000452425674
0,39130985046506
0,38584749801468
0,389608599259643
0,386212185167451
0,386398275029751
0,384760932412539
0,382392469365569
0,377761658514017
0,381593007539745
0,384449601471774
0,386875440402028
0,383631362076011
0,38791060592182
0,38440699601316
0,381232657417853
0,380826862025401
0,385039883050137
0,384565036637605
0,387043977734632
0,381282972913623
0,381393964770141
0,378033029054439
0,380619554674324
0,37842798390974
0,374752223421548
0,374993989092789
0,377072353982234
0,374156541694564
0,37533575963697
0,373358066977089
0,374551585235095
0,368468214459996
0,368777452499036
0,369851672982611
0,367797342373081
0,368602239016268
0,367155408818007
0,360926600364754
0,366761113941956
0,368192569056121
0,367630286249039
0,364044015734776
0,365768193969097
0,360986600723839
0,358921349278235
0,361910121564958
0,367196012547755
0,360500149171277
0,360624108766173
0,354460033185018
0,361114731489971
0,362129633625019
0,352324844708735
0,354046220673885
0,350650525954846
0,350198072604304
0,352182530438047
0,348010840261845
0,351318490185499
0,354650124214102
0,350525493936566
0,34713707451615
0,349206261821722
0,349699272565715
0,346531128501593
0,341965083355301
0,347362222324573
0,343487422201064
0,341291736876043
0,33728091624113
0,337909712896537
0,337144896613545
0,34032293108641
0,341296589624627
0,33597437949331
0,337505268412691
0,334905352825943
0,330541866801033
0,334392418314755
0,3347450054043
0,335519237866832
0,330751954738115
0,32726335061991
0,326979527945353
0,329209726691146
0,329639666093119
0,324338176602633
0,322851365797909
0,327357840276599
0,325598506432946
0,321142998962485
0,319074703956765
0,320632632270793
0,319255310873463
0,321400214454191
0,317606246124316
0,317664663082062
0,317225571206615
0,314856195575796
0,313184930840827
0,312415274194349
0,309377377387077
0,313342603519504
0,308882597383654
0,303169081232824
0,307740090789148
0,305140126814907
0,303421396662252
0,302259819033486
0,300223994856161
0,302397716353248
0,296983470207057
0,299876345166699
0,300258454376638
0,292804852007206
0,295384283622976
0,295756974808891
0,290120129039331
0,290050517496272
0,289809452522464
0,289581183394741
0,286347746884501
0,2872549892081
0,289427675366724
0,281072355240951
0,280660394116803
0,282551815086318
0,28043537623125
0,28160647825364
0,281493518322133
0,282017397816275
0,281108297865503
0,278167377936617
0,278448641418219
0,277556613211742
0,271436583313448
0,273292341757188
0,273607036852486
0,273038682521833
0,274761562643889
0,276299452262042
0,274319342613086
0,273318169855374
0,270912832564103
0,266382815033487
0,270818907370482
0,272981088462714
0,267705794145954
0,264129214569414
0,265051586192123
0,264173210937995
0,26435345811925
0,268425492922978
0,266895558667164
0,262639034877422
0,260524418051892
0,26156059135352
0,265681170852824
0,262687673169567
0,257757269381397
0,258973276746557
0,25622139632849
0,25635298551692
0,258052272204325
0,25723090799162
0,257221237170976
0,257693556993257
0,259478116510563
0,254909736861449
0,249102498206401
0,250259131065384
0,249581194609371
0,251356992025007
0,251276577052432
0,249012424716255
0,251423246834228
0,252775108826126
0,251240666620307
0,248337653843501
0,244323433451279
0,244351983397393
0,246900484335819
0,242045524733102
0,244611214369563
0,247784451071613
0,243419814894622
0,241966930181131
0,240718823023095
0,239616292593041
0,242983462072079
0,239935818312048
0,239747700906761
0,241047747863587
0,239402432369499
0,240177637264983
0,238848558755911
0,237804156507185
0,240727552270215
0,237918200161382
0,239150436544476
0,239870978551733
0,238509605716341
0,237289457541166
0,238116022192294
0,23672807337912
0,234318337418612
0,234093860444556
0,236120209337523
0,23755977714458
0,235092062508385
0,232441412105754
0,236633501014434
0,233134353898204
0,231799374035744
0,23525912322823
0,233496946768557
0,231618604535067
0,231343974356659
0,23040231830397
0,229150301419811
0,229492617481999
0,229158666779443
0,228621314683221
0,229015748632063
0,228665610628421
0,228276946353419
0,225175821047481
0,227327858069825
0,225896876944462
0,22571467223883
0,22383454583675
0,2230077875012
0,222489733000264
0,221990481896183
0,220672210466265
0,221933167955153
0,220789239838648
0,220074079334227
0,220746345727941
0,223472728982367
0,222326133337222
0,219423662500379
0,219486908889085
0,221481378944361
0,218406766664494
0,218058431454922
0,215907775647515
0,213324058873118
0,215945658028512
0,21981135877479
0,214374161135123
0,21566955818054
0,217523284634004
0,215503154595032
0,213791431881106
0,213807020846911
0,213353450637738
0,212451462154096
0,212301885461744
0,214159625511211
0,214860644273846
0,212963258218065
0,212207958302132
0,212321539370846
0,210689763292517
0,211094096704004
0,209345309803466
0,211918095459424
0,211032959141307
0,208171183402136
0,20897275611735
0,210191750478048
0,20602752555985
0,207836000878272
0,209463242289009
0,205534805949751
0,203280932899464
0,202605356522264
0,200589395023064
0,203071024269825
0,204392312314346
0,203606086333691
0,199797815159334
0,203847246157179
0,203920891480442
0,197142598095502
0,196296899848276
0,198231065660904
0,197286428114561
0,19923020333315
0,196673283782172
0,195053655552789
0,195896307624159
0,194304117212695
0,194818366942995
0,194783561489348
0,191943725269767
0,191804475638762
0,190710296806173
0,192446946160506
0,189757086991047
0,186811022429413
0,186258011184063
0,188440090126948
0,188641303634925
0,185848925163018
0,182693317626735
0,186540706907299
0,186912477747988
0,185609737166931
0,182857038476542
0,183965442691869
0,181307016837272
0,184218494467671
0,18189668103268
0,180037112480214
0,181171296195364
0,17966711241567
0,179957300318115
0,182120095176719
0,178753234175697
0,177071731388987
0,17640670732815
0,178738809653679
0,177587569927648
0,17709446766519
0,176394792217722
0,172790665376799
0,174054994700064
0,1778158314622
0,174594262437808
0,174104248634348
0,172838757050114
0,173176808622104
0,174274136779452
0,175406601093253
0,171670625533739
0,169723412029831
0,16919697758179
0,169769604000893
0,16843958746386
0,168314967036847
0,169573318364694
0,169663969617801
0,16622684876227
0,168295757665652
0,167346509117172
0,166719940923807
0,166846949137862
0,167400202320998
0,164368431717103
0,163360162167493
0,165583861612662
0,162638681122165
0,161141043809091
0,16151507324086
0,163296810297948
0,162624902147827
0,159019956849611
0,15981925904136
0,159615577052015
0,159451965290527
0,156628007138243
0,1583071472938
0,159038891943408
0,15817222185327
0,156805697136077
0,157212525913243
0,155963453926884
0,15788885518345
0,154826684111987
0,155796035805616
0,157761634988133
0,155973585283033
0,155996339733441
0,154978959970808
0,151771228208304
0,15410516367578
0,150303846312853
0,150843635160722
0,153002396344137
0,150458352441593
0,153999886294076
0,153439126017518
0,151464578485317
0,153054978579419
0,15424149135901
0,156292592738673
0,15326107499413
0,15406329278164
0,15369010516605
0,15400246246942
0,153667484756829
0,150029481215203
0,15032729076034
0,151748278410502
0,150642847800859
0,151466274832819
0,148978046411179
0,14794289345079
0,141367129287276
0,144366779415916
0,144287399955569
0,145885041658494
0,146641438284117
0,142590368407128
0,139077855241225
0,142815500290681
0,142770838345706
0,138127492597404
0,139383810319969
0,135650428093336
0,13854670182827
0,134825915349476
0,141318060314765
0,141032930875592
0,133732878514645
0,137203759899177
0,142240186224233
0,138629487041217
0,147062351978255
0,143514914694293
0,144861073859972
0,145285170870544
0,143389632125728
0,136949374756986
0,139482150182245
0,135981779647629
0,141906782988282
0,140457325742281
0,138451083692762
0,137542561299242
0,136358178910058
0,13121165593511
0,13465441861913
0,131475684669056
0,131485243066651
0,133045710700218
0,135316519962246
0,138503374615891
0,133651023662319
0,142872331548737
0,138007099228527
0,139552554421794
0,127662625356254
0,141766677971789
0,133345542645808
0,149917823177976
0,126897758842381
0,148840548086628
0,125570630251383
0,161681627512737
0,127696779298887
0,153484426026792
0,122206442159639
0,163455660867345
0,12276834276526
0,157079182717763
0,125525855475632
0,153536092473417
0,125915821868565
0,149384741647101
0,13663264599427
0,143272686332003
0,134192418631776
0,139575587594301
0,13917409551204
0,137879621114602
0,140853465311211
0,14027258978345
0,138634708175251
0,14025627506944
0,133663764634338
0,139187061561631
0,134186661007294
0,139236375754893
0,133642190880855
0,138566417691798
0,13211693976046
0,136593056342831
0,133587282058461
0,13730700101505
0,13403486065601
0,13522885653419
0,132134643260031
0,13541420943283
0,132219777762691
0,136446909285839
0,132883800318165
0,135573717378731
0,131053258150875
0,13632554884481
0,133174473501213
0,135245414739493
0,128910748298844
0,133828379891573
0,131355996149763
0,134889801584888
0,131565287372329
0,135326907767969
0,133022909158794
0,135564758165592
0,132310194772816
0,13412725888384
0,131128399963981
0,136589330881644
0,131217664156535
0,137153698839485
0,134124962200709
0,137521539299406
0,134672311997068
0,135303637218868
0,131845976245835
0,133580956764701
0,133132226980807
0,135470090471195
0,131209322770202
0,136325594055074
0,134644264882753
0,13397754389265
0,132160986425626
0,135393552119914
0,132939052961151
0,135704790817843
0,132594760672056
0,138253617279069
0,132582682841512
0,13395407828799
0,13248895914505
0,13469868149913
0,13028319332111
0,134019629455105
0,132741579318206
0,134737084381993
0,132160351796494
0,136510434820105
0,134789262390263
0,135146643946391
0,131521069787505
0,134439299848586
0,133672353765883
0,135016702915553
0,133712976000126
0,135317675791232
0,130269971067809
0,136578051218824
0,13369855888852
0,137601185867431
0,132854956725175
0,13453634632622
0,135221731435251
0,136900707788243
0,130330968070981
0,13663842632635
0,137010683969973
0,134591185870854
0,134769063468496
0,136478392720274
0,13296391605336
0,137800122867812
0,133513903673524
0,138117178881578
0,136428364041844
0,136042344452035
0,134932676804742
0,140327680584051
0,134749670179218
0,136549402745637
0,136417886860667
0,138661595921027
0,135727482657985
0,139248546852337
0,137920917424638
0,139351913387315
0,135919274441317
0,139360987725016
0,135254328024404
0,137568316664714
0,136411506179572
0,138049985193317
0,134881926416383
0,142978380838594
0,13813307290513
0,139615290196402
0,136680779320686
0,139411852151029
0,136141437079679
0,140553503069962
0,136852040976875
0,141532715629396
0,139017371517563
0,141650482225171
0,13620262530411
0,140599488076053
0,139766479903527
0,140479595344398
0,139800797211535
0,141524693874221
0,138453519116293
0,141233987179835
0,13678146268078
0,139962575538221
0,137049712992036
0,141184337371888
0,138299985160523
0,141289919007339
0,139222654389507
0,143032925768792
0,13791151752885
0,140142248516923
0,14010433839935
0,143273161774607
0,1388501111722
0,14431227113974
0,139813507957139
0,141448145576034
0,140819737087115
0,142900852451242
0,139446771307535
0,142802765481337
0,140299089348317
0,143722904295186
0,142585491645612
0,142761125699678
0,142766523248969
0,144135792636706
0,143158927279785
0,146441550335443
0,144494804523424
0,146223285547408
0,140081449699116
0,146875955758412
0,146101936679036
0,145712819814281
0,144279816590823
0,147104651222907
0,142518033698139
0,145568126982605
0,1431245384532
0,147609687356297
0,141172086150116
0,144292958458458
0,141996396297085
0,145191065304981
0,142068521971451
0,142920696195456
0,142655433595519
0,145082752673365
0,141425683368111
0,14432826242217
0,140832455747612
0,143527510457643
0,14111747267601
0,143145133120388
0,139680259089659
0,143597661967948
0,140004204348379
0,14099485092665
0,14027097747408
0,142939218955704
0,138597898259529
0,141337944749578
0,137806053237873
0,140116900194794
0,139053120270181
0,140498317368953
0,136810753925542
0,13989600493094
0,138382686723691
0,140824806233335
0,136686508619389
0,137629273779617
0,136874466268037
0,139944342825293
0,13901379661589
0,138719554766978
0,135485829944457
0,136987946501215
0,13474127404125
0,139065464143888
0,136362376749852
0,138482754938111
0,135765768901135
0,1381514024311
0,138202066961909
0,137909230200718
0,137822059607957
0,136232005011512
0,134954780801397
0,138600389262235
0,136393458092631
0,135846366795713
0,13296029960417
0,138503255796936
0,133902160487791
0,136205739631814
0,132075988583267
0,137373306720388
0,13177795660931
0,135010690073144
0,132945754387508
0,138123441825338
0,131844224126439
0,137904830719317
0,132973198296045
0,136778707804353
0,132170741343218
0,13634165210194
0,135321094281405
0,133173288735747
0,132066939455984
0,136315937183346
0,13084806876418
0,134364437473916
0,130715618930748
0,132481762477255
0,131407188426043
0,134671884855964
0,129362907383152
0,131987622096275
0,13035597487018
0,133651772055205
0,132782095921236
0,132720581783802
0,129533520908789
0,131891118473841
0,131844211185609
0,132473220911445
0,133557497691827
0,133004499688585
0,129516102028512
0,133228958658294
0,132058085656998
0,13293413224347
0,129308004315239
0,130807864032576
0,128605074681088
0,132550569016169
0,12950699820294
0,130246367096846
0,127429184557052
0,129583205117975
0,127061429224136
0,127840675506978
0,126683411806515
0,130078369311864
0,126760650556844
0,129302453670582
0,127706494442994
0,130181859401538
0,125777690151047
0,131406012182286
0,125277350120564
0,128909240651727
0,129313954088253
0,127003182563908
0,126931618807532
0,128859056917174
0,12632867827066
0,12653340347272
0,122200360303948
0,127547023699569
0,124809248249151
0,126202258984196
0,124376222310358
0,123078815582844
0,12131298882439
0,121573881797483
0,121294659367872
0,12345649050274
0,120935762623573
0,126004658921414
0,122190504245249
0,124788605750451
0,118106690680323
0,122813459151871
0,118972593705049
0,123022752381604
0,118973723017313
0,123060676684976
0,128426097289362
0,118777648510951
0,118569429588549
0,118187165749902
0,117518976864164
0,116760798874375
0,116444722520831
0,117586958540851
0,117342736576401
0,116616290343668
0,115019983956247
0,114883262481341
0,115920581392515
0,113939660541015
0,11273988847897
0,11607273125314
0,111935863458332
0,115008855167363
0,111747808905747
0,113988194120186
0,11223155036034
0,112122710039663
0,112425502720548
0,112888799749936
0,112630158153292
0,110111187942749
0,124390200070386
0,121495536798654
0,111839431592282
0,11481854104181
0,11533283357386
0,114843717096756
0,108255126220176
0,110970551030123
0,109017585725805
0,112405904014637
0,109039625707888
0,110891375299885
0,108487070029869
0,111611806400314
0,107399384409209
0,110730950683473
0,106386506818002
0,111656430237055
0,109263219390584
0,110154661043704
0,107558855603352
0,109605297736445
0,107112857955983
0,10825898925189
0,105324131818895
0,107481326113029
0,105686574439879
0,118408863263963
0,111168783143694
0,113731065214486
0,104125885659496
0,107204044623356
0,105857498357
0,10965334440386
0,101597478127198
0,109861593660785
0,104106800591372
0,106060503824966
0,105824281541403
0,109720680482916
0,103445039361074
0,107928848859537
0,103382345874213
0,104951859370269
0,101884969250261
0,107414060497143
0,10324071802311
0,107296881097623
0,100419886983206
0,108364989029217
0,101705304009323
0,11199559841709
0,0962857211753618
0,114380137973225
0,118513499587225
0,108376256118621
0,10377668254159
0,103350130868233
0,100446445364416
0,0993863876938557
0,0998792486757134
0,102305770682505
0,101137944765002
0,100870487913389
0,103116383005029
0,100659606182284
0,102502629918276
0,101966288920806
0,100950649342352
0,101000550568
0,101280741648571
0,100232843474271
0,101055228328711
0,0986061617967161
0,104097662194154
0,120254558440176
0,103434179103384
0,104943854406464
0,100624792154847
0,0982488735254879
0,128001685975933
0,103401559904053
0,105516103082916
0,0979767922043175
0,102667067746996
0,0985331313619245
0,103304285042327
0,0954495271154816
0,104130788203
0,105627158154715
0,103090861439636
0,105108987519238
0,0980277056079416
0,100675230324068
0,0985963935349503
0,102005694556836
0,0982397923708841
0,101639106653701
0,0995122682139517
0,0968164359218034
0,100110463511988
0,0968513393118795
0,100078802708996
0,0967796069938422
0,10555875165823
0,102842643062152
0,0989183572401908
0,0979993596870855
0,103001026897086
0,0921401705824298
0,111503438514036
0,117873167106529
0,0976208843737738
0,10414632997036
0,093843840742692
0,103729529843992
0,0947427717459361
0,0987695119006669
0,0935379876488379
0,101985340818583
0,0938395258163063
0,103550085704396
0,0953263314245743
0,101715039805477
0,0953827878416793
0,100058518083747
0,0942171219649991
0,0993681812453783
0,0957356441361901
0,100228799938668
0,100173388648631
0,101363407719903
0,123258885417088
0,121417496279858
0,116783678560389
0,111335841071407
0,106076379829571
0,0993787081445331
0,0991599688554163
0,0975832594456974
0,0991104473068275
0,102888912408728
0,0989163365956304
0,0991396701148848
0,100714594346097
0,0992629077252775
0,0970169902030596
0,0990863021309725
0,0948930693735263
0,0961936768231311
0,095344080217958
0,101776909555511
0,0953823570543686
0,103042871628168
0,0906398187111343
0,115051012250736
0,100280122366549
0,108990369801252
0,0869085110594351
0,154341167954109
0,110175123407671
0,113642984693385
0,103288215871156
0,103046387499949
0,0995026503703963
0,0977080023362613
0,100624100429956
0,109204124235931
0,0980106324069824
0,105082891667176
0,0976052309784596
0,105604933833267
0,102905214356086
0,096708123738719
0,113144541591494
0,142287681328943
0,105143463548302
0,112480960757085
0,0915308003897023
0,119796611000958
0,128537063368419
0,105336003250909
0,111183973401302
0,104328642014795
0,101249497545876
0,101479622836823
0,10091938574968
0,102244205156397
0,110344183662238
0,103888637124273
0,102488702470878
0,105392502917416
0,103292667791899
0,114553739458175
0,105628325781756
0,125522939155306
0,11295833938591
0,106199330662577
0,114470819924161
0,110395831417177
0,105575598719667
0,107016749647126
0,108123411385576
0,103884001744743
0,122749548032777
0,120730415159344
0,113731682148017
0,128662027929239
0,117783430636667
0,107604051327137
0,115846648772463
0,120711051227967
0,127079843853971
0,0981797109846893
0,140334446828968
0,13124998408658
0,133736053146235
0,134479368991683
0,109784737863736
0,118306610142082
0,107357491301711
0,117481938427729
0,10243782573997
0,144108285396689
0,104669583210962
0,128442941223765
0,0960836132048082
0,142613198460953
0,119852744882034
0,126869921298064
0,112938233065266
0,117919742206064
0,108481153322163
0,145605330623695
0,110996429021146
0,127532089820515
0,152285614503321
0,152741061187217
0,151551215136156
0,119225710101209
0,123667861079673
0,167505300722276
0,118363035822714
0,132166141037377
0,111825206150252
0,131968502966085
0,109968054150315
0,135274126383449
0,163080210225042
0,128573645624331
0,125305203992847
0,134069255411187
0,123859903745264
0,166078524035868
0,135590752533439
0,136157421510701
0,126108115565126
0,139427803667902
0,118532523174171
0,212563633452029
0,13157070028622
0,178708127473916
0,158318275444552
0,171338620345889
0,151413763209356
0,159086370210646
0,144078279397818
0,170226046124005
0,169106122802524
0,153071372331386
0,137271644540158
0,185449822143407
0,170419597841352
0,155853110768059
0,168896182917314
0,151008929084189
0,159019576887633
0,218610451945594
0,226280230398388
0,207020493652489
0,171941938344864
0,175662407254927
0,20956975451664
0,176534026405605
0,173383481570801
0,171813434404206
0,17585159587905
0,179070369768977
0,177758205718509
0,199618489152101
0,177568335391348
0,194943499708663
0,180448913452407
0,195685935781382
0,21110258289641
0,270621561281234
0,232032352224759
0,209860371768333
0,25355162311917
0,222050361810997
0,221873632249333
0,206227284275015
0,205704823956378
0,220698577043039
0,215281498266117
0,22040914005932
0,211945150890724
0,266775667083268
0,231064138488469
0,256987398188595
0,254570508812805
0,247140783717641
0,244691560956939
0,240597812175276
0,512161175711085
0,275062813256861
0,301468582784698
0,267541377228766
0,322396867895319
0,374424255516711
0,32168516654976
0,313255701907818
0,321939285083682
0,322375818661138
0,345943482397386
0,356227985248085
0,36489063651698
0,392452576868041
0,383006583519391
0,379978595603058
0,414921304152319
0,503945126426574
0,498866356881998
0,445611900036723
0,433273739622611
0,46977684489683
0,484764354555556
0,457087682862382
0,488532026329117
0,472777249037921
0,506667787887799
0,578160402385883
0,531618543016252
0,532983486364589
0,541383976304288
0,610101631108517
0,540072219079099
0,668438870293212
0,630392000826363
0,615693391762053
0,60567501887554
0,624550110738711
0,633929814434314
0,635225425080554
0,694383068961275
0,71061485947492
0,669644299502728
0,689735247852445
0,702909451559287
0,72121719495431
0,728962033835533
0,735426102431832
0,727043224390717
0,764239493944385
0,820092617645179
1,13768596498675
0,815393054080996
0,765667463573259
0,761787288195579
0,778556013862981
0,838015102461017
0,816935872719162
0,868831360081045
0,832955159681711
0,764959485329725
0,781147158993229
0,801819220401679
0,814333988233482
0,809098152545753
0,810172316553272
0,793557662995479
0,851691203902745
0,775834504225947
0,873718341916253
0,9278239379779
0,823945479153827
0,796066095494443
0,792026247005505
0,782471735671001
0,806364578154302
0,804372944087735
0,837106937771687
0,831590248897703
0,784027570952964
0,804389849198982
0,767695700172272
0,808346112411166
0,781395612924101
0,738762283037161
0,732077100773285
0,7042295813847
0,724896834140243
0,68517170053757
0,74112201544511
0,778171609775764
0,693599166940061
0,680540749201012
0,674294379218376
0,647787782234567
0,65245177013908
0,644072958732901
0,644696668486568
0,638865190779657
0,635554539274025
0,648338709971044
0,623173198474001
0,619382975921159
0,610742937957412
0,623206405501578
0,610972134590048
0,608374239848758
0,60308997168288
0,601400758779426
0,609139176106944
0,60095957842811
0,606663044602764
0,616346251017533
0,612767410991117
0,615888101490995
0,593062802872669
0,606047220682291
0,595654309355477
0,606598600406999
0,603332733387257
0,608019127546179
0,603672544157171
0,59568547239222
0,607117822322504
0,600369109032832
0,603214911136944
0,607330884510946
0,603215962912257
0,600983201836047
0,597980172993105
0,602861280077857
0,603565390653274
0,599608503121584
0,681363822330705
0,627099585412665
0,611296711094104
0,600129860189233
0,602337819840297
0,608233168269607
0,581202962711889
0,662060806498751
0,641346085092841
0,596222403463351
0,59930160340751
0,582577872532716
0,621936021023579
0,608511680088033
0,590109664297041
0,59487527603939
0,570732875483773
0,664539670528241
0,679410801873939
0,691448730107259
0,727976232195826
0,62758634041717
0,578972787584013
0,612026739250332
0,661362612592099
0,597422933196927
0,595790106282667
0,572276358910747
0,6414217268896
0,61381223033521
0,59105033495586
0,585692160482506
0,582093509425365
0,603448690544381
0,627520994777696
0,58540083667252
0,63306230214762
0,633762626594254
0,603356541269676
0,649503594468474
0,713413279583749
0,608916474178329
0,561507921686857
0,566082035551343
0,554182430863396
0,556584645099739
0,624923300879957
0,551710203617161
0,560153638386744
0,529744556097396
0,531708547660823
0,527288498737414
0,556937607002581
0,526313306919685
0,519109929360498
0,578275904604061
0,498207133453656
0,525617801511085
0,521590431844941
0,565794777781545
0,573263184997906
0,508882199333791
0,478601903906492
0,531476812298415
0,529593521124449
0,489490109197287
0,505619339736146
0,45556694810936
0,466681910719619
0,49449266786209
0,444998695734477
0,467864275237374
0,464006318922455
0,477221643812456
0,519556327444491
0,504972141602629
0,510289958582674
0,428299229498761
0,40699136548799
0,404408815585426
0,412463101405927
0,406373137774589
0,38942776185477
0,446972888257336
0,408405179358266
0,396557825628406
0,457757755435751
0,403331607427357
0,396789482599209
0,398263943668607
0,385544328216234
0,404811828478036
0,43929417341438
0,457152361665499
0,421551670530105
0,415785455344936
0,433439171562184
0,408126785351285
0,41534239127174
0,410930960022768
0,422241034277561
0,418428350049919
0,441433589144388
0,437546135953727
0,446122112415074
0,448639838270781
0,449521412222364
0,492684287128514
0,50926247957197
0,47017414143037
0,536909240223067
0,517721791680255
0,58314204088943
0,53164609696888
0,522798234442804
0,526572404100933
0,530971861365396
0,54183931477475
0,541780475364041
0,563442149973354
0,619822971256427
0,565867828186237
0,5840261014893
0,577898228256545
0,592095389220909
0,591194296672403
0,648871581426152
0,622279274425834
0,715319951828515
0,678805895221905
0,660957732725381
0,62826803740096
0,622414540251253
0,629483170352819
0,636017693218427
0,624829032418429
0,625982208399769
0,630679892614729
0,677206348877588
0,640883945229487
0,645967919250773
0,644997566981642
0,648714862070376
0,651149206452973
0,652124232044167
0,652628464193892
0,662895259352561
0,662910427966645
0,656383284531426
0,648949245926982
0,772211993253958
0,703731134343304
0,687232121655282
0,678767799751285
0,699800475232444
0,695537181742048
0,688462642130126
0,708709595498637
0,721846383671627
0,712176358475742
0,712040608016778
0,706888066098781
0,72649255498538
0,741456908630816
0,777948947181008
0,727629251118266
0,754668002712946
0,730686703644077
0,766410402646031
0,813653321354345
0,774603843448875
0,79128105040528
0,771258506620908
0,766320325942543
0,764963034600721
0,764937958037469
0,777142480211245
0,776842720838506
0,77763106004595
0,773289550707118
0,773749446460423
0,783482162084662
0,785536559154034
0,78438203382304
0,818294918118583
0,784802317870805
0,779850414157396
0,790082840594057
0,782083445295032
0,781525969774534
0,817106551523407
0,806652618829742
0,792924815238445
0,788900143302323
0,794014350890694
0,803455363287634
0,806290336587024
0,773797555574961
0,791796464937641
0,780256214744696
0,785067530987603
0,777492269577207
0,787270362370169
0,826446607385217
0,812335114840321
0,790561112867624
0,800788255387024
0,798637052945296
0,78589060737039
0,797504777654476
0,794885318779946
0,801609473097031
0,807934660717285
0,825167576763584
0,816268125183844
0,809329917175207
0,82796361759387
0,82775970379578
0,836129911101397
0,821919935135733
0,802983930140893
0,806163856420335
0,798911658415433
0,820040347010895
0,805274375622774
0,795524596478618
0,789512256052402
0,7793218153728
0,767410884392329
0,808117409061381
0,773275218884343
0,777248646009615
0,76167240828109
0,743288201005068
0,755142092559067
0,743431261251196
0,742304884574929
0,732867597620072
0,733614134034385
0,723740482889025
0,730748348500054
0,720340205380336
0,717160010652521
0,725494984306059
0,724066632562635
0,711125564532468
0,700563004002877
0,707339543272775
0,718506204941231
0,711740767742053
0,699157740563363
0,712860839599489
0,708741896515385
0,727607216601131
0,726396176050049
0,728055908250765
0,71932149941694
0,7119350048958
0,717292514111571
0,69858461005393
0,701108662919998
0,70104267813965
0,707112416926917
0,691284444339318
0,705933500555865
0,696356378555622
0,695332361703001
0,70289423222605
0,711218553801102
0,70229635266441
0,700331733673703
0,705436002545476
0,702680668880551
0,693117280301169
0,704741300498964
0,699622664288812
0,713584218377737
0,705233747447768
0,701239296564997
0,709614719099042
0,705630044407261
0,704130226217905
0,704930186455531
0,709180075703357
0,709313993459121
0,700896340850139
0,701475693654557
0,697014172730982
0,714921162977573
0,70580596546147
0,698916093815797
0,696769308128103
0,693925400762948
0,692244288931284
0,690872906761257
0,688908347660217
0,683193831594411
0,678688336484305
0,679544083378152
0,671637404356698
0,666061030391164
0,65899904392358
0,648947521775482
0,648868654669919
0,652825206881507
0,63761620763611
0,640677407065504
0,63579121141855
0,627986642037672
0,626639768824874
0,628575152985526
0,618365510000848
0,619657142746
0,617699577103115
0,622329608930955
0,616192441772507
0,620659673798948
0,612776229617867
0,610224747473454
0,616284807796161
0,619820000727745
0,615747988930934
0,616075002000534
0,617620226855784
0,619729157611323
0,621645907914349
0,62155083695014
0,633765228011326
0,630662917506875
0,626979765277365
0,63086891285578
0,631978496553429
0,637635308860766
0,637766106256062
0,643293197876022
0,647542932733903
0,644803191245404
0,651133817439923
0,652493026219857
0,654596360317279
0,648138853014572
0,649983682908825
0,654078552218282
0,653161234377072
0,649293228445053
0,651519458717145
0,655182904875985
0,653484683492236
0,654327815772522
0,648097241695805
0,645136720617042
0,646866059185951
0,642449572701751
0,644772643083952
0,64451662605432
0,642398969139842
0,644241126998854
0,636421651055851
0,635310701182675
0,633524148500668
0,63358287129329
0,632919704102131
0,631510544216707
0,627045283385271
0,625220418691891
0,620747095603359
0,622267647812761
0,623634893924961
0,617973474719824
0,613081159998736
0,611571710000234
0,608220164643896
0,610056711422382
0,606705931704834
0,606169851145252
0,607029819099172
0,606088235994538
0,601189639107515
0,597618414983782
0,59265125403173
0,597043153186544
0,596130088313513
0,589735758428084
0,587138264494176
0,581624046860078
0,577681589429913
0,577161194675812
0,572951784510384
0,569013601804893
0,562893346931042
0,557832075436657
0,553325701928471
0,549923055584967
0,549648666478975
0,545650166291164
0,536470253927844
0,534633699794824
0,531934844684047
0,532760043902568
0,533508501022986
0,524748172294902
0,523583635962932
0,524758850953863
0,521888330907376
0,51929004740941
0,515418554026216
0,514276719724266
0,512903392271761
0,506782369523275
0,503910866086621
0,50213032223142
0,493211638391139
0,487590243949438
0,482203164122015
0,480443926178754
0,472250516052908
0,467596889257809
0,46507142049204
0,463400148027618
0,458751343289214
0,46393161377088
0,466236906328695
0,470670072865591
0,475927077037264
0,484002040057345
0,492933020594215
0,50265861159759
0,513949351257847
0,528918023932505
0,548731207862993
0,566635375622472
0,583282696182758
0,60411743776049
0,623782523137117
0,643919872444892
0,665488772456404
0,680777519458484
0,702257100164762
0,721434505910849
0,736002927014342
0,762688980282898
0,779934964099415
0,797780651081013
0,810199696392828
0,830753873360687
0,847712077967888
0,862275997042502
0,879614319289231
0,888613251847262
0,894949530933708
0,911721109573711
0,921613909672569
0,932507889507184
0,944665446080059
0,955801683736697
0,964339294343719
0,959518299565473
0,96952568806937
0,978830075228915
0,962469175769165
0,970456781669199
0,971290828391633
0,970879097466263
0,976847710689053
0,969531290011694
0,968453762743093
0,971915483958189
0,99265405895632
0,979434574009724
0,982791914397685
0,99360492777758
0,993248588271376
0,996292723493337
1,00817682073421
1,01036909426365
1,01790176063854
1,03175132333615
1,02879336646561
1,04413911479162
1,06348812758944
1,0577016555749
1,06416487189409
1,07613948541495
1,10046550442482
1,10607976177593
1,12345016504935
1,14304089554146
1,15025003014896
1,16663709462102
1,17595737497944
1,1971253511763
1,21136676151344
1,219239882456
1,20965686111717
1,20862083233191
1,22035863340715
1,21106656029211
1,22936776099784
1,23892696460225
1,21126372219944
1,21568530484212
1,23637599406257
1,20752977157976
1,20408518642811
1,19885062002796
1,1945774614362
1,20858508715225
1,20619672311991
1,20925279851734
1,24357062141693
1,26729434896199
1,26881292799228
1,2842292497709
1,30711168935113
1,30377309338753
1,32035378245704
1,37161040556479
1,39537281270211
1,38595872615786
1,39737390689557
1,44284037547805
1,44279703442887
1,4858522174178
1,49912966564423
1,48415835908605
1,54579961720568
1,52591748692966
1,5735381149101
1,58991714110274
1,60338034370776
1,63703226415752
1,66281256848803
1,66181627908312
1,71363014620575
1,78610043985876
1,70799395567669
1,72188847243746
1,81669913070539
1,82112128914156
1,91262085968025
1,81165494852242
1,88210888075241
1,93493344335786
1,88520642357674
1,89465157371218
1,97951137363748
1,96061780772677
2,07204737141563
2,04563490220475
2,09116193752031
1,89604316407166
1,99901668198905
1,98028213860745
1,98961473311915
1,98325810169624
1,98561734788606
1,97494367822961
1,92604475774811
1,88456151694753
2,00667163150692
1,95812422420847
2,00048998442716
2,02283221268627
2,1273581102415
2,00988280869865
1,97440347004227
2,06583086743249
2,08880219757115
2,05836244149828
1,99925005073782
1,98910903467974
2,20412245423936
2,07888729081476
2,16298307629158
2,10355963687252
2,09761217178809
2,11675801525708
2,02033689524961
2,04476196739226
2,20877094873142
2,29423425183678
2,40244643278349
2,20600145008014
2,40597788920852
2,28308023713267
2,45043524454937
2,22956023296713
2,19525327261862
2,39983464284462
2,23778629798171
2,36205262866594
2,63550210333466
2,19833323868351
2,38608124470263
2,12832488561152
2,18606356844591
2,28972391097851
2,3192564959464
2,21841798965555
2,0809035141302
2,12659345301344
2,23459770531437
2,1600774450566
2,34962676070885
2,09721333780564
2,08456095925233
2,01667492046871
2,142853858293
2,13564429764112
2,02806942670654
1,87676868876665
1,91148033607967
1,87100882273218
1,81505709080559
1,71605473501017
1,75547595913566
1,69058230860547
1,67977646608985
1,65636122811112
1,63141266273791
1,63569513499076
1,63509796209555
1,55575250918522
1,55926815112412
1,55044515513532
1,55767289522819
1,54097619058352
1,54866759923465
1,53160007090046
1,4711680102228
1,49314483447819
1,49273418414653
1,44313730920669
1,46187185750489
1,47106197715197
1,40670441276264
1,34065312807723
1,3033673104661
1,29668625463217
1,28874796249648
1,23584314261928
1,21993126357286
1,18916205353756
1,12595112648314
1,06419716641415
1,03269579428795
0,989466279798058
0,964431842923734
0,926593441754038
0,894824382621699
0,855098141257821
0,826454659438901
0,802838198586884
0,777432769521112
0,752636928266
0,729808880533539
0,71062168582151
0,690511724473887
0,678547066962087
0,658663563061299
0,651047331349237
0,644094181255717
0,632050372812558
0,628654682738273
0,629143563109931
0,628173135248322
0,619758360821641
0,616311276712832
0,614534773739861
0,617857579645691
0,617076146500894
0,628670689033983
0,630508750462643
0,625989211793601
0,63453549579115
0,633191879410696
0,627570799200563
0,629112408365213
0,624794817672427
0,623043425446454
0,615319484452173
0,61381975084687
0,609251909695249
0,602690328984101
0,597814101485203
0,598631115967508
0,590875721704138
0,588673945701399
0,584410072297578
0,584871022177954
0,581207580704359
0,582201108455047
0,583341683477111
0,584805229587168
0,592695677988137
0,588055209759391
0,597763755402829
0,60068341762466
0,604540368252719
0,601395475269315
0,596290606283432
0,611043029010972
0,613250911206073
0,60441657981822
0,616853721346379
0,617017004856578
0,611470743079723
0,627386822810098
0,61705209639232
0,624686220546738
0,624032922168302
0,615847725465292
0,623036179467702
0,626530143987489
0,624429952013257
0,631709151045011
0,630877704089358
0,624004788689416
0,639974401027447
0,641295743366651
0,642607733863445
0,656231887479731
0,665900493411004
0,672113260042993
0,686298138262872
0,705564443058984
0,717798127055523
0,733581558485809
0,753284835122439
0,782018307072711
0,796978404735796
0,807338690075835
0,80928713764791
0,81081982247703
0,803393938202275
0,803155479907382
0,810310809549088
0,79980902585988
0,786199293607299
0,787454072877888
0,778531641255767
0,765954297195013
0,755412322528109
0,755078177867584
0,743702873119641
0,729283695258358
0,729409860456265
0,732997637899704
0,742624967365601
0,743521707410171
0,743291615026442
0,750225354261859
0,747260339736537
0,756150879357903
0,741756224606165
0,736421419519657
0,731390480023561
0,728240535812034
0,727149939722765
0,717757230893827
0,712809320608601
0,716489254247158
0,713801157936273
0,693203079307309
0,702957924607729
0,692610868383381
0,677853505838939
0,696526619708386
0,685514237086253
0,673373686101515
0,68233123282625
0,693101374110656
0,67050673688951
0,663622919638486
0,675907495428004
0,675895250868451
0,663591910863075
0,653563228073158
0,659377747665061
0,649151029949862
0,64873654326167
0,643102582816017
0,638763715769912
0,641925680706129
0,64289451943156
0,634251627006984
0,635591558145536
0,63651027961216
0,634595885114277
0,616756149303676
0,62281934275129
0,635145597596533
0,624042857038703
0,62430928029171
0,628352576453144
0,626906170643205
0,615936999930242
0,639350913044538
0,630083653410595
0,588053757411793
0,608040482003494
0,626005600496255
0,603475053950091
0,615017577736184
0,62456032841902
0,600004401240981
0,613526105058023
0,618927042135646
0,619465026744993
0,637424598566852
0,63178016145578
0,624145961842668
0,622823212273749
0,62564131315171
0,618900037090547
0,619874092368262
0,643484493918685
0,638651439943521
0,63416335170715
0,625730524012059
0,63690027517517
0,658988966259366
0,678160053595125
0,650196971159583
0,649433303194609
0,670910226912449
0,677251260442245
0,684459961840821
0,706921558762503
0,700068251403145
0,70447167849127
0,70850884167685
0,733109886807568
0,755479703525338
0,742620937938715
0,752060139320063
0,784222948769014
0,81489393537637
0,802548762020978
0,810859559694291
0,856559907163541
0,824716716828063
0,85054062220081
0,868862026303357
0,925613047221488
0,94809913441608
0,937106766507568
1,01677627150279
1,0326464397253
1,0147651167983
1,00005296141467
1,0337372984725
1,02192571140174
0,976662485008296
0,961756740716569
0,96645523087894
1,07033562249228
1,00626926343765
1,00332987028742
1,05945943865092
1,01421828914251
0,961754979460559
1,03355763695974
1,02922398987783
1,02478948592572
0,981596579573732
1,0015494509276
0,985814250984603
0,967409815441944
0,954172517375981
0,988027136488215
0,947202307449964
0,928912121319517
0,931620737887242
0,895131139261327
0,935920646932437
0,927472821229684
0,895646183635419
0,904173785316652
0,922927717004852
0,972800330263684
0,915973045012418
0,997124541491475
0,895278239713375
0,923848297714461
0,852599152972416
0,897396685553872
0,902802635322657
0,895868258624524
0,965608881551518
0,898852103252198
0,884112042127692
0,985276736417113
0,867271940323663
0,914348166681699
0,937904336379554
0,946012262896354
0,907117013694773
0,943232759301231
0,989145157981659
0,928959820972174
0,891843739645945
0,902450003720598
0,899370468448818
0,981680114559273
0,90587163873777
0,906013049391852
0,986779067475106
0,95618374851313
0,837582302990881
0,91159556138616
0,981723833767185
0,938513679582529
0,866359810349496
1,0422049876891
1,02869517382402
1,06054937062879
1,01432212575513
0,945448221484852
1,05186499858327
1,09247396306288
1,03200289832248
1,04754713272317
0,971442910096047
1,10246831980489
1,03827158391603
1,29926984564638
1,0603590023795
1,28024896601669
1,13690241674913
1,22831402439044
1,13291992918794
1,08291420896007
1,12393327328631
1,22657154778327
1,14062920460336
1,25939788036611
1,20499127993448
1,21244871054793
1,18493425842536
1,60171945005831
1,26811738059861
1,32216611808718
1,2121407592152
1,17713552865467
1,03745495638997
1,40139615072844
1,19444266724471
1,28785673599611
1,20937182874597
1,19185441470719
1,05599948864329
1,21385451678115
1,19978299421081
1,12239733485788
0,951570909929401
1,079846173794
0,984069784412752
1,10777832253511
1,10780743110291
1,39234043544295
1,25279858480075
1,30332241670169
1,13209287404117
1,69235096387615
0,995986658328114
1,12055037758376
2,06952370776414
5
1,34600157878968
0,932984627668356
0,760752279374553
1,32236250401934
1,35980417315772
5
5
5
1,34743226277629
0,887905703157277
1,01572348654533
5
1,47343311008545
1,01277510708476
5
5
1,11968516455082
0,834085997001004
5
1,86662817471361
0,673211855048148
0,928839899121504
0,873300132384522
5
5
5
