3596
4000,36533379555
650,420452594757
1
2
2
0,0291668261688661
0,0235429763725865
0,0298745414580218
0,020662070046928
0,0266726397572655
0,0231613753341832
0,0358606357474836
0,0200163328813819
0,0308470091035295
0,0208183639656106
0,0304552881290549
0,0274415260676633
0,0275352127922688
0,0241795400193474
0,0284764917128331
0,0203794298362494
0,023835040796209
0,0194908206208364
0,0267658071001568
0,0209046761521857
0,0276755332462465
0,0262212320519503
0,0241343083509208
0,0207081854671796
0,0342816873022739
0,0179200383218727
0,0246387673649194
0,0244885163489747
0,0242604819313205
0,0219152685777698
0,0289903944719847
0,0179491206532326
0,0267534955106801
0,0161218989055241
0,0249436424901583
0,0262778670785467
0,0299687101261305
0,0229698747378443
0,0231403227093787
0,0231536401830055
0,0276023191425058
0,0208859824717419
0,0301127231101172
0,0239214229906846
0,0273278220439674
0,0202897945467642
0,0291803263501194
0,0171933761001019
0,0191646743453063
0,0247295817807284
0,0275273060077001
0,0144061376124698
0,0303250544596797
0,0125423004583854
0,0285379995796899
0,0258559952451009
0,0295277146587062
0,0231353028166662
0,022773375223948
0,0123886089007946
0,0298526566302072
0,0175539748378793
0,0313936808145245
0,0240721408073373
0,0275018823113636
0,029911519095827
0,0248843896479839
0,0186308543132752
0,0234127429625885
0,0182327337278368
0,0139728711646207
0,0172632319042927
0,0241333790898665
0,0193705672628052
0,0269833460500987
0,0230311220757775
0,0326206104523648
0,02664359088229
0,0272030466980194
0,0260774202144385
0,0245537714267828
0,0304290682889728
0,0232613894318172
0,0208064883836216
0,0255777343327454
0,0268345916160503
0,0177144185775189
0,0141421664033317
0,0236711804163179
0,0271889524598696
0,0233123860304866
0,0225768196996676
0,0302481594319579
0,0212651393850413
0,0179893121778437
0,013563973602306
0,0218522100795933
0,0255546143540416
0,0091395247533149
0,0230534818118366
0,0091378510420681
0,0198738716814716
0,0354962764838246
-0,00319179245951147
0,0589021650235463
0,00378783741744479
0,0218479890513028
0,0174141700857161
0,0255958312672581
0,0159248773811611
0,0243391297330345
0,0166017717067647
0,0217922045566954
0,0241395724458346
0,00881498625001932
0,0284362687390546
0,024904639968427
0,0206529357503638
0,0219371739442165
0,0219972881255741
-0,00378590183993612
0,0370042242767525
0,0298461405383198
0,0186398146518225
0,0335988041879573
0,0217462317936398
0,0127127586584469
0,0297542098909815
0,027338114032306
0,0218800332296378
0,0230486006394443
0,021402104861026
0,00740602538696499
0,00364212533209852
0,0350401846004003
0,01226871959166
0,0249692171387643
0,000212448822345972
0,0244866440069546
0,030139618832781
0,0333504801993434
0,0221662921705343
0,0112066471798855
0,0104732680959407
0,0329633046499163
0,0184167166614185
0,00583371402674843
0,0257800048297445
0,0205901908195411
0,021542884390071
0,0225629419191545
0,0163856713447139
0,0309718835507646
0,0174827570782123
-0,0149761159258306
0,0394132852657836
0,0219853927191908
0,0101361592682308
0,0484748783213861
0,0104220289938855
0,0374830525228132
0,0180281532938141
0,0249832900781629
0,0112583235521623
0,0335749134445588
0,00533803744954519
0,027640074806843
0,0254850850804516
0,0224132497089133
0,00262974917539299
0,0260881116377175
0,0116048993509783
0,00761732555675252
0,0441544894019068
0,0207495212949761
0,0140842973544841
0,0237487949972502
0,0300792814501799
0,014716635690091
0,0195919404916127
0,0293175096687963
0,0153364973468629
0,0284965885310736
0,0139690423074577
0,0137126890461157
0,0277450212582928
0,0212156149240335
0,0145207995006731
0,0221602257346729
0,00716949586906122
0,0164141557418076
0,0250397899667644
0,0284634099636751
0,0180168526266274
0,0242867695250398
-0,00651555936938688
0,0491755791080025
0,0197211903703303
0,0296739532494027
0,0165147155033899
0,0201362492837309
0,0255506926606645
0,0157389443666593
0,0165610552099651
0,0176475894284465
-0,00859452727104117
0,0373254965747522
0,0160098253657363
0,0281825310400621
0,00941584129258822
0,0238611072543187
-0,00746484518630844
0,0419828938086052
0,019313805232519
0,0311219048385327
0,0184537644528405
0,012523218013295
0,0144715903579747
0,0342241117098139
0,0219605090038516
0,0289310132104509
0,0172522139241222
0,021637101021102
0,0114209515168845
0,0241931131129164
0,0119199334083101
0,0222879043911049
0,0217404931415753
0,027192668766637
0,0140153117976433
0,0278639076450492
0,0150021194618913
0,0218238757297273
0,0210569618493592
0,00777477695872951
0,0240135724689156
0,0322853818431378
0,0188950981414246
0,0244505297294113
0,0210077030216086
0,0312582356565101
0,0231591660638778
0,0224028309969469
0,0170243212446955
0,0234118328847401
0,00741851206303222
0,0297457647435418
0,0142038465676031
0,0347055110130883
0,0036464563295741
0,0425214791187482
0,011761377494821
0,0387724346768608
0,0121124886397813
0,0349702546640612
0,00833128583140644
0,0272716186211287
0,0210081133903966
0,0400138621322661
0,007422285610941
0,0350466005259866
0,00512102957844027
0,0302244778655386
0,00531503019783569
0,00627126840935541
0,038286428429457
0,0138952010353866
0,0169126016962539
0,0592655190706904
0,0158487953388751
0,0515869207430403
0,00485567437202749
0,00896534228204014
0,0477685181147857
0,0440309907247134
0,0204698768468527
0,021721789691864
0,026255741162342
0,0179586757535837
0,0232878432862515
0,0120448852764922
0,0279523010283651
0,017141654369846
0,0355585730541724
0,0512685531079182
-0,00263699734582384
0,0447452741036301
0,0189068346066314
0,0394786833225358
0,0173849048026111
0,0350100913008116
0,0110495134016581
0,0433912696434396
0,0183208083033194
0,0445039536281886
0,0174636523170355
0,0265789280162635
0,0295430395675008
0,0356551977171272
0,0205588240965957
0,034208678477146
0,0265631975667104
0,0299164626347742
0,0274802507670641
0,027709819682557
0,0310529800745325
0,0244661592945883
0,0190962980911512
0,0479902590575184
0,0182411186385007
0,0369589746601885
0,0291877976183727
0,0355601922792778
0,0230219365165856
0,0279309630960523
0,0193979585352717
0,0332653651981653
0,0254911336472699
0,0189040001324752
0,0370894624100694
0,0276458769179324
0,0277654954378986
0,0289001906655971
0,0320812814618765
0,0282282111049909
0,0308668900595416
0,0388112400111319
0,0288983994844205
0,0303992968696521
0,0216260755384482
0,050153147218467
0,0357220090805081
0,0149862786618604
0,0531417263292687
0,036511961108153
0,0390956753475004
0,0332248222442948
0,0319412927208867
0,0361629801472786
0,031203162726925
0,0407483805789894
0,0336446860118539
0,0385987798032732
0,0434655781313648
0,0407472860281501
0,0336952751006305
0,0358823719522127
0,044517816406182
0,0591580164858557
0,0433809858422933
0,0495048477675307
0,018115877815595
0,0807671271067679
0,0285272588824084
0,0692729199712209
0,0493335731435821
0,0542676386947772
0,0505523444334054
0,0491057857130726
0,046955355179949
0,0529556210001601
0,0556835147369755
0,0540099730334199
0,0505175883645785
0,0522391648335831
0,0612510875380357
0,0493203855664156
0,0560235460905977
0,0768098865615926
0,0619273296852804
0,0674574185466483
0,057911167157791
0,0568734503226212
0,0781557638230431
0,0560994113325839
0,0981574380079514
0,0575152981850455
0,0833422251914683
0,0795472560110071
0,0720251508595203
0,0815083377914464
0,0686856891605252
0,0827265261872117
0,0766095758779162
0,0900319602240777
0,0796055373836461
0,0866515110665365
0,0880270043105454
0,0935821986398921
0,086434641945906
0,0879098716361058
0,0832265803355215
0,103014218040208
0,0927469220851769
0,108429365623458
0,0874200887826125
0,113170379105631
0,0815430381055737
0,127147933757285
0,0906275481240999
0,124440891492049
0,100427492006154
0,119202695087141
0,10572412584586
0,12338218680685
0,105713195143296
0,1218128327222
0,130745531449224
0,125893354585187
0,134556774337578
0,12759073166366
0,11348476145475
0,147838189779157
0,121926289243167
0,150751383683929
0,143993616503072
0,148804507197447
0,126215843648937
0,176701023799176
0,131755411280515
0,162601936140725
0,14509530589694
0,157296242132269
0,154236759243204
0,169880378497774
0,153990274225685
0,157532218496302
0,159878845481294
0,172814440987867
0,169260611532831
0,17675044941016
0,166233973119377
0,175035083847232
0,172197229426565
0,178572503574064
0,185919434388668
0,193040055364245
0,178725226087513
0,198772287566497
0,188575324447303
0,230276303707306
0,19708291706551
0,224024889543737
0,192152629947029
0,212592467004134
0,189229049218389
0,208492791963063
0,20443969702189
0,21523980500471
0,211047112979535
0,237237720870297
0,214664279758419
0,236911028198742
0,229656862778735
0,235079910016326
0,227421367137345
0,243259464268972
0,245235880653051
0,251651068690378
0,232820115319984
0,254967687627409
0,249730222191538
0,290596407231993
0,262803433212364
0,298019363450191
0,251359554854231
0,283296535031108
0,265254535171403
0,275633265881679
0,274681282759663
0,286187818382694
0,276047226077128
0,303089070855437
0,285789467214949
0,300780571119741
0,295106074385862
0,323484066132099
0,301733237266887
0,325398800698553
0,319765884434773
0,330963993834434
0,310845305906639
0,328035734226433
0,308878713978451
0,344812975807572
0,315527307488524
0,352676351148808
0,332593219126436
0,350944047792861
0,339802361823318
0,361157328440096
0,337865628692663
0,369657012340825
0,364519824079131
0,388659311988247
0,3607889707105
0,394025348345713
0,376862181789679
0,382992982024845
0,378640864240665
0,41313318180698
0,394131277732286
0,423887898558356
0,386119207721356
0,415079620709775
0,397575797205802
0,426094346870324
0,391383397614408
0,434768654747175
0,389320007238007
0,4259438817991
0,432411254138492
0,42776044469141
0,405446431970667
0,460132738483778
0,447165575914087
0,473155177944601
0,45096979150752
0,486776974204456
0,456059801232937
0,462072375406819
0,456565913518776
0,492500656137102
0,475290751362539
0,499236089974554
0,473429570514504
0,509037776885419
0,492028805930981
0,507573532314005
0,49053979059653
0,540848486969963
0,501843120365089
0,537855147788187
0,503738921201931
0,537305014555535
0,518769336933646
0,53821407406056
0,557290600387943
0,572638794505162
0,552566918746105
0,58318945135103
0,538185260232569
0,580797141755537
0,546184934937875
0,61069034250666
0,576017705050918
0,594562921009586
0,55421666772001
0,601968315588058
0,567895516144384
0,593739124563544
0,58631106448044
0,602557078099458
0,57488524523522
0,633523669081281
0,585480901090798
0,639937760093836
0,607160019067875
0,662689094463957
0,608084877862286
0,675300581037517
0,632970639704844
0,686867184480837
0,644418316483556
0,65550236999788
0,612376302471948
0,672563847792743
0,650321466550696
0,655794574871834
0,657107168925863
0,696318110399603
0,674206106569171
0,71568218966477
0,68539867046779
0,747218065135476
0,675615551320345
0,704102642295223
0,732819012929663
0,728159795328879
0,677351305852273
0,792395965603769
0,693643102096756
0,760366402569259
0,685275109679474
0,757857350282687
0,721362144979812
0,773192120584113
0,719950296903249
0,823553769239231
0,728043814335473
0,778406835399028
0,730001258550297
0,797667584779961
0,783911301245513
0,814484564863338
0,773699233044569
0,81649418741625
0,766031236984324
0,808597657491607
0,767697069501414
0,790986472130955
0,780686324643232
0,798673170773578
0,770426459434845
0,819869384037931
0,796668591903988
0,825134215455055
0,786940449423906
0,881083288214604
0,803022273616192
0,850094189371823
0,858663035773731
0,852683439660012
0,869559006936577
0,875645002582045
0,826594909995903
0,874521604953201
0,855689540056318
0,893781609083383
0,84919887522437
0,890558490711222
0,849195426087433
0,885593941698837
0,877239095108575
0,921558610894945
0,835606906235189
0,914556119065196
0,865819548732655
0,921719924301264
0,874910996074399
0,890801686798148
0,895838692975151
0,93671758807807
0,866478672130407
0,984881241347004
0,884465706028477
0,953669501315021
0,959544161349393
0,967616750491803
0,883874052088993
0,936683698753542
0,848282699017435
1,00669462309293
0,873206045138749
1,01653890178461
0,905094600622999
1,04850274545314
0,934645263805851
0,993006355381499
0,972815748772473
1,00218401427297
0,914194119107243
0,968748445454153
0,932920580231584
0,973453722841374
0,992234649670366
1,03529898260631
0,967156066188555
1,00202147659042
0,984780518379081
1,05731094255443
0,958953426604387
1,00253340176599
0,934077871847939
1,03422585186785
0,98173135402875
1,00823098386909
1,0275010561265
1,10309791458256
0,991449034420458
1,01970867745321
0,980017685597776
1,05787718837474
0,985117757817156
1,078559302384
1,00625791835448
1,04594565490732
1,00173068911244
1,0943669688902
1,04176910502734
1,0244514447862
1,04024302302519
1,11427218232136
0,986585625357184
1,08149402761539
1,01127603569991
1,08764114889069
1,06190255416266
1,12800286635325
1,03588768008565
1,09997116389553
1,0680688064519
1,13809689700464
1,06558082496101
1,03338275329214
1,02622218187514
1,07456738478426
1,02681918164547
1,1547785365483
1,02445352423112
1,10664834834407
1,03653074188727
1,07606144319596
1,04589786547254
1,07291966304118
1,04311276633459
1,15277731383757
1,05033179343821
1,06125051677068
1,0920874030894
1,11028640795815
1,0625303513773
1,20231727675852
1,05811156589326
1,12341361438103
1,10045740130503
1,08605816250722
1,0392464859063
1,12281174246876
1,05282351691769
1,10167200658918
1,00387017397864
1,12767391818962
1,01689862498865
1,19874092875949
1,08571711341665
1,14090544491056
1,04970585644235
1,09654415923308
1,0558229695557
1,18665027621693
1,06669501540875
1,13110286535213
1,01897689656673
1,17934032163091
1,08211223379491
1,09670260612832
1,03774365605677
1,11235216379545
1,06833805329808
1,19243376014208
1,08989676022895
1,1138984763041
1,08042571997212
1,08770658957455
1,05384077790531
1,1030187509925
1,08653441311656
1,1451802421269
1,09853492946178
1,11782693357411
1,03800668154955
1,11501510752204
1,05387194761596
1,10644739989577
1,08239194189542
1,1186396720594
1,06408226645513
1,10759019204735
1,04141580376578
1,16479537396811
1,07143033105283
1,11830710811662
1,09321001821696
1,06551188264444
1,05124437279326
1,11217578283721
1,08140434006948
1,10377228061881
1,0824963711914
1,08328987164612
1,02243557054333
1,0911022273256
1,04843146620676
1,06025745195715
1,11277510477417
1,10472646798378
1,0223815524786
1,11990512391974
1,06254434008214
1,08085547272522
1,0233076264814
1,1139886324144
1,06490110367609
1,12360723371849
1,07955612137335
1,06860784410864
1,01816528670251
1,11451313006083
1,04022932331729
1,06892397867821
1,04156753506453
1,08353120076327
1,001335819644
1,05745023985785
1,03469273875881
1,04339035654311
1,0379779691979
1,0709639138216
1,03103442270424
1,06298472864448
1,01205514377399
1,05175376698155
1,08034924499053
1,02776905907468
1,02082624934656
1,03294536536102
1,03637603669239
1,05758221815639
0,985252379520108
1,06030644286801
0,973136308557964
1,05595213773271
1,02846003097467
1,05785294742991
1,05295967848158
1,06567605319798
0,953851739177958
1,03415556917568
0,97699168619708
1,01412925679908
1,00541210126879
1,03490440662529
0,977992778298153
1,02576963133985
0,978464988307407
1,0233555068572
0,980264097906828
1,0420099876508
0,961836466335842
0,975492413957941
0,949807883795918
1,01239232514835
0,961699301269697
0,975904627325512
0,947946283921407
0,960909529283248
0,954431715793774
0,98654121555066
0,951160417473558
0,923944419571414
0,942143511123442
0,961439471914496
0,946103321478339
0,946633283329846
0,931764588007296
0,989379066232278
0,941707003368538
0,969380338834305
0,905110278889354
0,982365659233867
0,913789905585103
0,946720384409042
0,892903806521236
0,91322070474995
0,884505616980096
0,896024424187116
0,901237615526916
0,91535871701877
0,881150957124082
0,930759258599881
0,873988175636157
0,912105419025164
0,891469046527602
0,883867522492497
0,880509596316847
0,892341710846518
0,889892360131956
0,893264342438328
0,844936902359585
0,86200015070502
0,866171000041761
0,870984428313601
0,851668160752484
0,87410696190382
0,822441193468562
0,852396490902318
0,825720481331477
0,84194022401156
0,825377910589836
0,840270535872099
0,836423018779832
0,841413677549682
0,81666488043002
0,835414295516217
0,818856987315687
0,838310678057094
0,814004941407592
0,818435797823177
0,800029870160368
0,827677486164869
0,782251103785666
0,794201002980361
0,785092241277869
0,810125928660017
0,779786327756531
0,785044426320628
0,777392304910393
0,797883387385165
0,769820945867859
0,775656306303539
0,758953190215592
0,79036135486618
0,762477086688682
0,763106961226907
0,763485072573539
0,742446760740495
0,720883913740035
0,73012854365971
0,732948303559368
0,762055895397894
0,721772338510384
0,73733381001538
0,712376814800026
0,739932501498959
0,702538114082058
0,726563297149704
0,701314261596436
0,714881157463922
0,69179153944922
0,708127388279534
0,681522277907054
0,690348893962272
0,685371943903273
0,686991572624098
0,666510298941819
0,69434575792181
0,666396222193169
0,691327489877757
0,664122763385261
0,682712396544009
0,66636463341257
0,654299972580191
0,638523300625142
0,668917398321258
0,638951621432033
0,653916487075739
0,654276720391471
0,651471928194382
0,619585865684054
0,621540020804472
0,62681442489488
0,635235145800638
0,6174365228521
0,616799040804807
0,619399358752341
0,617140228084474
0,605369275631771
0,625255330662519
0,593880820695557
0,607894681705786
0,598273610084239
0,608485200605091
0,586759195735176
0,596809068315682
0,575526871210784
0,597783336969212
0,581683536735977
0,588967769833975
0,565036766888361
0,574376024268204
0,565791349547478
0,571228236367243
0,55685636826051
0,567245057612022
0,549745468207105
0,568994627733354
0,551642504219072
0,540573083405214
0,532607430418617
0,549699387363009
0,526958848270247
0,550950877697306
0,523075084278872
0,523319590367527
0,511269975432919
0,53885367958871
0,517328387184261
0,521472081142843
0,50744273150088
0,522828018710942
0,508349141952044
0,511646310471968
0,499912017026428
0,501697339622943
0,511053937631369
0,502631653695055
0,493975753131592
0,497927622622248
0,49749455481025
0,492940254560457
0,488969978842764
0,489265318053195
0,472930162962022
0,486254598054348
0,468442034661221
0,47377982802127
0,46650733444903
0,469087367625662
0,459538767334473
0,471355229252435
0,453417593177677
0,473185354954522
0,449387192134307
0,456617460283033
0,448348212649287
0,456061384294763
0,443893275476412
0,452118053248258
0,438653244053583
0,435494329385125
0,43651175387615
0,443435726041372
0,426028152802118
0,429882484964353
0,427863608989072
0,429357795684186
0,41939008302206
0,415809793344029
0,413508244467811
0,427828520095496
0,406890198238881
0,419767056900755
0,410146204844238
0,411143018662753
0,401542417014867
0,416356863557075
0,398992383787203
0,409493545369229
0,395802704799024
0,399987232528666
0,385703800727385
0,396468248053563
0,39199938248034
0,391310412614671
0,381079689861025
0,389667375545354
0,381694537741328
0,379074732056097
0,377927532445639
0,381787759358774
0,377890569843188
0,383554596224825
0,372510608548152
0,368898835628647
0,363151543448717
0,368290366023122
0,362203449116257
0,368835806478316
0,35075805457317
0,359161546449002
0,355143801375048
0,357956749677755
0,346323445217246
0,357635179292332
0,350793757762211
0,355557484561851
0,34173826350144
0,342512586024575
0,343672485503824
0,340969105743295
0,338653863235139
0,345142781650864
0,341028809228527
0,334978386758062
0,336525609975658
0,34272750603435
0,328248138757698
0,338367510054266
0,333798590485603
0,336511339833963
0,318830645102237
0,33017812123384
0,322029573912443
0,32831023353833
0,321934273683166
0,328390083960621
0,317554000591425
0,326271425793643
0,320971404539729
0,327837776424205
0,322032990856796
0,3295739240283
0,318322244857001
0,330626328311683
0,325360954335445
0,325086273012709
0,32013953130187
0,330330339917671
0,32987718183225
0,330774909533814
0,327425698612277
0,328208161737072
0,323156589781614
0,334908741547627
0,330015376535937
0,335806567659579
0,335807527818038
0,343213064333044
0,32647969685254
0,336099190604035
0,333745699935579
0,343343628851911
0,339441846230055
0,348826245702534
0,345510455314862
0,344470888434951
0,348868895063481
0,351957681433548
0,346080812692935
0,355707741017285
0,350534367576348
0,364046099279179
0,36101545284681
0,363215126550196
0,357966369306657
0,367638807791389
0,357580610613413
0,367423682397927
0,360792534041757
0,371026398910825
0,367822993826326
0,379010571548122
0,378560817389939
0,388895221391029
0,389933295152599
0,393553623803652
0,38526215718553
0,396799499466362
0,390072135641028
0,400901255637995
0,39951443044683
0,407581182714772
0,405905082695233
0,420459321860386
0,408000948271874
0,411515470580992
0,417156234975797
0,430943624097216
0,421385190547325
0,426655847702762
0,433993042420818
0,435286589682404
0,427553221395852
0,444003504755663
0,434754826976855
0,439645082975542
0,438550996119966
0,442496593975806
0,434534408003909
0,449234625790885
0,445405610245997
0,452137942953332
0,439273100872915
0,444770948640372
0,447168729784599
0,447398075296619
0,444411813321207
0,451901414529932
0,441775842757057
0,452933608275285
0,445037910172015
0,444060688168914
0,443397587738307
0,449062461312583
0,449862629082952
0,449288385409807
0,440282440552459
0,45468697908488
0,437027379063008
0,44692628976929
0,444390764408313
0,445604617861204
0,439059287777458
0,449430221437233
0,439029964099459
0,4494384880175
0,43528044304415
0,448069999528359
0,440352672022023
0,454028422602921
0,444703271273181
0,451460148684855
0,442723610293963
0,454516285461201
0,441969621308575
0,459022238049291
0,435763207878136
0,448721762166776
0,447860929736968
0,453190845826869
0,444560215052897
0,453544421372625
0,442559827883925
0,452742539853065
0,449877745256258
0,452580811322795
0,437070349447721
0,451559271454221
0,445088037231024
0,450213247241656
0,442772881588206
0,452668847286702
0,440100380668708
0,443663062605757
0,440827972381345
0,44430069103509
0,443036444701416
0,444462540774232
0,421846177861903
0,431965438016302
0,427776739575094
0,429051065706575
0,418299090469198
0,430327798423834
0,416932909629552
0,430083791443876
0,413455420280313
0,412976044229065
0,410401343071202
0,409438330820924
0,405567353596681
0,40173045956464
0,396384775125885
0,403344537653781
0,387052007679678
0,396736333885749
0,385339387598711
0,392371079510146
0,381816782006678
0,380542045151425
0,373054816761233
0,377216458317485
0,363767492238821
0,371912879233028
0,362414540621541
0,360172718994877
0,353334992250599
0,354664751743792
0,35172514850504
0,353873612788311
0,343276767079627
0,343952357931141
0,344649461704397
0,352088576857795
0,336567605775152
0,336646121768466
0,33543344366537
0,333397630501694
0,324893697263759
0,330889214933174
0,329875764963515
0,326885330342413
0,319148638134404
0,321988601463171
0,314282659139631
0,322630700793594
0,312325948175499
0,317487760183739
0,313408923817837
0,31228129804563
0,307907795890501
0,310113796201851
0,300963064853716
0,305908764414125
0,303074201687719
0,307227672866388
0,302752841644546
0,302516481123138
0,302268942367628
0,294593762617688
0,299278235231888
0,296514344621141
0,290834478605379
0,297891038060913
0,28850454639586
0,28741981621179
0,285132304034239
0,289239635378458
0,285698397212183
0,289912777938912
0,277889208864604
0,279829130346493
0,282533829972176
0,275195728989325
0,279152854945057
0,278075731104117
0,267892364549968
0,27788488403272
0,268372608313995
0,266959911236713
0,265503923833869
0,274134887479277
0,266605039452323
0,275233225927645
0,263838617699649
0,26754452671182
0,263653896207173
0,266120461306393
0,26275686728502
0,261293774878367
0,259017640619537
0,267138799717316
0,254713668749787
0,259489896771075
0,258545523905556
0,258173360662268
0,252661732687077
0,253505874663942
0,251471242695219
0,25561769307392
0,250649643914381
0,251474124491272
0,24882989716765
0,255521417748785
0,249512494525779
0,25324051885057
0,24445724858915
0,251326828831076
0,240100876384923
0,248115332345238
0,238554322783644
0,243631505831262
0,247344693305736
0,251550099854496
0,239390685222507
0,240542497457594
0,236043800012698
0,241880269892834
0,235081038191909
0,241834468263262
0,237978344620591
0,241007598470481
0,234131278762733
0,234629839192419
0,233261259528796
0,239385146614657
0,236844225728959
0,237469555236376
0,226884662941805
0,234498338560766
0,23127522980155
0,229137330198673
0,227726875943453
0,236305100098449
0,22948966442687
0,234271126963051
0,225207946273257
0,234287681298945
0,227256586727182
0,22595837662179
0,22895791803832
0,228056455155979
0,225771530047007
0,229105137365806
0,223032491478832
0,234088788901668
0,224586433694185
0,227353857702433
0,223147577699258
0,227136653791009
0,222591217951701
0,228908283857064
0,224024454315679
0,224204375400361
0,223785999322871
0,222778011324563
0,221040523986875
0,224642442526836
0,216379306937873
0,219495988024772
0,217713229952738
0,225193660795797
0,218289683709545
0,220440336307424
0,221699791627404
0,22143102181078
0,217408634864391
0,220258659562182
0,217370059627764
0,216211382589238
0,219974771915998
0,21685165951729
0,214563075907071
0,216560074064191
0,211053296490929
0,219899315851477
0,213732870267859
0,211559530692978
0,21543450946043
0,216573963597865
0,211538826362496
0,214829411329524
0,209749370998304
0,2168197043266
0,209553718745869
0,211536243887854
0,202892583332563
0,211943752061605
0,204784196900565
0,207379955960478
0,203214067286316
0,203984681868355
0,199217939060669
0,20593224270662
0,204374139787777
0,204356445446637
0,197380637057734
0,201386242336537
0,199467998634288
0,201009658483568
0,199031700062868
0,20374844856664
0,197624455993094
0,197511400250489
0,19913518635631
0,199400401761545
0,19257509795419
0,196585741456922
0,192472827614489
0,190437469318759
0,192519473389368
0,194480044255217
0,192582248705748
0,193175510734473
0,188271853822135
0,190749334743622
0,184584293299936
0,18954701120686
0,190540672181212
0,185840973536103
0,183586661370117
0,186813458813228
0,184243503237252
0,186327655920769
0,183059747275755
0,182114595280309
0,181980470932292
0,184719346750672
0,175452339007663
0,18346337303478
0,178094701991595
0,179029608666453
0,174172554943732
0,175287572830226
0,175131694816839
0,17620993296284
0,171897567525297
0,174193294942782
0,169317437559093
0,17258091684219
0,169856266743043
0,169874740027203
0,168938361258592
0,17218759130882
0,1653473317178
0,166632176580482
0,16424028377335
0,163742856687593
0,164101161487908
0,167892199302141
0,163050646326321
0,16194522752282
0,161642972339781
0,159910064289709
0,154208303685764
0,162120366350242
0,15529781903491
0,158079713054752
0,153140205675379
0,159793566987936
0,15423665151583
0,153581417291062
0,15446567975531
0,155173472991545
0,1526703694806
0,151267670759687
0,146849383642392
0,152417175559828
0,149453338875503
0,153792822998078
0,146005031733891
0,148817617062601
0,145125195705897
0,146231519586193
0,148035940232627
0,145201411649223
0,14309398607248
0,146997237434034
0,141391485026379
0,141333147069649
0,144130683337317
0,146591992860078
0,139741533557179
0,145517936532771
0,137734826080829
0,141172102904984
0,140876001176488
0,142592151339468
0,137909046670882
0,141800511515742
0,139115489583419
0,138063332345163
0,137008967256993
0,138630010317721
0,134645793676417
0,135769374047226
0,136117029543689
0,135596239339313
0,134496129776576
0,134452980224009
0,131496320938922
0,132217150306803
0,128679718280218
0,134917641609191
0,131098519279555
0,132234965959269
0,129858726832875
0,132278378644003
0,128912553677273
0,131524857719734
0,12674879218567
0,127695471510292
0,128295840633291
0,129498656747447
0,127177937417597
0,128356151170268
0,122984044288191
0,128458305629045
0,123330331961534
0,127644016961772
0,128254631129528
0,123744242812457
0,123046912145585
0,126338228886458
0,122800104117374
0,127602273384865
0,120767277894607
0,120859672904977
0,120406693082809
0,126951254688957
0,121695145914206
0,122479802344559
0,12204910817815
0,121393504467639
0,120128030630504
0,122688749999253
0,118576502217287
0,123559436307038
0,117037563653525
0,119969558739947
0,116516208179278
0,121018936115186
0,12044100965049
0,122460289574885
0,115797336904123
0,116127538758426
0,115972367135158
0,116784448043007
0,117536122908804
0,119467653524972
0,117217799446891
0,117434749830474
0,115280007627896
0,115693681823604
0,116035134955093
0,1167766171817
0,115761250225203
0,117054885855017
0,114931047472121
0,114415592671982
0,113724817971269
0,113004610327958
0,110556886610885
0,114593141824149
0,114713179703303
0,1152968372843
0,110078359438062
0,112976057952042
0,10813302704186
0,110618635948633
0,107338138234574
0,109916394427748
0,110023650264293
0,111489324632268
0,109704373627466
0,106869409090096
0,110846013951593
0,110574978111467
0,107793442932858
0,109100046625748
0,10776225884872
0,108769755608984
0,109403333003923
0,111660967031894
0,106267842027584
0,107492066591812
0,106283019102025
0,108016565860203
0,105589847812282
0,104331215481626
0,106332511749395
0,109480256992444
0,102317608786671
0,105876407895175
0,10346447424346
0,103970399045403
0,105020311531221
0,104217281752685
0,10016674544714
0,103845241563802
0,102560226079175
0,105174538971253
0,10326945162925
0,103510715838352
0,100138408772796
0,10190145217523
0,100261781454412
0,101916468987269
0,0999013484174525
0,100087846143184
0,102465593793103
0,100078743182789
0,0995567751280572
0,098674386456688
0,0992674377804339
0,0982917470475485
0,0975982992878721
0,0969395928873028
0,0956847874466639
0,097296995213362
0,0955719545852588
0,096747312488946
0,0928145545628194
0,0960963003409431
0,0945651102456991
0,0925106972245349
0,0920021657052342
0,0933919971874925
0,0910509325040689
0,0909082792477726
0,0901486448597953
0,0905135571731638
0,0908828089969032
0,0922509766145287
0,0901239736816041
0,0901894429999179
0,0887942745511388
0,0913486886094521
0,0880710202761083
0,089772052073986
0,0861526594524872
0,0889723720654254
0,0866662191556436
0,0853219919377611
0,0862532454194097
0,0850094311190759
0,089493197890905
0,086033384163795
0,0830605066274186
0,0845302806911958
0,0866055107257622
0,0858346737299645
0,0842402591158118
0,0843034055112082
0,0816679515104679
0,0834948326476015
0,0814034724681421
0,0816818676108461
0,0813993368710577
0,0810801703192856
0,0792859160764929
0,0811926330386367
0,0779355029230702
0,0802611512888469
0,0785348241066374
0,0794475435340614
0,0785359455089163
0,0790667182169468
0,0763956906959184
0,0782811853913637
0,0779376432009354
0,0786898107259526
0,0793772623930554
0,0781977848455145
0,0756044485207521
0,0749564664249097
0,0723531581534123
0,0773994528289452
0,0720609940528817
0,0747626591818951
0,0765425899235409
0,0775582343182917
0,0731933343918326
0,0753029800577157
0,0704537621516409
0,0743093495676439
0,0712358761443852
0,0732310838098013
0,0705572098114433
0,0706249540567817
0,0713189580818644
0,0721198273041143
0,0679415791857445
0,0729826509138159
0,0721426724190406
0,0710158401663366
0,0696228721545639
0,0705132280430057
0,067755328417997
0,0670163611448627
0,0688042886047507
0,0678232216674587
0,0671090244257386
0,0684977317780947
0,0664671317535417
0,0690167386763101
0,0620737245883467
0,0660183840537778
0,0659158701381293
0,0666910499457982
0,0651690279692552
0,0657908622529451
0,0648957497472112
0,0665712145135927
0,0655313540290361
0,0660358158735079
0,0661332599225891
0,0646075011809288
0,0630267598764998
0,0647092028591326
0,0621209704268462
0,0635463585042011
0,062501746832306
0,0636243933298828
0,0626680341308063
0,0644209026285756
0,0606230509376556
0,061838128951985
0,0600258474768584
0,0610731976517925
0,0620662952492346
0,0609697468890834
0,0614228546276524
0,062411536846831
0,0610614412835876
0,0613542149450047
0,0600149547182805
0,0569631510830139
0,0526055751346903
0,0577595946165139
0,0559449310442094
0,0637574982053745
0,0581290382256473
0,0548530615799137
0,0559217626176221
0,0616978348755307
0,0607539039107077
0,0611935126430565
0,0613471616065374
0,06002076639752
0,0594998217711871
0,059054133916247
0,0540379159951182
0,0552905959248203
0,0559232538052621
0,0580728141713138
0,0560376217681645
0,0612292972964713
0,0574960423844182
0,0665949822205735
0,0550993002901147
0,0591784974160336
0,0540171918286203
0,0556514969691813
0,0601995675604662
0,0582744961319664
0,0562731106271935
0,0536298885317431
0,0577864168155363
0,0572928109098748
0,0570267469199462
0,0540393925332282
0,0583675273592081
0,0517538359170068
0,0573753057827482
0,0481157002227718
0,0583980957430824
0,0507181888849036
0,0673974892612995
0,05054802634693
0,0638001761364227
0,0402915596940603
0,0674481147053913
0,0446988965550593
0,0734177352875357
0,0382709957076739
0,067967836627837
0,0366744733651321
0,0785040094980555
0,0367643931926211
0,073910699686325
0,035246423325085
0,0771163831924574
0,0398921699407053
0,0657458235996167
0,0420891330792982
0,0661365466738486
0,0487837319189165
0,0585949943866444
0,0562411930834159
0,050590013771667
0,0603886998432735
0,0524593050766372
0,0595586988885832
0,0504926047580392
0,0587119769612773
0,0504476598426904
0,0528003483950083
0,0530149278689851
0,0521894823947234
0,0535719344062263
0,0534241977575133
0,0529050166121487
0,0535048411934775
0,0541688445808611
0,0543011297125221
0,0534116199626719
0,0557222032721614
0,0517760053321489
0,054493006715351
0,0514633207663812
0,0546926657148442
0,0520980554825428
0,0523962374566641
0,0529463823773418
0,0529878554586531
0,0504092997998818
0,0506578363834401
0,0520652704258546
0,0543160854459773
0,0523252790415411
0,0536907920061459
0,0534386341304714
0,0527097384470849
0,053163799042807
0,0528769931308469
0,0517699585109847
0,0539024007807395
0,0521580349703676
0,0509664897377151
0,0530499236616156
0,0543463326908414
0,052338339581609
0,0540514203252293
0,0545117353758403
0,0560584242747425
0,0532663336308543
0,0515550528937616
0,0513318600831455
0,0546607238073961
0,0544438283635616
0,0539355689719961
0,0508926460294334
0,0542239214147866
0,0533606460637015
0,0521689126269425
0,052593294986248
0,0548266191656339
0,0510963043054741
0,0525851120729956
0,0533781941154834
0,0531307750922379
0,0520333069193338
0,0539970054450722
0,0535612345739335
0,0546438548955052
0,0515701886899613
0,0542809118085943
0,0526925756519606
0,0539284989653299
0,0526637425206876
0,0533249376724143
0,0533116471725767
0,0553371796592752
0,0555692562758792
0,0518845902811567
0,0540106691513107
0,0531417787647203
0,0523397641918355
0,0539501842121843
0,0521476871229809
0,0538660262185633
0,05257402888922
0,0526593643667491
0,0529466328710669
0,0533675428754308
0,0528566977744172
0,0526586949473022
0,0519533447667145
0,0546030281595271
0,05293193156232
0,0534328213303648
0,0546817705912569
0,0535412881473582
0,0538885421940905
0,0533023826531459
0,0527918420710007
0,0559606619557728
0,0547877309108447
0,0547695951472742
0,0521664618288581
0,0546312420974622
0,0550795674966928
0,0553658107816164
0,0549448670233512
0,0529143012278937
0,0572176833228297
0,0555334469513429
0,0548977496498108
0,0537850296430854
0,0570888277945548
0,0539717134836871
0,0537663096753713
0,0579745423937342
0,0543778244052607
0,0552292853132161
0,0547205059663845
0,0529066433176982
0,0558087660143422
0,0558863390894151
0,0569907980947027
0,0572163165491291
0,0554954201378164
0,0559947337693796
0,0565009962554833
0,0580287962743374
0,0576100417448715
0,0551305210918803
0,0541334674003641
0,0557764739809531
0,0545040198008762
0,0575837692661846
0,0570079287336593
0,0581923422874102
0,0558511182948908
0,0560915344015811
0,0559304938122136
0,0562781849901173
0,0553714511951727
0,0559725114649661
0,0551509332967807
0,0573225208566367
0,0557608632819058
0,0569588078086676
0,0564797256392134
0,0552159633556856
0,0552608905527125
0,0602517529506111
0,0571874510892771
0,056745812668218
0,0562340807150013
0,058849022855415
0,0558074053775471
0,0598596763610762
0,0545525984930713
0,0592489752422695
0,05662442297375
0,0582566307660941
0,0583244907703852
0,0584018689816494
0,05816912952714
0,0591952748990016
0,0575927376335677
0,0582415762979738
0,0579765636047786
0,0596500395201981
0,0585427624929543
0,0595883990641922
0,0609848846235118
0,0591441658580764
0,0573076281993545
0,0590460595661944
0,0596494824944533
0,0602355664152303
0,0583329603275103
0,0567017160345421
0,0590210083036979
0,0591778235716455
0,0594593998462942
0,0603389852951018
0,0568448519573165
0,0571191473623315
0,0550670143479804
0,0590512582572256
0,057098381369623
0,0589082735114687
0,0593013248974761
0,0591955068589575
0,0539972786698481
0,0571237777315631
0,0577172076575793
0,0588532854923711
0,0550960154411242
0,0575697312674155
0,0582688606559114
0,0573894112304717
0,0566519888540512
0,057756549128725
0,0550495494265642
0,0551302212838584
0,053690073297762
0,0556072250450611
0,0553577353740342
0,0555235701107005
0,054149700625473
0,0541942090209675
0,0561711925527662
0,0544832310625566
0,053359814844926
0,0557742807082832
0,054523782428536
0,0536512946112331
0,05388659398267
0,0521694020362731
0,0539364196586725
0,0574794252081267
0,0541829340688924
0,0544667052865535
0,0535682364731975
0,0552277503706715
0,0516936938903436
0,0553627022588451
0,0518299193412119
0,0531546284665563
0,0528119932927473
0,0530380897643876
0,0547608449873231
0,05233840821411
0,0529144664088107
0,0549889612040015
0,0514450645510886
0,0534265981698365
0,0529660891888222
0,0543764513686532
0,0530104505427192
0,0517980098083212
0,0508358766583154
0,0520183179744629
0,0512483878083833
0,054408419009369
0,050545614929916
0,0530823705821492
0,0524949425582892
0,0506462574554943
0,0513348016003739
0,0521887609157737
0,0538217442597648
0,053570122372443
0,0510169228697142
0,0521536306302444
0,0529853091954061
0,0507570745259091
0,0513929833673612
0,0523756862520421
0,0501962146848657
0,0542703023625786
0,0512703430614182
0,0534137985521599
0,0511678505047549
0,0540340317133638
0,049128480078236
0,0528884909980064
0,0502028775117426
0,051914274233435
0,0503551437271257
0,0539931152817404
0,0516548730569021
0,0517080296492422
0,0493039478221245
0,0521304749051463
0,0501925844431422
0,0507663477285767
0,0531945785709023
0,0486062420102192
0,0498797851458297
0,0517090074819201
0,0483250881472021
0,0512919415972183
0,0520658011580312
0,0507290676873375
0,0496409382430048
0,0500388258091451
0,0513329517179956
0,0481054122436406
0,0480915740333469
0,0511364340391284
0,0503230129293844
0,0479933250399752
0,0494489039517099
0,0484021606607822
0,0504331814804892
0,0475179951218406
0,0489096557123467
0,0489514623324549
0,0463463801798994
0,04891957093361
0,0499474133134412
0,0468612772983311
0,0484460279996236
0,0489108020872506
0,0490666518849032
0,0478125456363575
0,0466528768439036
0,0455901019432012
0,0467353387805919
0,0487757055952158
0,0478079873204123
0,04540936749395
0,0472737828674601
0,0465273193139975
0,0450288689545001
0,0471866048888844
0,0443992628938402
0,0433497324352912
0,0473054131205477
0,0481731883169247
0,0447798620208451
0,0471967859027793
0,0437334042554361
0,0450360082200132
0,044801918061882
0,0454222802741621
0,0435431426212208
0,0465844829838651
0,0426599258057524
0,0450273716430507
0,0417897605939184
0,0448282889028293
0,0420872633547715
0,0441935327298287
0,0410764091389207
0,0452618753576212
0,0439588918144015
0,0459208258677853
0,0400775646492207
0,0426478888162181
0,0409734718088201
0,0430843856301033
0,0391399116645417
0,0417217058473819
0,039788407348281
0,0445232832256851
0,0377306720644625
0,0451440852455874
0,041710868316369
0,0403290973276795
0,0423157364041129
0,0417542090452641
0,0423400665085975
0,0398531200678344
0,0411164626281432
0,042109721562347
0,0425078469492014
0,043076864838492
0,0393866763134887
0,0410291119935145
0,0400357996538041
0,0410086680766957
0,0412435185025927
0,0397578199001392
0,040981959715234
0,0384338713893495
0,0409453949247054
0,0430618340617145
0,0368886834460261
0,0378984805262124
0,0405194717832223
0,0412413037529507
0,0401988337309393
0,0401615475304643
0,0410835830812898
0,0402213569236767
0,0403782678985859
0,0387858982860985
0,0418684567146879
0,0380141629606183
0,0394416459306901
0,0399800262660713
0,0398450703937581
0,0387519602595342
0,0384371152485011
0,0381477268820727
0,0379960255240602
0,0384851949066663
0,0385296287585824
0,0377771876177639
0,0397024424610962
0,0389916805272555
0,0394545810343134
0,0395032288120575
0,0377865302570113
0,036091146275188
0,0370203931352131
0,036361788305646
0,04367427840131
0,0362646646502679
0,0399203335606283
0,0379033766979047
0,0378863967106963
0,0371827903809174
0,0357905979963474
0,0387196598347051
0,036672753948281
0,0377469358106329
0,0373001137201949
0,0356219395278696
0,0353315148802496
0,0375859384111267
0,0362307314971136
0,0381819294725619
0,0349984561059602
0,0381326395202629
0,0366722080200111
0,0364405577211246
0,0362340534842363
0,0381866897413757
0,0350426580157764
0,0368659895661082
0,0394646763639172
0,0399668066359557
0,0364607416753922
0,037634598240004
0,0356180169624437
0,0451097995940138
0,0332936865193517
0,0398401824711416
0,0304548765885417
0,0412762785715788
0,0361353667166363
0,0384328528810775
0,0328491514723652
0,0366825948922013
0,0348310461160587
0,035756309670799
0,0366798500151238
0,0392162883334944
0,0352006641563401
0,0387885825230494
0,0376979681879307
0,0372434740558153
0,036399827819989
0,0386350616791692
0,0341155667238803
0,0366559491000203
0,0356136372895488
0,0379816283185813
0,0324569154615447
0,0398405169222268
0,0354617880836669
0,0388395298154984
0,0360731909436585
0,0384445324769834
0,0331652595844148
0,0378444036784997
0,0340819256657596
0,0391435187042674
0,037382090693473
0,0366794048054877
0,0386017238333125
0,0359419277728083
0,0371247281300585
0,035189387035717
0,03544071726641
0,0346391003140645
0,0356680858965326
0,0391866672874988
0,0362552168839662
0,0373506819750873
0,0364710441277028
0,035763335384437
0,0361326342098804
0,0347579744252273
0,0349437615436849
0,036367213529283
0,0329870800808013
0,041444781625256
0,0354218755291934
0,0422662968167896
0,0360215722238019
0,0374180987649623
0,0363474472665433
0,0379635252016116
0,0330689137663526
0,0376979248060098
0,0350676512410069
0,0396927294441646
0,0355490668718426
0,0376521993860553
0,0365631149000817
0,0373176080597584
0,0347314700350408
0,0373401036426218
0,0329560704286419
0,0386084105430168
0,0353515519727943
0,0348546040965593
0,0358867688243532
0,0352768904619183
0,0395168344527233
0,0368889382681859
0,0400990581597409
0,0293379863220279
0,0467872670749228
0,0369367078543247
0,0431333488470526
0,0387821152906266
0,0390277714534811
0,0364082244568792
0,040255871466126
0,0366248334291392
0,0397260245807229
0,0367680329820316
0,0379222464646943
0,036806115950169
0,0380042558209334
0,0384296269909438
0,0382129465588598
0,0378555529692054
0,0438707217101932
0,0407388468472127
0,0438586469993154
0,0332153931484447
0,0427348650509979
0,0401634512836824
0,0398917406924759
0,0410322336259354
0,0359017358213686
0,0401457621485625
0,037882209480591
0,0417866248616808
0,0373930473936892
0,0424578037341152
0,0366036895713903
0,041787904405432
0,03954047208091
0,041827897014529
0,0409327942043963
0,0416553241626811
0,0414507384355011
0,0415482146428848
0,039244182279773
0,0443043021883116
0,0405578682448323
0,0427279356373073
0,039391266120124
0,0432256854371567
0,0382194201562962
0,044274651831454
0,0411282708769663
0,0411209379861306
0,0437075966513044
0,044843441701502
0,040370297313625
0,0449317378267801
0,0404803079034326
0,0507843556992033
0,0329460000694351
0,0500569734133503
0,0366453844770718
0,0519744822029726
0,0464968583986797
0,0467099696041915
0,0440593323228786
0,0448832928064049
0,0420930812969831
0,0415178465520349
0,048085259591816
0,0429565792351639
0,0527232526974508
0,0392807568452795
0,052872608865543
0,0435295610889066
0,046999817878911
0,0453074533568663
0,0481121780962621
0,0415190929489788
0,0542107722969227
0,0415066971639066
0,0456404395654322
0,0469959308147622
0,0482189639086756
0,062115334614536
0,0448282827441576
0,0490790011712887
0,0543078156320629
0,050757311964197
0,0533037268322472
0,0447379900079176
0,0537783884964661
0,0432262207022139
0,0535622052520115
0,0551401096594841
0,051831973649615
0,0524288508165769
0,0499360226342441
0,0489493155666517
0,0615018913873068
0,0523993243901017
0,0519842806652756
0,0516743111593123
0,0542439746466507
0,0426723787010867
0,0677611186898699
0,0476663247231606
0,0680408799614199
0,0513210798704662
0,0632882516509773
0,0549364275708088
0,0613093314686605
0,0527852853893751
0,0645019858861069
0,0642998245433613
0,0656126104692785
0,0545654906230158
0,0683507464383784
0,0628377158844705
0,0649416804288882
0,0682495517785422
0,0607117481650618
0,0573376055111452
0,0664713852847749
0,0731929695577836
0,0766363059960841
0,0710655026553268
0,0697854866193629
0,076129284102858
0,0762635284275774
0,0752703462186603
0,0739612983050438
0,0746217886921887
0,0751739779369839
0,0761764991279945
0,0784841452150686
0,0793695533360677
0,0847253821723275
0,077498725932128
0,0840198945908035
0,0772574830554797
0,0969515079799041
0,0878106106777002
0,0919436300922314
0,0958087911571807
0,0904530550299063
0,0947204024023752
0,0906286312422033
0,0918625800718347
0,0927550892726163
0,096895109056256
0,095631824401342
0,0899722259309385
0,103290101923502
0,0944376647256838
0,108949372870972
0,100482807374427
0,107387133428933
0,0971142994814359
0,0977213408663226
0,154664191698698
0,111780827448163
0,129453236767189
0,104036524793119
0,128265771586664
0,125125247098759
0,1381235860428
0,128067071771312
0,134331689738153
0,13011645497996
0,141906181895146
0,138761697940161
0,148509316640432
0,147237656050309
0,152748544947392
0,143898194043833
0,157900817112732
0,160000373160948
0,192187979797907
0,176873698740576
0,181947828918972
0,1822724991274
0,194644064925325
0,187388325607313
0,202844382894656
0,186371685572097
0,213022555862601
0,213535451695792
0,225434240655121
0,216774154994635
0,222074677110068
0,230083588820566
0,224968583495528
0,244630932711187
0,2471895671374
0,259392834064913
0,245309439703164
0,260516418991636
0,258112228583025
0,255049884100313
0,274490650051933
0,275731435736173
0,279812754637464
0,277808387073051
0,287816549652554
0,278381566648893
0,29357551359158
0,286460848204149
0,289454137337317
0,28198622930205
0,297493518142752
0,3596788568081
0,315210799536232
0,310474418271365
0,302511543264558
0,296892347692988
0,308320238247618
0,304222603711768
0,335005678696472
0,3111288461904
0,318611080864788
0,314163783849794
0,315085017662504
0,316818134118197
0,31186972367854
0,317876191860387
0,310908627383603
0,324797164110333
0,302017415451877
0,326723847351346
0,335584884338001
0,327628926407115
0,317391021168401
0,325206788322785
0,321522954202158
0,326467767857355
0,311220179264422
0,321706689375803
0,318042407396574
0,325096181503521
0,321649521974659
0,30814352074322
0,325656226284278
0,32011450025298
0,327230374762284
0,314979665120464
0,315403234813018
0,31631517597866
0,303669878524915
0,315424133197286
0,324541637093569
0,321031536237124
0,313720569626854
0,306402671597255
0,311015507619134
0,303036414644282
0,307397367788433
0,310368825893288
0,304160867591754
0,306786110085924
0,311712918270935
0,30855641689841
0,307101049553723
0,300697392599891
0,311044134012631
0,306097088441133
0,306528908253329
0,298480656580286
0,311792660983785
0,303850018894963
0,308794975257005
0,302957552269393
0,306780194062787
0,304739870403157
0,305789465247205
0,309785174911419
0,307228354575574
0,298694891853862
0,308349894222005
0,299852010850982
0,304973645948722
0,29882785927964
0,306982887777573
0,296466340226869
0,299707436969161
0,299557232599103
0,30199231584008
0,29525044702752
0,296568495257773
0,287977969150337
0,298584480014213
0,290175606871205
0,284696281332247
0,297951062692603
0,288484496703295
0,293503714683916
0,279380988469181
0,283085186326254
0,271730504911649
0,268990779049977
0,278552256164983
0,272937793854728
0,272310449010711
0,264891321406172
0,25618546325243
0,255224903495298
0,254008981869065
0,254656498767962
0,251888340276182
0,229850507178019
0,262946643725779
0,223633837975746
0,27145532627635
0,247090720922948
0,24751696174609
0,218977793898511
0,234904559859577
0,229356009181127
0,226258329060855
0,21794120073534
0,210814424788294
0,219021480042173
0,214738767029322
0,217159055329777
0,208414718008407
0,20270157433237
0,208534388095603
0,216537079671804
0,197765799112397
0,196839912347525
0,200016944006698
0,190118592988699
0,188925278444236
0,201701411913964
0,202075099257585
0,191127882491865
0,193273595503952
0,181780096916949
0,184161203761727
0,190590396315533
0,187022970421329
0,190143494353703
0,178150011010497
0,180773085402965
0,172989732992419
0,18255693859341
0,168593258759866
0,176358800272469
0,182952235115409
0,16496394581499
0,171994422777691
0,163062430954299
0,176843591993707
0,175824390781665
0,17678090705528
0,157313604252192
0,175273914172943
0,168745891749745
0,178087133164496
0,171242913921781
0,161360837417144
0,160974985099741
0,164763122712032
0,162156469650446
0,163902462574584
0,157092541809543
0,170451335435028
0,15106195092641
0,172730996173978
0,172242652600529
0,169083888518854
0,167774524773645
0,161340188356782
0,166789490275125
0,167721438914415
0,154535925632368
0,179260008049005
0,16627550446195
0,17081584898822
0,174357305669856
0,177746600821262
0,175653720310036
0,179487715659098
0,178429394368748
0,176626630557887
0,181890938747362
0,202626163943314
0,1869199767621
0,197242901212308
0,197286842132663
0,207024949706269
0,195279009641989
0,204007174397639
0,206986780728758
0,213009184981966
0,216890988272931
0,222987392030448
0,228752168808455
0,237268479538579
0,2281867109983
0,251887739859194
0,244957063846102
0,252380910770567
0,25905749896109
0,261782787161092
0,275290468689539
0,275832713124164
0,28242589325195
0,279093643774121
0,287268271718374
0,29770699696497
0,290127232711786
0,306563993492321
0,307505250438117
0,311178876824507
0,311384310410407
0,318670232246035
0,319494489040973
0,318216541387278
0,327351913092712
0,320411371628533
0,348133695977116
0,33860022049193
0,34810056205272
0,338613273765259
0,337075893938888
0,344242510229385
0,345442497413951
0,347060002864235
0,345600394483215
0,348299416033086
0,358211679472613
0,356131627196128
0,358950303870115
0,359403689973716
0,363126625953152
0,365029109838679
0,363890223626667
0,369743931622004
0,364126257042466
0,378879886605497
0,372586849506755
0,369977191509018
0,403008961704603
0,386461113523569
0,393973107140586
0,390047023059581
0,397644883231436
0,400216702423261
0,396541803851319
0,405524878930288
0,409920895295457
0,411348843023667
0,41626196914915
0,415987858150022
0,421115526461994
0,422838509486979
0,435604203341829
0,430618649291296
0,436963421615555
0,423671643558901
0,443883315933706
0,446815443699834
0,451572567494174
0,444724671342774
0,448039179101971
0,44285872756018
0,44858268046746
0,449998518977141
0,447279819286428
0,451610107229313
0,449625436359893
0,455379494830461
0,451608674557426
0,453742786003904
0,45175723494898
0,446870779064156
0,452761877366784
0,456138591595375
0,451513077802805
0,451307276645451
0,448448178049741
0,447909624723823
0,449963636530002
0,454038490040921
0,458434105244975
0,445030226553108
0,44890398954034
0,455649261175919
0,454051028214145
0,444701221994074
0,449554447419597
0,444401557489444
0,455691916093697
0,446621930133188
0,454450969248481
0,457296945349833
0,464586792369168
0,459240684375341
0,462713475707517
0,463774004924036
0,467378719157666
0,472566572489302
0,473542163984029
0,480314499564892
0,472050713421199
0,477516057893322
0,472028080145049
0,481399559852822
0,474290526174678
0,480803567133636
0,492949544287499
0,476364006946929
0,477495534985316
0,466729311920421
0,471263431027906
0,464765833286392
0,473543496054006
0,460160686086595
0,457085758331081
0,452456779680854
0,449119013641403
0,454321297337848
0,447028671287442
0,443811397587146
0,438316609655703
0,435869688586259
0,433322689123699
0,429374775032954
0,425186542306186
0,42233172466822
0,425512476304076
0,421759514303232
0,418161943423354
0,416818281797777
0,408362552197491
0,41105993543959
0,408665602414098
0,410973575493802
0,410092409292722
0,408235609187816
0,408395021845604
0,403469616923915
0,402504837761187
0,407595649576285
0,399083808625594
0,406661339689594
0,400021578669234
0,411861740094418
0,405004524037623
0,407962595700993
0,406339582070491
0,406621611812042
0,40005647712085
0,402160526092925
0,400969588607988
0,402113395723006
0,397664009215024
0,400409587593127
0,400957475794719
0,397794192484444
0,397929896347794
0,393825360471335
0,396037562658371
0,398794935519795
0,394809402243136
0,394417080372512
0,396725664303462
0,393536325710455
0,397047786840052
0,39373227843334
0,402181236688743
0,392688954829675
0,396471500069978
0,390829667137976
0,389523862392966
0,396839227914899
0,395313076272845
0,395281814749581
0,392858267405013
0,394136626132156
0,395000884802693
0,394623009643219
0,394848746558068
0,389526284294291
0,38955844529236
0,390006213157859
0,386734838844612
0,383903853648867
0,382701781693944
0,373185747774326
0,371673918689943
0,370771625802356
0,365062899959255
0,36670080429855
0,364171613416075
0,359005023801629
0,35467019265131
0,354783278335501
0,351273510510723
0,348564231945891
0,346937111057764
0,343842239128452
0,342136663124821
0,339545724490236
0,341949431031234
0,3405155173072
0,339454545918828
0,341181826265901
0,334447166678815
0,338381077961787
0,335047922415255
0,338910833314074
0,34193499964119
0,3380272769146
0,340080555481244
0,33987482343414
0,339947341530203
0,341195659505387
0,344321475413127
0,344095832124131
0,34177118377033
0,351389803322125
0,349893670132894
0,352531491006995
0,352051874481502
0,357393275626784
0,356637887186497
0,356781323053966
0,358421429153653
0,360151777585778
0,358446934545742
0,361328920032832
0,361390492396946
0,360188678538183
0,360118632611812
0,362077695928467
0,360676626921431
0,357873943887749
0,359001159920512
0,356115911027967
0,356528871723391
0,357265570312828
0,355362241761963
0,352635994157635
0,352988688360625
0,355071013347758
0,352657181071549
0,349604049991866
0,346300112361918
0,347291582433529
0,345752354910868
0,341444254542514
0,343431893997137
0,341842526036138
0,338192150546074
0,336192158548564
0,336858930908342
0,335435733459114
0,333954158472572
0,333705990261646
0,329588294468426
0,330491526700003
0,329045693598695
0,325916680581004
0,327083914462121
0,328834851103329
0,325809681918651
0,323343928369025
0,323649349526897
0,322095682000902
0,319756860663521
0,319846565128938
0,318399322034203
0,31903771296035
0,316544300845292
0,315999441401992
0,313326315572514
0,31295923096932
0,309512782169232
0,307737464580775
0,306774842681462
0,302843508509687
0,301058419436342
0,296318162340767
0,293324878055877
0,293137566611612
0,290843349065911
0,289004735440554
0,28827167036105
0,286419539128681
0,283371448437449
0,286254214040933
0,288013153939525
0,286810215614925
0,285230343261298
0,284455111713991
0,283189756854442
0,280909792770411
0,280449053042923
0,278550896118526
0,276121276794327
0,273512253016038
0,271183777563435
0,267374941852297
0,266916221678266
0,260316502664381
0,258239355415508
0,253293695416083
0,250623639694034
0,246092660228872
0,248418018017761
0,25051491792172
0,248265035951671
0,251051236408798
0,252327157323534
0,260117243113593
0,265522043140369
0,272821855331737
0,284854894455658
0,292155669206256
0,300930994070381
0,313860427598753
0,323149300122443
0,33878114468127
0,350022616258934
0,368166697060947
0,378323586750435
0,392177018996839
0,408094636192647
0,420970308081257
0,434236378681657
0,446644478649639
0,458056146450905
0,469556546661784
0,487873021340883
0,494818601142438
0,507160124799848
0,521746828466849
0,527606089687751
0,532445146521946
0,54879912173131
0,560333744988499
0,563296304243721
0,573202093309237
0,577881952668097
0,588164351851191
0,590117968429729
0,593252428762098
0,59624260344064
0,600110935704295
0,601561891707012
0,604792031634417
0,609313358893086
0,603705018573774
0,608029955773404
0,606446630193673
0,610060690284372
0,609073326364992
0,612157895304096
0,612959374219509
0,613944355054738
0,615992305871274
0,617711612929662
0,623352101403511
0,626112918503185
0,630750270322759
0,632029562117419
0,641512769460062
0,640496305162624
0,656188276523085
0,654849642249278
0,6643071355564
0,672060267936543
0,675602972133692
0,680580720486136
0,693468958169348
0,703958085324358
0,708062577527187
0,721102799417417
0,738891108351009
0,748072816785044
0,749926544475429
0,761218930336038
0,759777216011732
0,771205313796547
0,785389142857916
0,779892699928011
0,78339983920001
0,790385499803028
0,785999075895465
0,777454331955819
0,774692569669136
0,78390797914846
0,768768250886376
0,77321096383018
0,767734266388982
0,767022427512751
0,768380242406008
0,766921891545436
0,778837486445621
0,793064707485888
0,803102155537107
0,811308731796252
0,817842810375766
0,825106043869394
0,844802313525672
0,868295103803567
0,874558560417576
0,882448192193999
0,897397983085207
0,912081537647697
0,930248461492047
0,9406899241422
0,947908487879405
0,960183462550905
0,973138092743479
0,998103242195873
1,00033696013787
1,0347927303984
1,03760129583723
1,05219450459531
1,07874103630867
1,09582106626601
1,10304029344996
1,13476674603599
1,16077829157627
1,16667058370969
1,19748081991522
1,20951112167741
1,21814183119502
1,22244065536072
1,25165212541736
1,29722967875637
1,27583711815333
1,28576337071322
1,30504590799114
1,32670548481897
1,29839549718213
1,32761553520307
1,30284813061113
1,35527398704172
1,31543261927217
1,32683750603595
1,32469688837595
1,31808728177563
1,31449281824775
1,30413559314219
1,31394819935316
1,29429227044087
1,27178610253019
1,30924803268939
1,28569429371995
1,29777112447181
1,32718065805905
1,36845166852838
1,35447588894932
1,34422567305006
1,36385164195364
1,38101064600077
1,39265994289604
1,43219429258529
1,4204692946816
1,44964349328809
1,44523465745106
1,49210824868217
1,45921788684764
1,45553752316599
1,47077133383032
1,52205658033446
1,52071642259056
1,53694720866665
1,49383494328613
1,56466503878395
1,55244467280123
1,52596911600248
1,5113672960068
1,62512632795502
1,55589037599095
1,5604462420905
1,55063533626223
1,60741840577578
1,58979821776299
1,55991996153038
1,60363409961285
1,55764722924523
1,6165126508048
1,61569371436246
1,58514334316102
1,6165956683835
1,5751725067453
1,65949738367525
1,55126407809101
1,52147039870415
1,54313250829607
1,56339959570098
1,47510989858177
1,49047550564632
1,41375812898556
1,39631502724857
1,38076144077518
1,32043498512183
1,28042674180161
1,21401520960882
1,17714047403249
1,15082543883073
1,09156198074907
1,06568777692547
1,02329724979206
1,02764787325579
1,00847139613548
0,993638804885964
0,956858266982088
0,961096638019439
0,953230878205018
0,943342350334826
0,92851565371086
0,927344855425829
0,915698638735705
0,898624261820067
0,905287575417957
0,882998526995156
0,866675766722861
0,864920581453652
0,841731206858355
0,832718124833016
0,818798436260164
0,799769698560054
0,774490102054705
0,75786929060316
0,725229063597208
0,712787839210838
0,672613133490609
0,644736282388002
0,622718058487932
0,600591159464265
0,566699457407703
0,542352236718518
0,517261266449394
0,490718787908462
0,465195635841227
0,449302236885479
0,424179267828989
0,407426157299071
0,388910153542054
0,374541439474941
0,353806805574542
0,346675504132181
0,338130391494716
0,320247376652249
0,312395872252776
0,305968041892743
0,297967993293916
0,297303394314914
0,283970430329651
0,288104933829328
0,282447662793365
0,278977241270017
0,278586094397555
0,278828938387759
0,280590206775988
0,277868711890813
0,275573411794128
0,281144309838838
0,286494712086819
0,290918835272933
0,28501547952696
0,286271110633066
0,291370968846749
0,290368974979306
0,28899827133216
0,294326501612018
0,289173730708854
0,289743854093727
0,277458596485704
0,282555812907354
0,278710853285337
0,275959500489851
0,269944666340596
0,273099490988859
0,274113800674592
0,265896006346633
0,265672820031545
0,266440860284712
0,271383805851521
0,267441637300881
0,264592597362272
0,266584044991317
0,276265980401458
0,279674222299239
0,277166656343252
0,280572467600285
0,281414168992576
0,285977653581071
0,287098056485624
0,287023395492773
0,289078499116362
0,294811366858089
0,299121888158286
0,298785596035572
0,30353950370984
0,296103481326516
0,298509094632934
0,301367219076272
0,303285976086918
0,305325599273584
0,301583960064411
0,307161782137264
0,307413844616198
0,308353380230083
0,31107230234183
0,316684386814613
0,320940062821449
0,32711946892628
0,326958565501292
0,338463812226929
0,343010481679244
0,348767357092993
0,369181153246224
0,373529938877021
0,386610496313283
0,399565499010145
0,398372772672583
0,41493322563682
0,415705054602135
0,426284774137849
0,427128211633403
0,431531393435206
0,4303070560683
0,426086594402135
0,424658553666054
0,417147987953503
0,399937035372852
0,400307064834268
0,389307146683832
0,385571684024165
0,379429821020792
0,381172235983832
0,368351390863787
0,372602456503803
0,373603660368463
0,38037235025325
0,379612825264412
0,38100942414789
0,37970815884624
0,375202749032891
0,379351926714227
0,36783149828957
0,369748074651813
0,373265252516146
0,361822254093211
0,349551622321469
0,353805074074253
0,344081621339264
0,346093804687653
0,344592218638665
0,3436190098243
0,339815389431237
0,329694555172026
0,329260959126023
0,325674460535297
0,324430828777648
0,319284463522865
0,315369144786886
0,317927738603586
0,31455557624531
0,308748506993994
0,319547691748065
0,304401769549387
0,313089104333358
0,313739976021734
0,294837571812318
0,304898924585339
0,302645993122819
0,291941891576408
0,30772607959337
0,300361099199703
0,294507347211427
0,300254362671683
0,289394023035238
0,294445717199504
0,290455890921421
0,283163328055029
0,293671993796136
0,274879000646248
0,281445362682409
0,283351032591225
0,282265090184427
0,282271208774349
0,274077355680601
0,270655073010487
0,275010249797658
0,265979314785155
0,269739835440395
0,275172239987815
0,280640105959911
0,26929315932297
0,270098755824497
0,265868027693464
0,279004550170577
0,27612632236597
0,290510383284784
0,274124267330183
0,286278234463281
0,273937868655564
0,288072990501558
0,293243990741177
0,273235950686801
0,284035320787275
0,286578194458928
0,280464415343102
0,299166493742616
0,300940200985037
0,295630200275874
0,295514751119959
0,303355596510937
0,303694673537222
0,312457468813623
0,306340847097701
0,31751083967904
0,308069289040993
0,335748434508281
0,321566202736652
0,322633166855766
0,332059268656647
0,344485756722254
0,347925511296916
0,346973197955786
0,366903100001206
0,37113106034633
0,392048252954197
0,395063413119057
0,408813085708616
0,42885671270104
0,439865136672578
0,454750288401514
0,45348172152904
0,479353781647708
0,478886134290554
0,504061342363119
0,507646111832379
0,517870243308944
0,522194221799042
0,493185405953742
0,513505266471442
0,534697423113745
0,509794216169606
0,508548184180614
0,503493436681626
0,540114311191731
0,509974116589842
0,513764928461585
0,499540497752525
0,497312944457898
0,475359090488326
0,495006737654162
0,484830652679038
0,517757223486166
0,462244166433059
0,496013191523009
0,478475051348655
0,480706299419776
0,488872505725278
0,497811621640882
0,465759712245373
0,476844438150945
0,45176663975129
0,459603780180967
0,455151845978777
0,445648351033214
0,436362978595539
0,432936620820978
0,454546599374753
0,427199880971057
0,441379288914381
0,460379913212456
0,411901367033429
0,432594973778203
0,447351270698057
0,449559406827678
0,450832049383562
0,415844895247989
0,428161594305877
0,434741617080171
0,462989947942194
0,454629506909703
0,419373715870638
0,448441390159581
0,413840340029563
0,49114380227411
0,45652966636413
0,44423148799379
0,441529628675607
0,439427657744413
0,434341554075592
0,456312265954168
0,479082291752151
0,456369402333519
0,481151532449395
0,472545904481878
0,426878918778442
0,491903552334055
0,448710639740376
0,465977780865514
0,430267020592735
0,4253288931467
0,497764661765951
0,507068693925861
0,469907596758936
0,52278241049912
0,494735044256121
0,48498120461351
0,495068611569104
0,568264262857384
0,532997488970613
0,539074871881616
0,527112777590512
0,569012942800962
0,522341207838759
0,558253957154825
0,535953477587268
0,60263249836163
0,546699395601137
0,677338725041398
0,535891778085618
0,602056000346249
0,64054121687957
0,628671368773895
0,584394775181186
0,652933751324428
0,609406987958432
0,540730530195249
0,626365402801478
0,662839982069974
0,539284636696461
0,67639957588047
0,666443322032782
0,662045015408988
0,526167979262527
0,822156808344276
0,581034983336852
0,565621956556635
0,569710904102488
0,585222040895805
0,544294073136344
0,661647761855825
0,454064823858321
0,535902712733009
0,536657324909584
0,578820533678709
0,552791851424175
0,582372021034303
0,571035734214649
0,545433534029464
0,599087832938554
0,568419331394308
0,603319785011647
0,725180139140672
0,629227233990243
0,633983681022833
0,475874744691614
0,891559603256814
0,568011535728851
0,685493681071912
0,704390330767542
0,686567573794714
0,408788851161504
0,973981444544866
0,766277185313543
0,693301122692944
0,64030193847945
0,546082853304329
0,628948188512985
0,55005750510877
0,481329306822218
0,598838116778225
0,799982218754274
1,00618349556331
0,398535877360045
0,714483067638021
0,682083362659432
0,650093106301923
0,407210861437266
0,930138978313048
0,31547365456367
5
0,446442831369855
1,03300348541506
