3596
4000,36533379555
650,420452594757
1
2
2
0,06740310008357
0,0608872566376501
0,0575463326944489
0,0557894958673787
0,0637917240993933
0,0591936252039761
0,0673184845749589
0,052447083040339
0,0705358807590605
0,0650392787011878
0,0625623377237674
0,0505157995327498
0,0650883242834637
0,0566650372517537
0,0654886618957667
0,0560060102895199
0,0549569280092376
0,057359294628099
0,0649739796210348
0,0521494001282767
0,067467587105556
0,0552407383220377
0,0622570719118105
0,0611885160276301
0,0687085000767705
0,0633025403764567
0,0597951003736846
0,0568897409972161
0,0715628806660053
0,0612716832570627
0,0596189614970643
0,0548923636854766
0,0712895171677885
0,0663675493494018
0,0606930220767612
0,0570383423602484
0,0658520812240502
0,0609855014996876
0,0634603953268529
0,0599454303964142
0,070862887816634
0,0572977115861
0,071015438420771
0,0604929787782948
0,0663350817639818
0,0581964556779976
0,0679556310986404
0,0603667593639107
0,0683634682457201
0,0566884447659413
0,067741191700155
0,0595682259100716
0,0791085649433885
0,0740869053916308
0,0703451906384921
0,0740198674708946
0,0698205524864162
0,0481808814283879
0,0661839356305589
0,0590031711388954
0,0876832779003923
0,0798649068833007
0,0626827518548651
0,0625053135217191
0,0510203165700311
0,0585099980854094
0,0621016703014915
0,0568930658338594
0,058110970299531
0,0584301404113458
0,0719754514641121
0,0667716462842048
0,082286296557026
0,0606727678866877
0,0747690631180752
0,0688949386189262
0,0596992292671615
0,0574741975037284
0,0577013296603547
0,0666796144277055
0,082449152545674
0,0645155495252673
0,0651484397982841
0,0501920271226579
0,0724713057258866
0,0804964465435307
0,0628365175572585
0,050275520479585
0,0999550747211536
0,0684228258963487
0,0633822397869599
0,0622222848044576
0,0622771459223541
0,0502362423993833
0,061787632885499
0,0500141916021393
0,0591459366248489
0,0528546416337107
0,0637762476423931
0,0646254450780748
0,0718219245148041
0,0684333340971817
0,125783526097032
0,0706498400332936
0,108923089372275
0,0850415077200061
0,0600476918744431
0,108436454433546
0,0882487685612261
0,0675637580458523
0,0583820050098765
0,0551506586345712
0,0669827291121104
0,0640986411657648
0,0611522127337683
0,0741133869233939
0,103098867654054
0,061223696721449
0,0658517245999489
0,0523577490870026
0,0537656634543096
0,0867046778651476
0,122343427320571
0,0687274055617344
0,0828189603097474
0,0584601054980721
0,0720465628500502
0,0911996800113128
0,103766582361466
0,0610899431034342
0,062145309360501
0,0530411956382543
0,0622996047146989
0,0544943309031211
0,109535902092293
0,0798708510312664
0,0686391207953766
0,0558543296925261
0,0917591074503967
0,127095478752914
0,0853223267490008
0,0571977137162001
0,055373326381016
0,0597605817926859
0,119855394641601
0,0773030299198048
0,0665467681144941
0,0762102957308901
0,0806798473419946
0,0559952681925486
0,0679686238295939
0,0590597664530914
0,0922840458873244
0,0663909863182403
0,0401519528133147
0,0924982785714246
0,15879729510295
0,0823369637885481
0,127868209219487
0,0710744916819728
0,0768836236939686
0,0694678798336861
0,0660138313798933
0,0558869493281196
0,0667745179676652
0,0479889574285602
0,0731819044854319
0,0956919968038009
0,0704129715886036
0,0704458191825718
0,113689085724648
0,0845125235283341
0,0621843860572637
0,115954914268586
0,0899220933731394
0,0483539225837034
0,112084982087711
0,0717448784228229
0,0545253208591294
0,0630237831751652
0,0959796190014518
0,059833022877122
0,0637850926087524
0,0531430625473151
0,0757946553550956
0,0808174599520529
0,0794592633485197
0,0584201313420521
0,0703240648241673
0,0485073488141795
0,0912506279714136
0,117204684788267
0,105343400349179
0,0723433469869633
0,0726804434141789
0,0377524606819873
0,0984481359105108
0,100101260367318
0,0708167205878549
0,0609865266808509
0,0593070700030872
0,0513891693643699
0,0621386275697125
0,053240426411317
0,0532123446592392
0,0354342073595547
0,102075706594253
0,085761848762211
0,0584703621385352
0,0547997478225601
0,0764340004645083
0,0608639950660736
0,120027706230679
0,0961925773450729
0,0720024585632746
0,0605535715124809
0,0594555240078624
0,0685911284278857
0,0872703266479963
0,0571253128576625
0,0650846728206012
0,0504048926196285
0,0586255955402904
0,0505691742895792
0,0573605358243827
0,0576832433244089
0,0630836831280946
0,0533251606043485
0,0638828787002523
0,0544203105857141
0,0739013125885058
0,0665472658705513
0,0624108592799989
0,0542418435095778
0,0492731187008665
0,0642649743722982
0,0882478333016756
0,0600536092590283
0,0642757206902053
0,0566389723473732
0,0624246718181636
0,0530020615582713
0,0618056112963845
0,0526645078326858
0,0607835472797228
0,0609621700216684
0,103076883068014
0,069789738328133
0,0640206588801024
0,0478244584623786
0,084210528602653
0,074437761475693
0,058982078838094
0,0603604984123455
0,0655086824172775
0,0445032846504491
0,0647022725990981
0,0939629159145687
0,0763920379323375
0,0548457428214699
0,0832101396080944
0,0615414647107056
0,0642229080699864
0,0494361567643357
0,0587631062090989
0,145344855180125
0,0962289559457606
0,0593806491870432
0,143871322815085
0,0874052400655819
0,0913420570151804
0,0573898076725778
0,0335079772480527
0,168170375239133
0,143380585848334
0,0664558009215607
0,0728031504873445
0,0814494327791563
0,0700484371016868
0,059217953400823
0,0745586048105621
0,068550562546521
0,0963715609935403
0,128571310727888
0,136136839137559
0,0484422269544491
0,103566259308798
0,101533315734285
0,072735988236226
0,0606743457176206
0,0617042356255876
0,0515411818971792
0,082013189782055
0,0809215077922143
0,0931403190316323
0,065452080017068
0,0686837228720513
0,0957271262260834
0,078614986318509
0,053949116513715
0,0767107082600022
0,0707594799247133
0,0658958599483247
0,0563874811132355
0,0585968614207212
0,0640428394780088
0,0615453674133413
0,0589418378276432
0,136839414195345
0,0758118706978618
0,0756565047245052
0,0913055811549188
0,072415207938149
0,0524088377178927
0,0567068513859413
0,0585702171237964
0,0610942845605448
0,0461444003010935
0,0578698617457481
0,0853313688185948
0,0741801240779186
0,0536403478267958
0,0647178768065456
0,0485633001074003
0,0609947170320429
0,0581307619549094
0,0575319824782028
0,0497007415045577
0,0571953625593329
0,0467635133508938
0,0920646232607739
0,0890002540533546
0,0492971152254597
0,0958330862473472
0,109742958056238
0,0695419216471984
0,0627865917904518
0,0559463797416727
0,0670137245883543
0,05733698570401
0,067216151584941
0,0533093668170594
0,0617449585900802
0,0783946424583921
0,0720787263732203
0,0556706711075432
0,0742291320876872
0,128362364640934
0,14927201902536
0,0895810539528732
0,0773455264570468
0,0436852913495009
0,10946704374744
0,0929316729881708
0,0995500893764938
0,0893673325403841
0,0679914472006086
0,0654265819771666
0,062647488814137
0,0567601663405263
0,0636721457509
0,0618050706182261
0,0633580289809289
0,0583326589984757
0,065851196102129
0,0636075791754964
0,0604467997045141
0,0623456545723192
0,121933055509174
0,0795256333465783
0,0743727157042014
0,0692207370758742
0,0613552201273992
0,0944896436868212
0,105337408109278
0,125282270321687
0,10865675911569
0,108667561617149
0,133948295765269
0,0842458123351131
0,0755206276282391
0,0580024953941558
0,0728493375637738
0,0671438397233063
0,0725145767538541
0,0669058105866478
0,0714907746003195
0,0647033654136372
0,0716779395347203
0,0588245187497585
0,0669662914243681
0,0677087073380495
0,105128685619167
0,0713177632611561
0,080397673306626
0,0569702580269095
0,100454286712197
0,141317029665123
0,144073542137716
0,0909200643399829
0,0997793475206458
0,0739460111840833
0,075370675382609
0,0747159233184499
0,0829635792386
0,0757495514947407
0,0851547766754947
0,107927445706827
0,111527887814638
0,104749976286494
0,106328885869423
0,0715830961732134
0,117657728822927
0,0961276777377387
0,101533415770779
0,114802170646615
0,103470986432305
0,0606313380646812
0,124059414259755
0,101473800219645
0,110772878145802
0,11117880260662
0,0959139363592902
0,0776223283361128
0,093384731964639
0,0952134512288288
0,0926132283849863
0,095033954619016
0,112988058106146
0,0938232801761739
0,109020044540547
0,0899361222183847
0,100902409410847
0,114863602032452
0,104901961490866
0,104404733666437
0,121231171492578
0,0898091267002184
0,103727493255451
0,0824446064328143
0,127305185521223
0,119655283477693
0,150467934863399
0,134369745958245
0,115616577356126
0,0982266698819838
0,113545550208892
0,0991632131605823
0,104363432886126
0,0968249015253292
0,121329547664317
0,100393629099088
0,118858189412738
0,111829048022706
0,11326368393739
0,110531355785739
0,124952044698841
0,106567717531014
0,117704996278949
0,107660982880706
0,133832859849556
0,100914347655722
0,15646157891002
0,147360298155373
0,183492074951397
0,166400969481707
0,142477528994256
0,134925985346229
0,140783853671395
0,125301202894471
0,134926734189759
0,124628428662709
0,134176017859265
0,137150450231662
0,146289547857523
0,133490820772034
0,144878263541517
0,137560973851938
0,145355146075144
0,151993315910867
0,159352294019585
0,133756774341056
0,151021272978451
0,132640633711995
0,147748825267939
0,166812500664386
0,178764428625269
0,161640396466279
0,172489997597554
0,165799905246654
0,16925322108254
0,141879392035961
0,158215037249453
0,158535809689932
0,17102835292874
0,155772405208329
0,176913263298172
0,169543483328009
0,185099219724568
0,145904699735982
0,165761754527497
0,157421474484003
0,177445628408648
0,152762548110299
0,179297623622687
0,170411806576701
0,192065055832063
0,178959046140538
0,185881484080117
0,177353058263666
0,198104702710529
0,184535897105355
0,205914563321984
0,179792525651422
0,193449542394697
0,187185004270679
0,193120077829487
0,184788118941166
0,189370815512719
0,191184850484304
0,195343895975497
0,188113790510877
0,207521826562095
0,188182237018021
0,202123468168969
0,209677177342168
0,230361322164299
0,213687062152301
0,229344613983644
0,201980780881939
0,216383002683968
0,20962189325075
0,230527330660354
0,230959361560559
0,239101405867712
0,207062134893317
0,230249714714008
0,20859419362836
0,229141082380169
0,214531796858928
0,240581936007527
0,234778265557802
0,243035665642173
0,233085919927628
0,232683957963944
0,233140883560159
0,249340604419719
0,230990477994012
0,261102295126763
0,24291904729493
0,260413161150365
0,242192071835076
0,261110774804357
0,245065536422483
0,256139131456181
0,270341777886818
0,263935099287916
0,254918635413462
0,265796445060482
0,249598500671422
0,265075961260156
0,235592093469199
0,272854897530701
0,248080077054356
0,260562148481592
0,268868444002165
0,269778922924522
0,26638279303575
0,276158789875333
0,250372394527111
0,276219885180653
0,270020374521344
0,28664822243289
0,268695763389826
0,288721087438356
0,277580074008664
0,281015161766244
0,272421223776304
0,284876426131992
0,278389244212729
0,295326339316581
0,279630917061032
0,31201202970545
0,289827646086845
0,29854658838686
0,287885051305369
0,307149597830279
0,289554803484626
0,311805210881174
0,301317290790886
0,309567763780971
0,283062485990604
0,324176169435769
0,3175634215588
0,319111428630286
0,300091010292595
0,297798059933352
0,30917924817209
0,310098341656941
0,304750992146764
0,326037786637035
0,298539155867398
0,323170725034626
0,310304256342854
0,317431024651809
0,298116941000465
0,325372153458906
0,318002486604414
0,321519050387857
0,316974558102471
0,330212632163991
0,326788789983902
0,335755922258437
0,330545606743942
0,340243416400448
0,320439564030308
0,347884581401681
0,332620433897715
0,333238773146912
0,317490627123793
0,353684173389144
0,34076425001265
0,340163988956814
0,325410939711277
0,342823052903362
0,333199947293904
0,354907893080478
0,342141888165661
0,353064011061863
0,327217875303482
0,345456035381372
0,340099048552623
0,35124372233535
0,32617862094269
0,348131126368409
0,342836224200705
0,354852026987672
0,327893503323839
0,36462362005537
0,345706035449271
0,356856209848371
0,343705561310297
0,354187323520255
0,342260903148643
0,367382154283216
0,350726421925424
0,361736813949535
0,358295614157334
0,3644051702572
0,353950347433071
0,36339121556528
0,356836820695068
0,364691366865867
0,34910668843451
0,366365987147661
0,37378805763348
0,368256429903164
0,357645946549897
0,376648270886628
0,354271594468159
0,365555263280571
0,370315593150013
0,364800801667628
0,341408713878094
0,37754755470721
0,368836818270786
0,363291810548841
0,362119494689815
0,374586724227043
0,358924739430012
0,371033401457429
0,350773056814372
0,371423252315091
0,369328727542147
0,379030213900903
0,357375924931018
0,374933138299787
0,352266658627005
0,37638612981152
0,359420733827221
0,383001829976917
0,365948352807806
0,386137607618348
0,350383019237084
0,375285278925967
0,364138581743472
0,367373547616023
0,366142496976905
0,369035894839233
0,360843489173607
0,365892547109986
0,365031114360009
0,374271005167622
0,374072270458604
0,377534571367729
0,36638595967099
0,381937179505827
0,365765683618499
0,386503167713005
0,368407774699228
0,37158937586603
0,355316470301893
0,354102996789785
0,354006208214446
0,368777919014523
0,352366725945906
0,373987840196192
0,366541616769661
0,368647387692102
0,351971317101836
0,381774624788685
0,361065443144886
0,362449940545395
0,374321856125185
0,384086122746067
0,361517173736088
0,369198288718208
0,360524662746347
0,378212985601822
0,365720407416524
0,367556496026821
0,348978631017108
0,365307694430169
0,358942784882845
0,364702831084112
0,361577908890026
0,369097600563214
0,357546717102323
0,370675429889671
0,355243383763961
0,371610185093742
0,357447658252814
0,36330951410411
0,358216535619657
0,371736930422944
0,361941155249108
0,369058699682165
0,353602667134458
0,371573140892476
0,35633712711407
0,363780977928638
0,347957298699858
0,361208949406614
0,348728062292637
0,359754337261955
0,348211027993006
0,359018302773838
0,355791688868676
0,363821083338865
0,346617586304264
0,357325585919293
0,342701745575716
0,368836272164995
0,342012585899884
0,350589499916763
0,353355665819875
0,358669703012574
0,332096120710919
0,361567375747691
0,342649426752671
0,345241365456957
0,339830310250354
0,35601692933517
0,339435937174288
0,351344061380598
0,336102611096389
0,356330233658642
0,326722461233838
0,343900074578721
0,336394008584385
0,349834656798924
0,335042607329036
0,353131201732953
0,325796638894827
0,338068587843671
0,334474973099605
0,346263909936751
0,323894077016394
0,337952696722401
0,3370726963245
0,33761349443006
0,331024320388661
0,33219927159896
0,326662959407336
0,341158743697435
0,330173064689023
0,340079081871475
0,322755840101034
0,334820329114456
0,329052410574427
0,334390557129073
0,318128520872275
0,327854863649858
0,320502866027039
0,3313610726101
0,319180744537774
0,321959755502832
0,311803837228993
0,321163469005878
0,327368112240626
0,314240142950837
0,31548030987329
0,319405363461803
0,309407630318688
0,31707860071267
0,303841767724589
0,317084817062752
0,308936730842842
0,309469525697574
0,300390250174061
0,316553918744302
0,296513138189237
0,306649650155808
0,299778201664039
0,304841951532385
0,300263483040494
0,298184976936112
0,2948442472625
0,296342415358917
0,288872092955798
0,30563566446035
0,28727524312723
0,294020046719268
0,293505383429017
0,297330153642846
0,289816927278279
0,298367552542529
0,283431810570199
0,293755311942949
0,288587271396898
0,2883951664261
0,286316360714454
0,282557315705109
0,271728448035969
0,287141416001427
0,277122554544499
0,288062577379042
0,280318157861332
0,285759923210328
0,266915410946024
0,278181664561371
0,269094809835084
0,274121666637703
0,268642326675894
0,278321848278668
0,26738991162851
0,289803765753322
0,265723143410231
0,270717129407872
0,259818315138062
0,271311342078634
0,259330339448137
0,268107143250748
0,256987329657425
0,264918300029447
0,250604786088068
0,258428910947256
0,251080438415357
0,255970224254146
0,256589487265754
0,251503765035323
0,246412970646433
0,253430265230378
0,247320229603189
0,25329457499604
0,243846160383416
0,245940574666946
0,243528656070604
0,246781122910414
0,242135618936506
0,247711005917456
0,234946990277909
0,238649713126342
0,234721278420431
0,248504498959479
0,231806272789799
0,232498606068366
0,228426059544821
0,232025369195756
0,225312406141633
0,229480490640014
0,227778534668282
0,223363187649336
0,22410573906518
0,232842197698213
0,222919862944106
0,226133253448835
0,221055153186508
0,223656110990696
0,215406321060086
0,227351611704383
0,216372008775652
0,217728368092847
0,21932481847302
0,219273336648905
0,208707447243292
0,223210145852525
0,204135692775442
0,215269406526273
0,205884496079395
0,208924610859614
0,207426543812434
0,213727057262785
0,207351513790686
0,210586971245635
0,199255723361298
0,204692002021075
0,199393677093842
0,20756048196309
0,191486168929902
0,20071809270123
0,196680032494038
0,199937962189946
0,19075042942714
0,19936620404937
0,189642215876737
0,194595072808459
0,191945002631571
0,192135447043775
0,187082300484758
0,191371480195573
0,18814920263067
0,185868176407067
0,186579374863252
0,192968577483681
0,188723886312502
0,191341472186094
0,175963275417173
0,179877249437911
0,174155356341246
0,182797437986186
0,181250426342417
0,187306532285019
0,172955274539084
0,182109696518508
0,176578865339021
0,181029283435013
0,166650228928508
0,177004938855677
0,167767293032175
0,173839926573012
0,168173197687943
0,168817588725727
0,168924720022552
0,169562204542411
0,161736699660167
0,164686807202555
0,161222233656931
0,169647920172319
0,160864923869283
0,166621608239385
0,158862903863631
0,162740376629331
0,160800406300967
0,162043132414271
0,156538227223123
0,162575580809237
0,151687670225867
0,162040491816748
0,155975213332204
0,157327603669666
0,152876972340464
0,158794124931515
0,156001646335494
0,161084132598092
0,156061175588807
0,15709175247812
0,146712475745541
0,154448657692875
0,149499954834459
0,150756868431604
0,149207002099992
0,1552334572537
0,141190487669107
0,148054453712011
0,143093631186096
0,144640757840091
0,14218135378602
0,147439901037348
0,144191451803419
0,145355378230926
0,139997885414478
0,145946499694828
0,135399957122647
0,146253174740863
0,135496962370037
0,141550777040906
0,135882130239071
0,141799853825317
0,13525949615972
0,13807316007066
0,13383154841248
0,137728993310811
0,133824829327573
0,13608593748469
0,127571994788938
0,132472704448996
0,129551747078726
0,133196158007501
0,126216007696132
0,132443076343632
0,126776240208613
0,13304269199075
0,125295484971779
0,131250066311889
0,121989751146075
0,125645506823673
0,124041357247385
0,125755073609386
0,124592840469764
0,129196726565356
0,118421821582345
0,128687259359062
0,118376221621725
0,124397680479782
0,124161078181881
0,123079567088662
0,121170144251597
0,12286234202945
0,118838429892681
0,123324626561737
0,117161421836109
0,121388341825569
0,116562714398768
0,121540557066808
0,114422014743477
0,119313031147941
0,11323169653688
0,117867326434551
0,11874524760283
0,119592229074784
0,110968384086905
0,116768494864516
0,108682410838502
0,113200372306667
0,11051208485896
0,118284242927398
0,111524084159888
0,118931385680743
0,107970089017082
0,111745220025902
0,109636710800972
0,113440354076025
0,102551244940227
0,108909591732455
0,105869774548009
0,107328669514599
0,103880453071645
0,105413540091845
0,104536505980495
0,106652288766267
0,100564913465746
0,104349274288493
0,100165289381091
0,103061184284055
0,0967635501819832
0,10447767571496
0,0961184881020602
0,107821490277189
0,102660118909131
0,103744193114125
0,0981824175767289
0,104113360664433
0,100287284683468
0,1048075561991
0,0995464645306215
0,096738738722353
0,0987150678907951
0,100761025523586
0,0967424164044995
0,102084256976143
0,0952179128296097
0,100198764539041
0,0987874363272867
0,101122711033786
0,0954406031393566
0,100608609799279
0,0983393849311056
0,10181355383144
0,0979585587615389
0,0993175908577951
0,0955149931756563
0,102314006122764
0,0970516693728613
0,0987344384863733
0,099396938726775
0,102681983917521
0,102487448016861
0,10185121723414
0,0957639697484301
0,108802708529663
0,100493241587627
0,105043130892558
0,102099580311152
0,102663655598612
0,104822555473878
0,105577352805313
0,1007574318548
0,108456130968205
0,107164586292545
0,106114554199595
0,103490074975139
0,109840513964019
0,105684719804058
0,110393639609566
0,108269773980691
0,108833240953709
0,107383041862245
0,113054996049812
0,109673066427499
0,110959322896321
0,106913894663413
0,11335239724752
0,111935401160839
0,114323694121224
0,107798548721574
0,115662435224898
0,114946297808323
0,120876566228557
0,114438371628234
0,117085692743686
0,114474520724547
0,121569210321098
0,111405401148204
0,117960312055451
0,116210069515186
0,121340185662356
0,11918999001428
0,12232594097248
0,117823583972207
0,125057077794288
0,125335888614654
0,124298999072734
0,123917867830463
0,12558420767335
0,127220146619796
0,128862402704074
0,126737459399092
0,131238484637297
0,12640014180139
0,133049534024984
0,127110978573381
0,136544283116401
0,126015218825424
0,134970595650936
0,129731731911652
0,136507277131475
0,134849897263321
0,135810748174756
0,129800693018831
0,137700507467779
0,1346370190739
0,140137805569911
0,130268868747739
0,134089707421618
0,129674482759638
0,136143634436569
0,131062818932923
0,132865049422556
0,132070524623251
0,136645479044083
0,130128457292933
0,134135369763498
0,128894284360163
0,130244630973715
0,131115134575204
0,135207452364958
0,132705052688502
0,134244094941116
0,127858557112129
0,130167843750771
0,12764395629926
0,133394735989432
0,127197609588909
0,133253736945102
0,129986303375578
0,131510799223541
0,128484735043407
0,131862205154487
0,124915344015259
0,131255266145193
0,128467916104263
0,134764969450409
0,134414728589079
0,131710580253194
0,128517930989064
0,131621596175319
0,129689811402352
0,13342290886358
0,12556683508047
0,131389133817346
0,132376183365457
0,134203495961334
0,135004502049993
0,131556925975914
0,131522711773219
0,131514349439767
0,130724592305075
0,13464994102023
0,129708146838608
0,130419676665507
0,127473971207413
0,132812031246442
0,132066976149626
0,131653729561671
0,128267719219503
0,129223725747866
0,129365026489631
0,128538309657503
0,121616553156391
0,126506720145437
0,127340404509574
0,128103682500892
0,121646882273256
0,123138271070208
0,122399249850319
0,117514755098181
0,116911732319189
0,121317102991725
0,114757512037258
0,120493905087372
0,115566388164274
0,118333789959951
0,116440007870039
0,114510183463871
0,112664961252106
0,111154085790095
0,10834422989188
0,114781575714404
0,108163057840545
0,11129320294126
0,104374055888493
0,104582060695431
0,10378252558733
0,10251124425972
0,102499632122941
0,105388716368602
0,0981388880111168
0,106332458129194
0,100023267230178
0,101530674670018
0,099715353176053
0,10365729047859
0,100447307820564
0,104145687527829
0,0985185513205086
0,101095233474177
0,0953631041785661
0,0959040092881937
0,0944199160307541
0,0949298854691878
0,0926186415541897
0,0970658536076849
0,0916209816819068
0,0977418087919902
0,0920245512437937
0,0907638121108193
0,0938417671595735
0,0897195889604987
0,0863515628789433
0,0926213614967116
0,0904563842411439
0,0931897091325857
0,0890041810650094
0,0943609900284029
0,092894588869339
0,0893663657285501
0,0885074347942712
0,0897229335539825
0,086527337385753
0,090733842528071
0,0855290733441842
0,089837531888871
0,085891072863415
0,0873793566649173
0,0862018481695338
0,0850865140278489
0,0847238028598176
0,0846942978169867
0,0804040285915128
0,0847015232897505
0,0803102111699238
0,0804649914678279
0,0843356713801669
0,0851994513652393
0,080222697121992
0,0819170938278582
0,0824444930237153
0,0857734039433542
0,0790700127909749
0,082463186942281
0,0812059802925778
0,0811468754859415
0,0826824355465418
0,0827886055082425
0,0789047519816425
0,0799692116948488
0,0766408001318361
0,0791622065323721
0,0765645639430566
0,0795424457901265
0,0771562373565329
0,0747434748897337
0,077106623527086
0,0789839394676025
0,0728440194227083
0,0753094505244638
0,0757705578992752
0,082562254231383
0,0778187757494404
0,0730981002166525
0,0746735390941003
0,0770949000319798
0,0715438882048036
0,0732360921787149
0,0758184073274781
0,0743737497226559
0,0771666074800127
0,0770893236035896
0,073223791545321
0,0784441724725193
0,0738786683465315
0,0749304899955189
0,0736385552818809
0,0728480399449891
0,0790771832925982
0,0767183535262399
0,0707003106586628
0,0736693160224864
0,072718630403981
0,0750852931521583
0,0717521683226005
0,0738049409227803
0,0728964876614292
0,0717694110279543
0,0714413022089289
0,0727907945926088
0,072272177445192
0,0728209561970053
0,0668358180668218
0,071637177693159
0,0723436027546382
0,0733466653850984
0,0724625790038891
0,0725397075489687
0,0707901750975368
0,072267151836599
0,0717559201170061
0,0687844053844019
0,0653664334091882
0,0693434304254625
0,0707322256458953
0,0718878666111497
0,065762028519645
0,0706780097863324
0,0669018788655022
0,0690670606598204
0,0710141701749398
0,0694359863024724
0,0694029481861257
0,0711878313503105
0,0679194186559868
0,0668459452689832
0,067807178789949
0,0716569765667707
0,070737861624874
0,0723832198134435
0,0703525592656587
0,0691697117069463
0,0658430743282529
0,0679988603042094
0,0674720317480797
0,0707229786082703
0,0701952283888536
0,0681255571999709
0,0670301821338738
0,0700487309272715
0,0668468318859388
0,071132169938182
0,0675839566455099
0,0721565172419914
0,0708574136451825
0,0676813978315298
0,0663768839798315
0,0689181374723577
0,0657181327605638
0,0683391287915702
0,0713542466102462
0,0701178557503824
0,065171192641358
0,0684154392964745
0,065128836659252
0,0660487716005841
0,0651248299096445
0,0675512166725918
0,0676683709304157
0,066962123213471
0,0671390109495596
0,068216487519758
0,0650123435392741
0,0639732614045245
0,0623506407395722
0,0651849593256765
0,0651560970916644
0,0617486496396016
0,0628934386578322
0,0645945193613151
0,0642133528946713
0,0638261070646959
0,0599261546536701
0,0641875180044595
0,0633584810313546
0,0634224644033327
0,0612813275838649
0,0618911748845233
0,0597794067929809
0,0613745729803824
0,0607792661127775
0,0584649846620013
0,0584877696999252
0,0609938038601168
0,0612015398161055
0,0615537514366552
0,0621494100814753
0,0625100069751739
0,0605682147646003
0,0603080046577675
0,059771884569288
0,0637468812819127
0,0613543226285855
0,0594768527442613
0,0564418235837456
0,0599098494576903
0,0614211142552319
0,059740898628109
0,058696236258734
0,0641000628657311
0,0610645918091692
0,0608648576783676
0,0586704194588904
0,0591921750040999
0,0561161641814282
0,0615837699841702
0,0586891009202391
0,0572644679945924
0,0590881578858561
0,0616685825531102
0,055150742575824
0,0548208484546474
0,0573188070819514
0,0592753153239255
0,0550210612480155
0,0608547395691731
0,0614765774821087
0,0559403096412553
0,055671558818888
0,0572067538607049
0,0528741215793746
0,0550718762589246
0,0540672864170366
0,0560350364847455
0,0557349258204172
0,0551513551719693
0,0541374902945434
0,0555190537510383
0,0515888923769356
0,0515779881807201
0,052286427751744
0,0536737057072183
0,0515012900506649
0,0510444423311535
0,0535464111853402
0,0500148312536886
0,0493986690568584
0,0525233329848083
0,0484693133372666
0,0534160456094764
0,04949136407935
0,0486319349217942
0,0496240434782883
0,053373606687385
0,0520351238925189
0,0519461863227724
0,051148370046554
0,0527840633338537
0,0497695795310126
0,0506813604853908
0,0516974451613574
0,0517507199101914
0,0525811022175825
0,0560354931522828
0,047487912562036
0,0469548976351961
0,052899278080144
0,0527698384563019
0,0504692535386913
0,0544548768684239
0,0522659252763597
0,0503240362980306
0,0488466174869063
0,0521968111125308
0,0520597003521423
0,0482519494844361
0,0487142646718438
0,0496684748725365
0,0511117887846008
0,0515474981333814
0,0498474802113365
0,0508575693304635
0,0476589371816784
0,048634796065814
0,0492560016995136
0,051018632193006
0,0509287756216786
0,0495325616762628
0,0485485945293907
0,0490084378966875
0,0469562913997842
0,0457825784672019
0,0474916002370057
0,0476387504732773
0,046329364720768
0,0464312242470395
0,0456344049594101
0,0481960163698218
0,0462026181185806
0,0465321909437445
0,0443682527978155
0,0467600240802038
0,0462818669727242
0,043335700433522
0,045032713879286
0,0463846937567244
0,0456527403330724
0,0464173666774536
0,045098012309124
0,0447121831245356
0,0461622371110273
0,0476920618176357
0,0468810009331019
0,0474722263569435
0,0453175439080442
0,046816210502516
0,0448140482752434
0,0432722431515667
0,0442392454266111
0,0456033255414434
0,0464040247554002
0,0466241200312591
0,0447935834905895
0,0457950359829249
0,0454352065177084
0,047403256407739
0,0452693425767749
0,0437381524466603
0,044713511313648
0,0450977382917243
0,0457327712497244
0,0446013871948455
0,0446065778524405
0,0443392196723692
0,0457685470449384
0,0469724150069761
0,0439735998308258
0,0432510428218495
0,0448327215120327
0,0448819410078378
0,0455851259003432
0,0443229074813197
0,043824088958574
0,0461373694450564
0,0452025137991605
0,0430776509812375
0,0438297048306056
0,045162840479172
0,0447051312225795
0,0469326858766789
0,0420597215786837
0,0427161028701822
0,0438052439211085
0,041856953124019
0,0435892406036366
0,0415571940643856
0,0418451458450148
0,0434029191181833
0,0417470031683496
0,0431653913244611
0,0418643306560756
0,0426176219823231
0,0409393619041055
0,0399960472290416
0,0416363423821365
0,0415097283051301
0,0394960595720302
0,0381964132712696
0,039120479288388
0,0404174919296343
0,0410226483447044
0,0428412158247251
0,0413786636465396
0,0421669397777312
0,0423085212307291
0,0389535846977286
0,0390390463342144
0,0394112730055406
0,0378141832164925
0,0399843361835676
0,0406053275875785
0,0402255000999917
0,0403997864282502
0,0422758916941007
0,0395899262675933
0,0420137711679777
0,0418082003278334
0,0396269300714529
0,0394672971315997
0,0400417291073492
0,0411819209711209
0,041932582399347
0,0414123210625343
0,0420395054242967
0,0408874329168591
0,0438017461076191
0,0421391255458649
0,0402739878410974
0,0404076673528719
0,0389322586585545
0,0398236190787307
0,0410988830515902
0,0409780938722745
0,038380220962566
0,0394385712529261
0,0400730985217218
0,0378946606812857
0,0382546407097369
0,040386914436455
0,041375590872431
0,040129181282001
0,0386758413642309
0,0384104435047964
0,0394390932264422
0,0377214455060983
0,0390926034612932
0,0388643664663085
0,0375451393432428
0,0389148677825161
0,0393590630138089
0,0374535446001052
0,0343485825430979
0,0345437577813038
0,0386710618762513
0,0362178477390149
0,0361723415684166
0,0368756695799945
0,0359452068739829
0,0370869746950952
0,0374469402235529
0,0365312852378861
0,0349452571016314
0,0382350962289079
0,0386946648078744
0,0393826722945548
0,0373468896410103
0,0346182372241165
0,0344801684885122
0,0345067177789335
0,037070490773996
0,03674121741013
0,0345951265552913
0,0335880983908423
0,0341919079751494
0,0364822659335402
0,0388562564223758
0,0361104030971014
0,0356149804553501
0,0348000507827939
0,0343483156122615
0,0356541887958323
0,0348979262731447
0,038034771850538
0,0373318615919554
0,0342096535318806
0,0360406439582782
0,0369016756671712
0,0358763661320272
0,0341078358381937
0,0361011902551436
0,0358794545350151
0,0340443305870682
0,0360325911805303
0,0377630437341721
0,0358898932577647
0,033041602810941
0,034017983425579
0,0342802371990664
0,0339682045560442
0,0333263927074118
0,0338454287010732
0,0333815180065191
0,0351304052803932
0,0361580454041373
0,0352150699193324
0,0344959041678134
0,0322294878971271
0,0332801887924053
0,0322995350877173
0,0330850921246115
0,0327705980553651
0,0317236462052053
0,0323732427224122
0,032414008863193
0,0318468438808886
0,0313909607207896
0,0301121913919775
0,0314063225055467
0,0333551093071454
0,0320072577094531
0,031668924805042
0,0308438463852211
0,0296971567528151
0,0314388333330736
0,0337220822331736
0,0322794145314051
0,0294350288443667
0,0325816391711888
0,0338620025379642
0,0296654101876531
0,0312021797475684
0,0327897628886483
0,0316758337442933
0,0336915605534979
0,0332485851939328
0,0322309677944756
0,0309883308473381
0,0331082121794671
0,0335752728860844
0,0336213495639737
0,0347758125819535
0,0350414320436401
0,034119080946575
0,0337375308489874
0,0314335888645117
0,0319717629283924
0,032514651552109
0,0316248698541325
0,0330031093291321
0,0331907975037225
0,0312123482329253
0,0272096494210481
0,0292201705205273
0,030890772532134
0,0335066299523547
0,0367809373318229
0,0284271517162115
0,0226903151959816
0,0274864002210843
0,0327435770665714
0,0251409667812542
0,0220407688503725
0,023472392224265
0,0265630812448763
0,0257216702899232
0,0287282967306841
0,0279234573580122
0,0237459694227154
0,0236021190904228
0,0302404223536942
0,026068537944
0,0307922295890487
0,0327610475134206
0,0334901948419379
0,0309947845103106
0,0323645501577494
0,0259803068179809
0,0264287181136359
0,0302861448361333
0,0292679989339203
0,0280201455928623
0,0306701949722796
0,0265838418846333
0,0312409148023509
0,0234394622490822
0,0281403509519237
0,0259960231850144
0,0243206062492266
0,0210957920728456
0,0232405583923378
0,0252695899861071
0,0295380315535137
0,0344126769480142
0,0328705652868642
0,026961217796528
0,0231167681838071
0,0253734015164988
0,0312769580763277
0,0352610102614773
0,0263362084459024
0,0307522508371537
0,024499734459265
0,0393830100432018
0,0283522975358656
0,0339152141735809
0,0249142278265835
0,0421140146925002
0,027726962519745
0,0368163695575132
0,0263803481366605
0,0394637388014306
0,0265721583533406
0,035912939489528
0,0345668340386884
0,0346991481499014
0,0277172776097042
0,0366449644455051
0,031532533159795
0,0334515262987625
0,0322540508678298
0,0326118268557379
0,0295697089020715
0,0314702201913134
0,0285634518185494
0,0318180822926703
0,0285106918285957
0,0320905520692688
0,0291496650187647
0,0307739574856213
0,0283733694149758
0,0308005040119434
0,027973272149002
0,031319461378
0,0280370290754138
0,0287781922961917
0,0245974715940802
0,0267405045540851
0,0259108772206364
0,0299492162333306
0,0293598370665086
0,0287908750468927
0,0248507007042344
0,028613842531317
0,0276703116925098
0,0297053476179156
0,0235732750912201
0,0272334302495751
0,027806087533973
0,0283300163782008
0,0273200413839974
0,0281927087302557
0,0252434495242403
0,0297427351679243
0,0288665968696137
0,0281425672588256
0,0271359529822003
0,0298081974131642
0,0257703816029385
0,0305947511878651
0,0281061509034442
0,0284105409801741
0,028236414383716
0,027952618492107
0,0249308968127918
0,0283679541540982
0,0260362134289997
0,0289300180850857
0,0269552557985755
0,0286942456903106
0,0290326705958288
0,0270335388980328
0,0254693113653564
0,0305127482272904
0,0248522720812434
0,0277303255063349
0,0271759605726004
0,0300392837535874
0,0289971319537799
0,0293632502998854
0,0271034363578235
0,0288134438763564
0,0277842010029151
0,0287170621726091
0,026676152110703
0,0281715200784117
0,0258437051157068
0,0287529699814924
0,0269222704157968
0,0263921572601929
0,0259459699095057
0,0271266940910057
0,0269036794402734
0,0277557355175483
0,0242362861843856
0,0263682768918124
0,0244919691194639
0,0258397603558554
0,0253265205431359
0,0278368869275809
0,0247690847891053
0,0264905467935471
0,0260483636788073
0,0282011805574099
0,0261585465403435
0,027489482966377
0,0280137099954366
0,027434687306339
0,0240287640148855
0,0276327294305893
0,0248784429241243
0,0295763454220947
0,0276424918952943
0,0278033231381466
0,026388412353053
0,028045389172275
0,0271731506056347
0,0306450984950144
0,02811532340966
0,0269530886195697
0,0256210247804466
0,02878736723237
0,0276851509962774
0,0270005168033478
0,024476568937014
0,0279961316990401
0,0269722515258253
0,0291807864568782
0,0279146367643554
0,0283014784089622
0,0271086861435102
0,0279795831517831
0,0262210829397464
0,0293785947514876
0,0257550222971346
0,026853164981624
0,0273380402672704
0,0286704247312682
0,0253671679571607
0,0275384652894449
0,0265455120487426
0,0275887150971435
0,0275132619297691
0,0305434452012345
0,0246993181423145
0,0273382787993198
0,027046977641839
0,0269713682804218
0,0240031432760811
0,0265952242141666
0,0256174562943372
0,0262290553445604
0,0256525565391011
0,025471656766251
0,0252944302314784
0,0273433185209868
0,0250922034119556
0,0259129409816637
0,025305660688372
0,0275144440742083
0,0262989628852975
0,0269122605804334
0,0247789866409271
0,027580136538105
0,0273460699307674
0,0260365330717434
0,024098473060743
0,0250599377833359
0,0259604170916948
0,0285841890401224
0,024631961331815
0,0281002992976967
0,0263756488727444
0,0268755061268294
0,0259263336367935
0,0262173876522547
0,0248798704435652
0,0274804650959832
0,0266621043985993
0,028890456631516
0,0260440200182184
0,0287721621578513
0,0247300461759722
0,0277064595797076
0,0286474749487022
0,0270655917365218
0,0260730760414392
0,0282428891096798
0,0258071210871751
0,0262975152671417
0,0279931151982211
0,0280748029484093
0,0234891534704633
0,027321177403232
0,0267505493264727
0,0292399812935595
0,0250028648731563
0,0268898411356281
0,0263179039233568
0,0266406836214094
0,0263802251397429
0,0270684631054798
0,0246954711157036
0,0272482886053045
0,0269077626107878
0,0270682023257573
0,0248142027088015
0,0277400091610434
0,0246123273993
0,0248396225123241
0,0245835266026664
0,0266720967466877
0,024541945234241
0,0275419782263558
0,0251038647527036
0,0246546399616473
0,0245296388990013
0,0277285509605842
0,023286426297029
0,0251532672020675
0,02499887598547
0,0257323230180318
0,0246042753077047
0,025228745122015
0,0253527956478096
0,0254785069365947
0,0240031296564921
0,0263231234181129
0,0241229369328307
0,0233251347963271
0,0225833342031538
0,0265844333328788
0,0234282212842939
0,0261486213108455
0,0260238787433116
0,0249981742781121
0,023726346669082
0,0266699244690642
0,0246705010662846
0,0264056930465094
0,022393694956923
0,0261500459032904
0,02677839847683
0,0249472105015275
0,0264732953699692
0,0284939451168276
0,0253725469250827
0,0269642510305524
0,0239397817932108
0,0249358512129582
0,0260926173907541
0,0247369260724315
0,0225827879464154
0,0275824760976175
0,0254186589690761
0,0277952122522573
0,0236232215657886
0,0265250846491504
0,0229515106241814
0,0268232683008144
0,0246802131737311
0,0236289803588745
0,0245710332018985
0,025860751971288
0,023507131077597
0,0250524184153367
0,0239885223159115
0,024510272941131
0,0229631797982912
0,0257246743676846
0,0224755357028371
0,0247704693520234
0,0230686430086792
0,0250796413737996
0,0250636383688769
0,025176819971464
0,0229793135532857
0,0248661704036678
0,0233281242338068
0,0245786195079418
0,0263341649595662
0,0285750100265498
0,0230571850076452
0,0253555811033154
0,0245809288113334
0,0266943357055098
0,0228041707548703
0,0247173168601195
0,0240948655971306
0,0253164108259868
0,024780567500885
0,024403778161406
0,0219721415343266
0,0262062414070548
0,0232322794423207
0,0252223581874393
0,0232691563028607
0,0238124645715364
0,0238874077192342
0,0269379935056213
0,0236697123533463
0,0244526226400019
0,0237973773265633
0,0276067420289525
0,0215185853277747
0,026172357956162
0,0269030400271599
0,0261432566601648
0,0238770124362087
0,0257455280555398
0,0227204149754737
0,0246622854407615
0,0226956318523943
0,0250367299852388
0,0225602960857653
0,0245058402843061
0,0232312813634213
0,0248548643666706
0,0220007988332174
0,0237791646707049
0,0234536165576115
0,0254920211474985
0,0220954782015783
0,0259860574760815
0,0211091073730665
0,0257903637948134
0,0208390295498076
0,0247451808185833
0,0231280004263113
0,0261218801603694
0,0232195429874897
0,0271705866109957
0,031851634651731
0,0243822303163449
0,0214909218339191
0,0224845246639135
0,0213329398337816
0,0218693349642854
0,0236305932424828
0,0233907500127715
0,0227824967256831
0,0221524922198624
0,0227785978782358
0,0214639980189643
0,021946824081395
0,0203511944226972
0,0202213101715091
0,0230554654534805
0,0219016110006451
0,022670046539165
0,0216434225869466
0,023623318892858
0,0216477250431338
0,0216165621700196
0,0209542704608357
0,0208393882842262
0,0235086615884026
0,0188754019971252
0,0334990109049387
0,0326377996469441
0,023833836730806
0,0243670375025852
0,0257829706383735
0,0258338183041688
0,0225468107604856
0,0235887992249894
0,021977280836413
0,0229031561020429
0,0220353443318493
0,0235710923675947
0,021552442904514
0,0214116232915265
0,020019749669163
0,0221725828463692
0,0193906959818446
0,0218781709791623
0,022341277434678
0,0234745400725365
0,0206589241072165
0,021631461780834
0,0212802286103663
0,0214232928441165
0,0214036720568153
0,0221397765617602
0,0202708916026858
0,0327122565595664
0,0264994446720695
0,0249887490374574
0,0193459876365391
0,0229512566877636
0,0203132478527699
0,0252057821049137
0,019990213108524
0,0239736645458658
0,0179045687327878
0,0216775596071762
0,0224627837370791
0,024100668932308
0,0206523044894896
0,0227615919162064
0,0208307854990767
0,0225840934599548
0,0163735650877177
0,0222878311258719
0,0183164654634416
0,0229836112189529
0,0179795140841059
0,0249868933586734
0,0201657893294477
0,0298252538279805
0,0145058980698531
0,0330216837986242
0,0384122610631017
0,0294483810123096
0,0225638020085844
0,022406112473536
0,020389786940449
0,0212558624133761
0,0197819476132043
0,0214995957522316
0,0194767107405708
0,0210465616910964
0,0208110164802888
0,0219913315593345
0,0196933729866122
0,022870008726575
0,020799253600879
0,0205433940036448
0,0227255863356523
0,0210017692058543
0,01986848286903
0,01935955318793
0,0262039976676995
0,0405954609134497
0,0262116233630699
0,0263776080599425
0,0174042960609141
0,0220425270582976
0,0512763654150456
0,0243564700563216
0,0265979776359274
0,0190233479933294
0,0255636886052579
0,0176639267926264
0,0238052473314677
0,0151984713610793
0,0278078866825019
0,0265209875639149
0,0266148580180691
0,0246662353408176
0,0216134338878907
0,0213737718811395
0,0198725568201135
0,0215227406583962
0,0182808867859617
0,0227943164218205
0,0186635502344201
0,0210883197561698
0,0187700595824011
0,0156140010762427
0,0203818455444322
0,0164792979260437
0,0294439564255963
0,0258101295567135
0,0223449014363196
0,0195859275116407
0,0246598161800659
0,0131304360392241
0,0314872863466331
0,0376590047714513
0,0231927337067749
0,024242958004972
0,0174318002780118
0,0240545273801401
0,0178404929004512
0,0205235029563049
0,0174876849125181
0,0206770837985514
0,0182793028422094
0,0224279219790248
0,0171311261288348
0,0220222688654318
0,0179766073010564
0,0218142252700775
0,0180839604630124
0,0218788628242468
0,0176372794174836
0,0215120839691405
0,020990657937915
0,0216345920465718
0,0438137424938748
0,0448996318227561
0,0433549216730323
0,0325032742137617
0,0295429982509902
0,020315449342238
0,0220489344530044
0,0200842002123945
0,0234638900007043
0,0229957951646302
0,0231377870335144
0,021864508037882
0,0225683144720066
0,020764279572405
0,0198179221321331
0,0178330607004585
0,0184607468291522
0,01851615799324
0,0191087943098305
0,0229512272109341
0,0175540102464431
0,021865596498039
0,0180241486614742
0,0356944200683578
0,0259779468016197
0,0297116291899691
0,00951479475038787
0,0738794396583671
0,032476494472119
0,0400522023459672
0,0239446254193225
0,0228925330303905
0,0184900462005626
0,020069975286828
0,0228040581760067
0,0318625700915353
0,0170493914708831
0,022682764854509
0,0174036175449008
0,0269284840482752
0,0227326085243931
0,0167788377194665
0,0349887289771376
0,059053666866822
0,0300614079149745
0,0334360051971756
0,00951256270468992
0,0420031588886526
0,0474536847866038
0,0249827953171964
0,0292733229132099
0,0242527690947725
0,0227883038144227
0,0185882515325097
0,0194990602682621
0,020145574569053
0,0306553917402485
0,0218331064608339
0,021727471325153
0,0192688422459587
0,0197158030663522
0,0297407815809724
0,0237638941272788
0,0397296601253818
0,0333676504782136
0,0211733015199619
0,028988184611533
0,0242347543602466
0,0240503157330574
0,0235842439902437
0,0229694454409036
0,019049355137938
0,0398832899776907
0,0376454069486894
0,0294551946055094
0,0453479023842998
0,0333623446485554
0,0217960901634458
0,0288842550008338
0,0349392661934195
0,0405594769720476
0,00825899172924861
0,0550293419856203
0,0410237789886491
0,0540856671552139
0,0426934754583336
0,026224015829304
0,0248113815047683
0,0220922676407121
0,0222890641638318
0,0174196595334045
0,0521788277763282
0,0168398555677963
0,0358376117563409
0,00688755186506223
0,0490548880749378
0,0280300173398715
0,0357379929359932
0,0205069904482068
0,0250405067780046
0,0169161977082215
0,0532139702478642
0,0180005342032521
0,0345087456846269
0,0576692846446261
0,0578020116953985
0,0632779260733424
0,0221353962687392
0,0299145590248338
0,0665507759030317
0,0231726888294773
0,0352424902585522
0,0138685990338502
0,036943185400238
0,00804671179250976
0,039875208880896
0,0596279689270573
0,0310048067796003
0,0270861271122899
0,0292983331889439
0,0245323612642126
0,0596801347376587
0,0306929623773069
0,0305442561287223
0,0220920188045977
0,0327766565833286
0,0110140767501659
0,108298550521516
0,0230406708143252
0,0737836245558757
0,0444195785106742
0,0630666182084291
0,0366682345896993
0,0430672968882775
0,0260924726883208
0,055539449185025
0,0476966798867964
0,0389823502275377
0,0139205130935278
0,0674910756682631
0,0445942947792473
0,0335105569883816
0,0380784701708767
0,0244159253042793
0,0284200958623505
0,0841556745233271
0,0963795234528886
0,077653455606145
0,0336397550902075
0,0378452293836938
0,0670312779816088
0,034615729365088
0,0302319326019802
0,0242999666020004
0,0285973763553943
0,0273095600335477
0,0271953906794559
0,0511074862181133
0,026399604287888
0,0408790426537223
0,0199350314336794
0,0370351430811987
0,0505351191238896
0,119056774264953
0,0693647086122914
0,0518462240492913
0,0853490836760387
0,058500244507496
0,0537782529860044
0,0330169050176047
0,0335118656195367
0,046118245194596
0,0409408771937494
0,0370333927204903
0,0307459913488909
0,0817026385980953
0,0387755416406645
0,0759207991020174
0,0558337077602348
0,0503222844305721
0,0420781904351858
0,0528142387108866
0,274950948273106
0,0612797137384649
0,0842343934303564
0,0412335462556519
0,104186246435188
0,110223618558235
0,0684460895064301
0,0533483068494948
0,0531591534661882
0,0423780543017903
0,0636543391717548
0,0639201330198317
0,0687567276821803
0,0827402785669568
0,0623475484910702
0,0514043084015741
0,101293342964592
0,139921887652901
0,153835846853719
0,0860272072322857
0,0750966998903926
0,0959556240558777
0,0973382234303522
0,0665176768002689
0,0902620693573973
0,0550310773023023
0,112078607872429
0,113727165571332
0,0927347195725653
0,0791433732309276
0,0926039174547715
0,121347117934385
0,0736549184714594
0,184074182592555
0,104543704715431
0,117883806871242
0,0809948438949516
0,107617023894402
0,0871653527256831
0,0989894413638369
0,133276683153796
0,116405051292101
0,111013131194253
0,101778912400416
0,104663183652595
0,10564676259647
0,111872960727147
0,112744247138299
0,109934086296958
0,174853695720607
0,141129979958695
0,369125541573564
0,125365951678341
0,13328680880681
0,102267576451354
0,125293653045064
0,156985545925114
0,136769035525185
0,184396308982994
0,13283827399096
0,117205578763129
0,11037016800179
0,114000905243871
0,116794228404198
0,107415797148134
0,116914082562424
0,0955078400465321
0,160210267294452
0,0940604834663101
0,204246516390584
0,158403096625044
0,128001315320406
0,104867290983374
0,113049499125398
0,0930061286756114
0,116210068316933
0,0924163923930251
0,131410861620401
0,120949324717284
0,11093928062935
0,10897671334411
0,0937769511145901
0,141720645532216
0,121730762438259
0,103653652095178
0,102403371697162
0,0890554957599505
0,110548045272406
0,0743320620061104
0,130781347325928
0,130673297855251
0,102080105980246
0,0921946331878948
0,0849058143387294
0,0872715449039058
0,0882356025676495
0,0815711073595858
0,100128848873332
0,0862134967938161
0,0873987768782079
0,0931458960267536
0,0855777696822883
0,0847485942588134
0,0826087628681512
0,0927220724815401
0,0846665849272264
0,0869208872649694
0,0842713695038526
0,0808741608827284
0,0852840872183561
0,0832779639232115
0,085805118803532
0,0821331015403505
0,0932179092837214
0,0905253880356853
0,0802799201567262
0,0857279346347679
0,0821768031400651
0,0865629697786534
0,0863442525690566
0,0850662379629263
0,0809003445207911
0,0794956332646139
0,0831964229225721
0,0815185053148103
0,0802318568500693
0,0838574392929265
0,0796612842178453
0,0846413623683935
0,0762559712307176
0,082952343213912
0,0879668873516751
0,0813138930501867
0,172359645262311
0,0990101165278315
0,0953202969501833
0,0779543774964061
0,0884579067933042
0,0761338792254799
0,0732014406398313
0,14722533534456
0,112773813815215
0,084637819071595
0,0822144847769686
0,0720084590851292
0,108339211509169
0,0848852061770339
0,082451033474325
0,0856060952030677
0,0660689055185831
0,163724312722263
0,128757413327892
0,212147340594303
0,164599771860032
0,111473131476593
0,0722680031303099
0,118384903740245
0,120091387950536
0,0771788128285549
0,0830431027516352
0,0675793074716363
0,145948305766034
0,088238003534824
0,0820278653906711
0,0787903156180478
0,0735857211473148
0,109261186046341
0,115143866145212
0,0944531476430455
0,124533622631051
0,122330719465036
0,111734067869106
0,156491463947485
0,178064089094378
0,120740782733163
0,0749408933870545
0,0856887762716041
0,073947351575362
0,0994236680384611
0,151431575033561
0,0819307358800044
0,10631936462292
0,0649502084236321
0,0783986683413694
0,0728536289350984
0,112894228158889
0,0786716942422164
0,0944696443494453
0,122675609080372
0,0668239311089742
0,107017676722792
0,0845891096536247
0,148969848653886
0,134271655574471
0,0878487160321868
0,061813430527041
0,12954084296881
0,109358132156774
0,0868922736387171
0,0984357888221074
0,0542373190159789
0,0781843152586192
0,0956886545214489
0,0603688156996226
0,103739083235378
0,0874812896609046
0,11717013305561
0,137375499118108
0,166681079397642
0,139136254122271
0,0732957143794009
0,0573614239859339
0,058443654031918
0,0658706299170334
0,067239221891789
0,0433203588964678
0,111749514706714
0,0541552658232264
0,0696266677196719
0,116056713807901
0,0657854314702142
0,0567519319045601
0,0573943813314675
0,049047403610248
0,0702450717302237
0,0890374489509122
0,121891936391667
0,0773205362308136
0,0816206558427336
0,0859565796519114
0,0666217202365875
0,0643153092418854
0,0588647081644544
0,064193626000441
0,0609574701715999
0,0735775865958755
0,0636531941395388
0,0645344704566798
0,0682470277522843
0,0589916046125773
0,114458962662818
0,0975798299434386
0,0672091434182227
0,117856706902774
0,0979259776580271
0,161532815421074
0,0880797520462499
0,0861609942051991
0,0795451084820007
0,0782846299498737
0,0848621219370638
0,075292993037976
0,106518782842216
0,120851445563094
0,0860315137753196
0,0939942488168687
0,0833061773034545
0,0962269960104133
0,0928640660963006
0,144358855093681
0,112290944048762
0,197873252354747
0,143042175468641
0,132723866870924
0,103924843678009
0,093857827659166
0,106568369655277
0,10431249808995
0,0950468643303314
0,0907677573785472
0,101496443852938
0,135975376634295
0,0973419919306102
0,103145904864749
0,094823582131732
0,0987333675554279
0,0933282463376743
0,099621924269311
0,100475286027568
0,0998178638748417
0,0991622421154043
0,100498501091378
0,105955499222902
0,186578808267669
0,118755453752628
0,115417995822815
0,104861657201901
0,119100964239121
0,106286190815928
0,109437941744397
0,128855473958207
0,119048020888953
0,113176566941484
0,113642240468423
0,110268885797855
0,111021677357787
0,128042666231469
0,147683986035633
0,107306671824316
0,133618339237922
0,0981740555471456
0,176565590817418
0,156271016523601
0,147934506931617
0,138454958267483
0,126851589877345
0,123476819331305
0,119381461806672
0,117678966188762
0,120976764036533
0,12430417027484
0,123738138175238
0,119000825107647
0,116851304010464
0,12102821054572
0,117180083400422
0,123742957938918
0,151412841386933
0,122913527268572
0,123156089009433
0,116442428285449
0,120695124615878
0,118715849406917
0,154331470571828
0,134021703022882
0,129429650315615
0,123790332956805
0,137688572151335
0,147232362225901
0,137438775756352
0,112314428506175
0,119638511943078
0,113056089552874
0,125617105377948
0,108498077044164
0,130530986447194
0,148678222495507
0,130240589622404
0,117347647240432
0,119323164053123
0,115498080212241
0,1166511590535
0,117775121486067
0,120228040828705
0,124941220028661
0,123035984902215
0,129279725163379
0,119326131549896
0,12327586533834
0,136281101362072
0,139622797504134
0,13952124482349
0,119161385340076
0,122375710661979
0,114002998045494
0,121466649782614
0,128571060792841
0,121449409046869
0,109012872830209
0,117192874932915
0,108314631900275
0,118288357761206
0,154567340160943
0,121479962119392
0,127705978318725
0,109622610365791
0,105801072411535
0,110529859538131
0,105878361419511
0,104436804851314
0,10509816221275
0,110876590993491
0,102004240203554
0,104883900131843
0,0996245492131436
0,100260788759572
0,101571224848772
0,104691283576834
0,0991698232250571
0,096851962590938
0,0959026612888014
0,0981609148781667
0,09599905533366
0,0991787926085688
0,0986411917492851
0,0995409275304709
0,118412406622105
0,120801591423072
0,123758634399812
0,105392007720367
0,105216060768791
0,105871288066654
0,0979174239862155
0,0992659181273983
0,0936250800258366
0,0987539393582505
0,0934399377077007
0,100102522896098
0,0953520770754311
0,0976333053263261
0,0932734588072635
0,0997564600423198
0,094233205548976
0,0997158670495707
0,0948174814057558
0,0987507447116967
0,0939143425310768
0,102444886521207
0,0981237935009085
0,111557906047128
0,0983007895119835
0,104766247374243
0,101084571861406
0,0985610902242626
0,100600098542496
0,102434123324549
0,106605914850017
0,0997082290341351
0,0968191254784486
0,0964782869976167
0,0973225436072065
0,103785720155326
0,0961052314359852
0,099849299674432
0,096319813102765
0,0974133769730774
0,0938135320067362
0,0978274286165096
0,0946785117829623
0,0934230008943708
0,0912539213283149
0,0913083321585862
0,0912602179963392
0,0924442907113268
0,0883390572431815
0,0882693568984995
0,0863182354143314
0,0899724598485712
0,0862557395730754
0,0880065049783979
0,0867031639768472
0,0848068011430558
0,0849508769004044
0,0890899748408046
0,0858065628154308
0,083645527893762
0,0839885787679941
0,0845308089347631
0,0814555936058542
0,0858960794416896
0,0828079612836694
0,0840991764830938
0,0821356856194513
0,0857967225935147
0,0829178645992025
0,0838193528243386
0,0813006574238762
0,0855533857189149
0,0821399288442363
0,0852405221773775
0,0872939985241395
0,0872534363683193
0,0874818137538318
0,0865669396682965
0,0860324378237797
0,0891942098381003
0,0867849208229901
0,0888554697193256
0,0871898428016831
0,086437411619957
0,0868296950553067
0,0860069401816802
0,0916748121961278
0,0877829387068476
0,08786544899307
0,0904311907847583
0,0872398895556299
0,0863101677878196
0,0873244730512746
0,0906967461752015
0,0885593939943545
0,0893368988604574
0,0856695599493073
0,0875835010646717
0,0878411158889719
0,0879161525281776
0,0853808404648043
0,0869742694123241
0,0851695093908834
0,0890205721358152
0,0860374919980146
0,0864330335373641
0,0852072009987426
0,0862705464096995
0,0848215775551303
0,085720535345549
0,0835980415443349
0,0855144617106693
0,0849567357989467
0,0839125287216425
0,0845998077412273
0,085867260314612
0,0836545215909676
0,0835703119196516
0,0818493495339132
0,0842062333144958
0,0811360427026692
0,0817889024277074
0,081812943459353
0,0818057653981805
0,0815977862718588
0,080492175499862
0,0794429450015651
0,081820138685299
0,080829388714581
0,0801226137066448
0,0781464672730828
0,0798701453581286
0,0786379710413485
0,0783742313661009
0,0749465334570045
0,0777543653529845
0,0769301664814241
0,0769429230026634
0,0750438261241658
0,0748803984603671
0,0732403113512474
0,075728976325489
0,0726823347914171
0,0734725707967042
0,0718153065927386
0,0723320935349715
0,0719409105033406
0,0725821696568523
0,070276803910763
0,0715633656270527
0,069880123923087
0,0712585157784345
0,0702767550437475
0,0707833974694289
0,0704051340442655
0,0706895340792896
0,0703683202798663
0,0704513250121016
0,0675595626848509
0,0687683147185086
0,0677312624123284
0,0690421188962076
0,0660010261600377
0,0654148227079025
0,0653454348199223
0,0673026706616835
0,0659390770517358
0,0693816980330904
0,0675977570233652
0,069577961007772
0,0701125016062401
0,0729071301032159
0,0732308335071138
0,0740764520482271
0,0785079081950548
0,0814989734097381
0,0830480536626562
0,0879599858212189
0,0924279553472065
0,0962012587090549
0,0972932016534374
0,103170431658944
0,106574467946422
0,108991904625761
0,113573882498283
0,1189826348274
0,121061100380546
0,125985987207256
0,129948580496819
0,133267189619428
0,135731573566251
0,139803820444561
0,14215309048077
0,143718322212636
0,147715885356326
0,151064641281533
0,150856301293963
0,155603574639959
0,156680842153194
0,156788075813711
0,159011951541251
0,160667445454404
0,160818661571353
0,162089668645206
0,16118251396789
0,162776761095472
0,16123357004734
0,163159530636835
0,161653246802017
0,160755205032888
0,159760028340865
0,161364570368102
0,159992254963178
0,159607895916723
0,160731341342024
0,161899437560875
0,16358493648665
0,16545295074557
0,165661906948627
0,167999941366568
0,169886024164278
0,171623148842465
0,172995772219511
0,174338209995008
0,173369420490134
0,177371255798601
0,180547654973124
0,183059310480584
0,183944089719758
0,185663264780357
0,188140010591876
0,190998753440162
0,194833824621022
0,197119845507775
0,200045892663411
0,203333607403763
0,203289132273603
0,205154228472311
0,20728537128236
0,210593528553411
0,209287514068487
0,212853519752423
0,211522710484404
0,210621542530128
0,212497800867892
0,213546842883456
0,212642396216592
0,213970918513142
0,210263207357013
0,209553607162609
0,210845941020253
0,211390924868072
0,211876855996347
0,21473991510661
0,217358044421127
0,218181095677016
0,221231215810215
0,224627379222382
0,229030776027082
0,232848108018496
0,237318672080262
0,240294417232565
0,240886152989159
0,247973624779454
0,25032601343711
0,253760315720718
0,257925817348055
0,266712378821393
0,268418299473469
0,273854060404552
0,278027958358198
0,282981043746563
0,286639922361433
0,291661920893443
0,297869649719606
0,303236488530265
0,306154646089446
0,313756364256477
0,317442788083386
0,317191406355906
0,32360090698869
0,327790088087461
0,332232146262252
0,333183889916686
0,335232162567492
0,341241490643188
0,343995583382162
0,34298861216149
0,341987511515199
0,344142799165578
0,350044490612836
0,34838636045559
0,346191172214823
0,348242547599108
0,346533844270429
0,343648573822895
0,343562219849871
0,338687736450855
0,34066819494455
0,335638787925527
0,330770029104251
0,329184017306454
0,324648291061455
0,328256875880784
0,328681301111725
0,325509462139492
0,327944905134198
0,328802787305194
0,332756527925808
0,334698965598515
0,3342559463796
0,336012547821056
0,341369632986401
0,339848255276559
0,342338275542421
0,345024055888996
0,34547837304477
0,344632330428821
0,350656411416449
0,350203763649646
0,349942641466145
0,348969586378395
0,346953309129936
0,345495954420361
0,342598800231351
0,342330798580169
0,336720924042663
0,337282390962091
0,337886189269305
0,332979598580908
0,331647622074289
0,333640179514163
0,330751889627944
0,327813892609867
0,327319822135821
0,321448829232055
0,319923342294187
0,321076452486903
0,317515775837446
0,314279787073515
0,312582204689868
0,30908066560376
0,304388142037629
0,302002597652763
0,291471768773262
0,288410873366421
0,284389324091461
0,279260240394155
0,271114769959108
0,269393557293339
0,259272359465814
0,25303379295178
0,247158798542792
0,237353052421947
0,226725001723047
0,217895360047275
0,20787157518728
0,198374237238364
0,191693978976097
0,184748393158328
0,179294478642176
0,174264401562365
0,16619004990836
0,164709019913478
0,160699802225912
0,16190641039098
0,157542282668328
0,157453076982766
0,154907516291398
0,156064205778293
0,155140776279114
0,150730816705313
0,15099260164086
0,149389943083711
0,148360167763655
0,147903229402466
0,143960957797817
0,140397188732498
0,139101281180729
0,136543520786763
0,133640459046835
0,132664076317357
0,127453645286947
0,124119064723181
0,120818593978459
0,116240746713796
0,110347877806289
0,108464675053368
0,102253742961007
0,0992053883785423
0,094854448308178
0,090507763789216
0,0878626092803998
0,0824310350395199
0,0793467158495652
0,0758687086784591
0,0736855460695992
0,0712037393228936
0,0666980365790749
0,0629018658157209
0,0609633061539933
0,0606772696644566
0,05724694906488
0,0556288513859499
0,05340801479809
0,0523643846926221
0,0508128354682941
0,0517531123722892
0,0503198463671718
0,0509733493592519
0,0492598146933488
0,0482506737593634
0,048355604502473
0,0501970897387736
0,0492595809446335
0,0460336109530767
0,0502794952376537
0,0495704132805999
0,0520927121376223
0,0485974627632939
0,0485638494722294
0,0505422073646141
0,0518150839325141
0,0499830192342841
0,0495833368625995
0,0512541945266416
0,0520314134848565
0,0516101405326912
0,046832522982865
0,0462771615186805
0,0509271904328077
0,049326296700804
0,0521162712873991
0,0491477166128932
0,0476928343012808
0,0475476454899478
0,0475302595051559
0,0485640523398611
0,0448713844580359
0,047124944104894
0,0488189021035567
0,0483436404205561
0,0497046225319887
0,0516789078416967
0,0522656280038114
0,0526538425961867
0,0502189973685745
0,0515011666192649
0,0518762943139921
0,0527561179630724
0,0566055077808555
0,0537944101466206
0,0531626280935012
0,0522627586786489
0,0555095424589099
0,0517697917369103
0,0573282766347842
0,0545067173279912
0,0530279553070704
0,0557939050198684
0,0563281186733382
0,0577994350437411
0,0578002676333513
0,0573156297795631
0,0559840987942016
0,0558803373919038
0,058135950682131
0,0600463296336641
0,0548530497421991
0,058829743482602
0,0682334801807662
0,0660011419182714
0,0676197483123606
0,0680640275018876
0,0719603311611573
0,0734348208399397
0,0758284246727587
0,0772697736007701
0,076820849241952
0,0801773117938133
0,0828374701052387
0,0778514558592452
0,075131258070634
0,076926611874069
0,076297486493945
0,073615358048707
0,0705361683218161
0,0716002822010294
0,0724980156414757
0,0674070053239867
0,0708356425532665
0,0707034341445273
0,0669673851909051
0,070630150241517
0,0713790342484131
0,0639794433090509
0,0691907469601286
0,0673281596524788
0,0578341820127918
0,062018987025901
0,0659433347828727
0,0661556575407629
0,0659819857941242
0,0654790406374554
0,0644348963550909
0,058474539622876
0,0649599098421821
0,0601171889010759
0,0619736824176532
0,0638255066979132
0,0615744471874366
0,0595558763586837
0,0617219543151582
0,0640919584107781
0,0639826136710175
0,0607853887328308
0,0575120332339768
0,0583242969308976
0,0633056088663708
0,0574062340060448
0,0562323068929398
0,056977561418443
0,0574297865466883
0,0581738797312994
0,0532070315825996
0,0526596074296091
0,054859232593478
0,0566096680139032
0,0557903953855372
0,0483554210476148
0,0474597281913055
0,0464801108373925
0,0491092824543679
0,0502966371737259
0,0492790586582392
0,0522189191374957
0,0534750669803468
0,0539239982291815
0,0491778844301373
0,048287460507531
0,0488435248200794
0,0409592563978741
0,0480792012008483
0,0517916160617011
0,0540506742488064
0,0515940351960624
0,0440445423882487
0,0380110620552053
0,0441547558948956
0,0442483009531863
0,0528575434577934
0,0578263230599751
0,0420357180156627
0,0453616473452142
0,043018227528293
0,0436236333719316
0,0514198263865111
0,0465012624055312
0,0499582650199347
0,0489463057577441
0,0561729337877427
0,053516490268372
0,044813500579534
0,05230443956133
0,0586435201282093
0,0579664699592653
0,0523965480932131
0,0494833898301481
0,054961784399688
0,058340975453088
0,0477992375964378
0,0552928927757415
0,0562870335638465
0,0563613945834373
0,0570752729174889
0,0588192496851494
0,0657684666183709
0,0625026367806363
0,0604578985558959
0,0648651176751852
0,0670172474831949
0,0646192476522588
0,0721164849844545
0,0731510444183531
0,0769966161302621
0,0765464156442094
0,0787265228160325
0,0730786563863437
0,0790092806961064
0,0751136452384796
0,0909856996561868
0,0911494525496868
0,0938406043013661
0,0892169853732578
0,0911789577756999
0,0948597727500912
0,103156503602697
0,101026602538338
0,100765398658808
0,0957714937728396
0,100489614967254
0,089026702800902
0,0812417714835294
0,0913937880643953
0,0945064973477148
0,086413795940313
0,0838433767453196
0,0891375408800165
0,0857941784933171
0,0846665687456309
0,0940807775330121
0,0892840901060437
0,0720611267651931
0,083269670409191
0,0892643959239368
0,082411722825532
0,0892375758574573
0,0870507785601984
0,0750750705654702
0,0836411850009968
0,0830258377244723
0,0801383815210688
0,0799902286643216
0,0693427296765626
0,0633790341647759
0,0828378444554083
0,0613200355854518
0,0665701662433211
0,0835782196456527
0,0793596526137989
0,0693016131038344
0,0840308198078536
0,0721462895196841
0,0799202156280011
0,0820968658462869
0,0749143811691342
0,0879206027461046
0,0785112123288059
0,0872649002416465
0,0816395632385023
0,0837849040412484
0,0749086236741988
0,093392420246739
0,0842144297226501
0,084307197197402
0,0804094942419257
0,0786378030237702
0,0846076255790854
0,0822470268870961
0,077218352185005
0,074024218229644
0,0860626680636102
0,0854577830944007
0,0660185654500424
0,065740367094735
0,0807122489755611
0,104627487365829
0,0931155504190219
0,091217566472219
0,0986792444385263
0,0849210725950285
0,080022623655636
0,0869133932005405
0,0889383867756898
0,0952231901637665
0,103110422214818
0,0984485470100658
0,0709379532268149
0,102138788528078
0,10212102426971
0,0776188470326625
0,106115359642448
0,129664991614727
0,108854101133125
0,10078779085575
0,0980472948900853
0,0962299379745295
0,103159932639333
0,134200779652021
0,107328077043433
0,107078130503579
0,119166830376133
0,137493160966125
0,132018674600362
0,119195464951137
0,109879266041951
0,130739514904537
0,13677770955429
0,0936056348004261
0,0914467453204497
0,107891824327293
0,115364988938313
0,128254328636484
0,150649808167346
0,116901615928645
0,0857718502136031
0,119177346206356
0,114206049949884
0,11280199374779
0,115736285121688
0,112891766340319
0,0967914532499385
0,103762411937605
0,162745325956059
0,110468470409161
0,0756117010290849
0,162832617259921
0,120474703720068
0,141733786682166
0,118286338154083
0,0953448586936246
0,122378458581599
0,0870575859425794
0,1185861567803
0,150245064293223
0,189944909075651
0,139318220078747
0,115587086098782
0,109261814738562
0,130173064213672
0,135023245908988
0,123808832873209
-0,124418632487139
0,105467426280327
0,204712511314184
0,12083018709143
0,0564036572928899
0,112706998025594
0,11741286523671
0,0717845105413575
0,129730233280557
0,0148833004781318
0,211306799675577
0,0206954082565279
0,102295461025073
0,206637066223507
0,0933984997689414
0,104862012294841
0,224253237056438
0,000483356587204123
0,0590395704806672
0,178918926821172
