3596
4000,36533379555
650,420452594757
1
2
2
0,0422277773841484
0,0444787091194529
0,0320882879200844
0,0421626187280142
0,0405052058525302
0,0360314424574214
0,0364888497420765
0,0392003074736259
0,0310852401469953
0,0449209523311798
0,0400023930028996
0,0333863625223378
0,0315072866096581
0,0303626602651171
0,0317159898622776
0,0394905171636379
0,0387625051109512
0,0456044367056138
0,0335421073304736
0,0417029499008755
0,0347015769936664
0,0325554083481861
0,0372474989693903
0,0442911513211696
0,0390116989969511
0,0399791463481896
0,0313539934354109
0,043939915339901
0,0470745572298093
0,0390705431952528
0,0332922759350051
0,0431980142082544
0,0354306558473402
0,0317447598541014
0,0360904908763881
0,0360621257335657
0,0322066832717699
0,0420712138897656
0,0397153794857116
0,034649283698564
0,0351123630684442
0,0418724554440166
0,036233344838203
0,0426173234125612
0,038536541110697
0,0373508496281945
0,0374615152270651
0,0468813231218711
0,0400755938466275
0,0393639433312416
0,0378945377857078
0,0367658562266615
0,0397881717934375
0,0441486474401889
0,0483787354507579
0,0386491919315589
0,0265678411042356
0,0407837761748593
0,0342705530086202
0,0443190042601702
0,0545541918831124
0,0330360054167094
0,0358861094064289
0,0346389693228119
0,0442982282568916
0,0388671466307254
0,0347285068376602
0,0292036485987351
0,0422899061228055
0,0347538544264875
0,0313245780018365
0,0478383926972937
0,0379606267792884
0,0408024431992826
0,0383844772707453
0,0406742433301043
0,0454323974445602
0,0334616109770722
0,031618159621787
0,0419098172914864
0,0394083262713
0,0406621429041355
0,031259315281807
0,0285848089618734
0,0475739005914108
0,0414242299565049
0,0312772578001573
0,0459287008432958
0,0384811569899609
0,0365517534593003
0,0392803350301324
0,0342875183876106
0,0331534579640499
0,0435882501618712
0,0358414914257799
0,0301725723394969
0,0324139685304535
0,0277666332977933
0,0279297758706987
0,0370669364999903
0,0415095801723749
0,0715271650335349
0,0258426259658937
0,0564341282963256
0,0422221760291679
0,0297859657379974
0,0504638173995603
0,0246787239161748
0,0399798670849901
0,0302745864762152
0,0357768223568963
0,0334102578740474
0,0398297208129143
0,030719119984193
0,0506146185664507
0,0499071247851216
0,0314271760632767
0,0306768227284832
0,0294589221716549
0,0328080986057376
0,0312281261430012
0,0553981964729801
0,0265744663920994
0,0442267647473388
0,0331477411781203
0,0379740178343363
0,0508994789509052
0,0546548881833292
0,0253683649668459
0,0408373092080481
0,0314414094066806
0,0351247780382161
0,022503242088685
0,0550609285497277
0,0376350621241923
0,0285599989415041
0,0328044385526017
0,0455984839263013
0,0543157695701533
0,0340252343115963
0,0367546138221733
0,0329916025861008
0,0333302348032958
0,0593868821791318
0,0394389112911275
0,0350309298074928
0,0420189599862301
0,0456223685340982
0,027330145801911
0,0344343532928257
0,029164606628184
0,0404189576138942
0,033438715923371
0,031379332084301
0,0511290937531633
0,0738588476180623
0,00596451340421014
0,0624900274671921
0,00717467615006248
0,0370042222272101
0,0248934639583186
0,0285832380782359
0,0288393255460414
0,0308800717496922
0,0259241081244384
0,0394918800462401
0,0631462627508426
0,0294147181077876
0,0376213189604696
0,0507391332164138
0,0471656813743014
0,033929554767467
0,0616478273171375
0,0383625881782393
0,0221241872328817
0,0448109500744276
0,0442846837422603
0,0296443163793205
0,0256023785405956
0,0493713040815097
0,0205087504554198
0,0394581459377267
0,036556460912871
0,0396293907046432
0,0415624563479908
0,0390495671783132
0,0341593932063848
0,044270034911241
0,0250855592741899
0,0432466791572543
0,0503437586655453
0,0439942396718218
0,024215505674658
0,038124624053785
0,0265893027258952
0,0539220824770241
0,0391620082674645
0,033433443394783
0,0376973661664606
0,0291204848661998
0,0251526272244964
0,0319421657590842
0,0330956681033531
0,0371832062477905
0,0227113407253267
0,0488262307465558
0,0433214298790697
0,030081336534314
0,0320518733226406
0,0399050049745071
0,0406049069321174
0,0565057717525916
0,0398732201361367
0,0212783423299658
0,0429676779668294
0,0219964780641046
0,0447947300449888
0,0478949809300199
0,0299927554791878
0,0331966762429151
0,0320391103940217
0,0336689491001387
0,0356016299468647
0,034012588849224
0,0322242207142539
0,0330126438314916
0,0319374737027881
0,0342871291330341
0,0361517708972233
0,0363121326615627
0,0362074242061369
0,0328372382069687
0,0341447909055253
0,0348115009963369
0,0341511365047395
0,0496677227768435
0,0270438746322691
0,0336027079266736
0,0267235362950604
0,0327928300056356
0,0293110339079617
0,0334903205209539
0,029832518875667
0,0347637197773341
0,0289455863892012
0,0596706768609834
0,031716298679015
0,0337995385859903
0,0327579085439633
0,0461946796373941
0,0529286354650359
0,0302808909064632
0,0395838420868697
0,0303400822925452
0,041350243831899
0,0331071048552826
0,0516906615296945
0,0415309592406165
0,0376722052452249
0,0371678330315113
0,04496037829247
0,0268043633577526
0,0442217300770679
0,0339342419254756
0,0699698514563183
0,0321897876585959
0,0389242723926621
0,0751645720268845
0,0181127437233721
0,0242309494362382
0,0388928466895305
0,0292968184997596
0,0756660456652549
0,0445791185493
0,0422215558272384
0,0356822935560581
0,0360052654906802
0,0285564588214089
0,0403041844335121
0,0459019807181687
0,0459141433013123
0,0600476444210725
0,051553774151414
0,0732459316734853
0,0240387320835387
0,0416915754295586
0,0658285036705276
0,0320887422599708
0,0442500798507077
0,0326122080327701
0,0356082610505973
0,0435787858760932
0,0520461637646493
0,0344118510572353
0,0517055184671862
0,0225886791228054
0,0602059141635681
0,036729873240902
0,0422454921975498
0,0418724345071355
0,0497163153427009
0,0321373940921013
0,0466741158406392
0,0311674984570763
0,0432327540751749
0,0395849745337491
0,0447917903605472
0,0644924603600839
0,0505329195263413
0,0245702761792222
0,0624579736646135
0,0374032183741394
0,0362565072026754
0,0329567825879856
0,0487369243800722
0,0391243952815522
0,0470057992197693
0,0410660512165533
0,0612415983959139
0,0473498024835898
0,0387193391418941
0,0459336540840513
0,0445380989844628
0,0439758538594386
0,0483076208648237
0,0457414787279701
0,0420704407784059
0,0448490247170147
0,0493042731340533
0,0435901827753027
0,066770692098482
0,0376573950276347
0,0577820136626499
0,0726222474682937
0,0309047307025827
0,0496743737002914
0,0509323757932167
0,0517518806199322
0,0483750033741183
0,0512151461923261
0,0546977174910582
0,0476833333711192
0,0601623944711914
0,059423531633537
0,0528084191274445
0,0630472405749784
0,0747935994132622
0,0776998151407567
0,053094146937382
0,0636797932018612
0,0564780949846837
0,0650314190080627
0,088989452162593
0,0479401095757482
0,0871536533511686
0,0536964383549446
0,0673590890289926
0,0596297210580662
0,0675304778421717
0,064630465990426
0,0701265033076535
0,0630235067681626
0,0713142299269828
0,0724549785601335
0,0739907245540324
0,0746449936573252
0,0693181167343498
0,0949369061741634
0,0782043453314019
0,0685406231830918
0,0839369713006042
0,0746449602871392
0,0994834650708992
0,113676617299438
0,0947859444859919
0,113814553735829
0,0840009835584275
0,121593430805177
0,100269475365356
0,096011336519693
0,0959936990661504
0,0961597971261093
0,0959323926084666
0,101207185713146
0,103389754809848
0,103311884091837
0,111804242201831
0,110280855601612
0,105062840100142
0,11676552218104
0,109418666014399
0,128328355907658
0,123616400604653
0,106899667505766
0,120741267906744
0,123388774895423
0,15498367469469
0,157036168548796
0,130909864401485
0,109689608354152
0,137116630023871
0,111189048081102
0,147426733300532
0,124230126177401
0,141569996641466
0,135255386888619
0,162436469634419
0,149915760804496
0,14995605149618
0,168389570365621
0,142388329834009
0,160650398664913
0,173931912648926
0,151778000772603
0,184983869986262
0,162092315503941
0,157094085673242
0,157064535639725
0,192832013296118
0,147767520648086
0,198638732972783
0,154562486196825
0,172488414816186
0,171420401413724
0,189503321642024
0,178612046875526
0,182311445076225
0,189090022015305
0,189861982691522
0,19154034661997
0,190798456667565
0,193754993866689
0,207292168430344
0,213732143038035
0,20043907721573
0,212410932650415
0,219461025949394
0,205255818946235
0,215067789326132
0,223308868463647
0,26260115644781
0,208084514207632
0,256461898096443
0,199532632104169
0,223699252327609
0,227687900468696
0,246738657232074
0,234219459968978
0,243281903521249
0,24067396700451
0,256935273356544
0,242823735196993
0,256464279839221
0,242980127593064
0,252441566979776
0,247199060369329
0,271023621258026
0,267277109581935
0,270214310662501
0,264357468185302
0,281805744879554
0,279899450971937
0,336979248902911
0,280205521997918
0,329495609463379
0,268287535306602
0,290138220325575
0,287477138899349
0,307650293069593
0,28986414853042
0,318228579665951
0,320791127848175
0,314694781956654
0,310730483234756
0,338948374518064
0,31388945677298
0,335050327678813
0,325319633304051
0,337977247416986
0,339368509900673
0,342693970392757
0,352266266504829
0,350330309368225
0,349883712892002
0,373559572590035
0,358510919327698
0,372958999955205
0,373321689502442
0,359776485822184
0,357180391306364
0,371496020572086
0,378122995454115
0,378577660656446
0,393454112211124
0,405105030939706
0,379160361953788
0,416721062590896
0,407496692196818
0,406812952042512
0,401327211257375
0,431829368837036
0,412326279989845
0,437604888975297
0,412548349190098
0,440159106370239
0,421774893403993
0,455148865904627
0,426339330198517
0,461286880980457
0,440401429951801
0,471019621208931
0,435509466484657
0,454559110805156
0,457097130398616
0,488155968913941
0,473133590938414
0,48064641697734
0,482500509725949
0,482888748607077
0,457239508302415
0,497954500139658
0,482189044387648
0,496970220828063
0,492398434551503
0,532672718310549
0,516776151597248
0,544416914854733
0,479593897790602
0,529141547079123
0,506414404472738
0,588743523205529
0,509793125285461
0,541754810465863
0,525402967434592
0,559326199650807
0,554367286654662
0,544798141788759
0,534717195115418
0,603317254063831
0,55100478133379
0,583695056449021
0,547409502019603
0,578316135053901
0,581237949674013
0,600958134632562
0,588290904588482
0,600810931650078
0,591180054851293
0,620272093177899
0,58310662153717
0,642120267323024
0,59847410317905
0,674588855358348
0,587866460522979
0,625316433298877
0,626996365321358
0,642958605209472
0,605255258852806
0,680175075686994
0,635072710637221
0,69546510208307
0,633017119581719
0,670747969484012
0,662274775216963
0,707361175462508
0,631242575093708
0,715540742403825
0,648352846754429
0,660432740744147
0,646677956140188
0,720991945172794
0,675089498183978
0,735558699516439
0,692202808712464
0,740662898743756
0,716430527349504
0,73939489599196
0,704549243877293
0,759426777489819
0,722790717961225
0,740735284446972
0,704720332436256
0,758756859569778
0,708354508037206
0,764456399775835
0,756405590533605
0,783459637725364
0,733026204004872
0,773377455805563
0,764241531361603
0,773217887217476
0,756166231425913
0,834291658911384
0,788429275178676
0,80936377205329
0,757142963392843
0,824992187392539
0,783988796723002
0,864021812996247
0,775172388866452
0,820630594089326
0,781213584115602
0,802158769087981
0,788796724897305
0,797780227031617
0,806356384781964
0,848269920200928
0,826084982151079
0,885935631132031
0,808625931366528
0,843605751752362
0,820413268410752
0,911565863595322
0,81058475673141
0,902482242347042
0,834119750436364
0,918809517148711
0,87483465376131
0,88975881309758
0,846921134540367
0,913671375994616
0,840275836228904
0,904407388529729
0,869223691975861
0,903609080985921
0,875441109403284
0,914344077913067
0,882752059448068
0,9731010020398
0,881120019122007
0,930902909960033
0,870293185631187
0,894970730332005
0,882041036762709
0,97172930548675
0,903791919956215
0,972281797602973
0,894145507027545
0,952343335952824
0,943171791529104
0,906772246402334
0,90285002668554
0,964367966416412
0,898242838125459
0,924212126403591
0,932739270451835
1,00793412377815
0,908836170116593
1,01438795635278
0,989156322731331
1,00693430855321
0,91840482245734
0,975270974620103
0,960379431494186
1,04853287818838
0,997867157719927
1,05888160436885
0,97941714317226
1,02261363866232
0,948076711290487
0,998896493178264
0,94096797862526
1,05997742537654
0,956576606196498
1,02854343905934
1,01949195258875
1,05406996200135
0,932755576475985
1,04421284485585
0,953776848260489
1,04867105186676
0,964240911761137
1,06584346260615
1,02592172291543
0,983156504959798
0,975273489421081
1,02616265180866
1,02591986780642
1,04695037168693
1,00999358199534
1,08035965650238
1,0176477103389
1,06544109499881
1,01935121513904
1,07960574326584
0,984127535800702
1,09361410383494
1,04557795472153
1,08768258653401
0,998425803220686
1,07669170154054
1,0237721328356
1,12555405040212
1,00201158448922
1,03138256180358
1,02279062038178
1,08140055817938
0,997554950576531
1,11999484633197
1,01329760442879
1,10832016142703
1,01149272197276
1,12953891181302
1,07051570782197
1,10180784470251
1,03006727553347
1,09068377827531
1,07150377652147
1,09832326888084
1,05743998949175
1,10048049874099
1,05747379390227
1,10074065739021
1,02167035321314
1,0967804565169
1,05697602494617
1,07692566626661
1,02005339985283
1,1152271062951
1,04347253543736
1,11246618657149
0,992376935301544
1,15898602835111
1,07124161281373
1,16022322743002
1,04972312778625
1,09079619538219
1,07090708763008
1,12505617814794
1,0276689429152
1,15152191796274
1,07430900440376
1,10414498656593
1,08218404233863
1,14597748320824
1,00975860824796
1,14842916731826
1,05824492917141
1,03578447429336
1,00623274699067
1,12124043728014
1,06088254405656
1,0918240139945
1,01765391356572
1,10308326479366
1,0328684241184
1,13802384130816
1,02140016409529
1,13378681599136
1,0307358583032
1,11760656674788
1,02212633926494
1,10719476314314
1,04691476238433
1,09782331606737
0,99097056205151
1,1292128701256
1,06811450066733
1,10478552050118
1,0636115594054
1,11350583395982
1,01579288532221
1,0927386249993
1,04195848571993
1,08837879284032
1,05259949747492
1,08750677262245
1,0428318709686
1,06956009703423
1,04518677363335
1,09595160417373
1,0569422340559
1,11714101446992
1,0337677259352
1,1429669415135
1,06070326237284
1,11789264504245
1,01945510491712
1,06602642358657
1,03104224933965
1,1183719183514
1,06963033390243
1,08592826273181
0,990375420705312
1,08136043565557
1,00005219466385
1,086456876075
1,01610095056629
1,08321611789799
1,00381983784934
1,08479200027616
1,05188276206863
1,06440563870577
1,01076013445951
1,07405124239501
1,00910268933595
1,09708614400937
1,0134747885747
1,04129942333304
1,04745723000057
1,05831024408225
1,0049987964361
1,08090503459802
0,993060139221086
1,04203309399844
0,979967634799901
1,04448095076827
1,01301304648094
1,05563801249904
1,01473754892697
1,04103561817361
1,00069712185805
1,02033688559202
1,00730810735385
1,07641943855539
0,968119885046562
1,05785731350972
0,983316402317545
1,00667747502356
0,95375831998485
0,997580011263064
0,946215731235499
0,990059911434547
0,961475261057753
1,0213499030221
0,990390192833136
0,990331854742189
0,961224869904556
1,02478576966584
0,946961022171297
0,984397619918051
0,9384662528497
0,995833881380189
0,944301898216463
0,982622012403155
0,963216800093019
0,989880842313511
0,945050109000734
0,99696638007636
0,932432575814936
0,959288983356399
0,936481809521445
0,923812993122409
0,909365409921683
0,99832500887448
0,954444360270031
0,958445785243778
0,926180106141465
0,938207094367337
0,882404386601468
0,932132842150878
0,908968919895438
0,937091232774933
0,875178621842412
0,932892432765692
0,891280345378518
0,951264747715138
0,866755460287897
0,931326038336282
0,898924439668809
0,909571385116885
0,860731195191906
0,902961160491998
0,882408331482678
0,922083684992291
0,869227924374477
0,929578667935532
0,882071509194946
0,878318992051692
0,847162832064662
0,858899177417932
0,854537017128826
0,879011851915018
0,845844462758065
0,860791572733816
0,825801538499185
0,871815561341378
0,841816487989839
0,862551260569337
0,839186549505064
0,831046907213058
0,819790672499321
0,847232315146053
0,804055777586552
0,825195756723433
0,794167318300728
0,822143120875098
0,81021667916786
0,80641525803479
0,776610638370479
0,820162071328987
0,777051868198522
0,816817964050847
0,788284106026846
0,795415593985972
0,769818473001109
0,803465172051325
0,77631801665798
0,795763172847825
0,72052877627988
0,766822115758958
0,734866135431437
0,770698693266398
0,739617447054731
0,777059649337146
0,747468641698445
0,754002610969396
0,744983023382865
0,740540918902353
0,739798589280801
0,734497984571815
0,720862957522576
0,739353156580969
0,695158689585046
0,727617499143191
0,726203500004777
0,735276525930554
0,695851612195611
0,70530866373869
0,708402645550889
0,697281645500145
0,676122706011773
0,708849465563159
0,67948822039613
0,695586723140287
0,68034402596881
0,700287668470144
0,649694787149489
0,687082158109522
0,65561881483857
0,667597407225983
0,652411928915753
0,670095241677865
0,641637738993942
0,652291359010764
0,63524792071442
0,65261934862292
0,62909084363359
0,647247162532764
0,637843921014633
0,649393269853244
0,619463349453107
0,625086152698148
0,615990282960257
0,626389446833709
0,602073950206687
0,610590741355867
0,605325329199695
0,613130653383394
0,602118671779186
0,619528306145079
0,594995474652066
0,611676313688785
0,588156758067375
0,606000046630543
0,581927764710909
0,585838116897857
0,569903256055712
0,583393416102711
0,561066051314555
0,578176933238297
0,555109980345521
0,576475003793985
0,55015055333301
0,569876633849619
0,552597414607784
0,563315411092664
0,550606628668543
0,539587926933489
0,541585793811718
0,56020644948873
0,547613055706139
0,546130083889461
0,537203529395888
0,547445508831697
0,513746893234075
0,539750715895026
0,51142919806372
0,530585966028746
0,511445196194245
0,526272960017092
0,513397519679492
0,517286191835978
0,512415531085098
0,515138025317541
0,499531785406432
0,510808375927998
0,503766446471773
0,512289146139477
0,498895444359896
0,50564772930693
0,490788484271551
0,500271227828596
0,483246396149257
0,494011191337042
0,47509963208362
0,486803797594193
0,471781544066312
0,480376005541191
0,462093059981335
0,488044956161905
0,465562749567431
0,479959210572284
0,44877031605637
0,475480699455304
0,455301300981929
0,46181464893914
0,456275845096744
0,471167100718101
0,446887319773758
0,457701081815349
0,44161109930976
0,453258146877612
0,43198921955918
0,436987362155472
0,424290126029536
0,434461230349515
0,435414041734335
0,446733643457742
0,420110150608042
0,438644881353923
0,418276167563453
0,429282027983339
0,406381096990076
0,425839027479165
0,412085377307359
0,417648293133858
0,400681341345406
0,423628531729582
0,404816190066152
0,417750773106076
0,39795910804813
0,421058965914349
0,408114755594284
0,406470717412789
0,396948658186583
0,408490797208097
0,390024553202977
0,397595938908031
0,389374701528337
0,394917114336773
0,379091750613784
0,389586284686424
0,380365121269036
0,388306886173744
0,373067261335405
0,379802243706599
0,364087003461693
0,381684629043934
0,374543132294791
0,378011682291265
0,362423705034602
0,374272826510041
0,36038903079225
0,375369457482516
0,367486007677981
0,360031881019828
0,357136118158714
0,357491313813368
0,352581372902639
0,357751947490844
0,353399041657528
0,358620298129773
0,354959081668945
0,36000769551132
0,349615790026928
0,361300613422431
0,343760873048021
0,348371839203077
0,345819890755961
0,350447740446857
0,33473047178934
0,354684576026998
0,340211256982244
0,341952442770292
0,346396349492055
0,354431318393432
0,335954972620068
0,346605423640435
0,335193780145687
0,343354189100281
0,338303317514447
0,342862581762809
0,337476906912225
0,350398403082505
0,334303373408177
0,354033734433683
0,335207978388383
0,349717675449165
0,332624101071191
0,346259421889488
0,342576321759219
0,350238367440405
0,345017914726187
0,349702992827334
0,34628608896249
0,349318970784127
0,344865306004808
0,350737745971998
0,349634460298206
0,355931448234119
0,345996578752842
0,356509343444133
0,360077850921697
0,363539779226763
0,356887955741878
0,362759761099249
0,358765809032073
0,373580737162679
0,360455071964341
0,372342839852003
0,362817768496677
0,367978196106931
0,368030191974045
0,378353988868768
0,373172168472808
0,380032014374076
0,377140310820235
0,388506054331048
0,379679218394829
0,381682018028234
0,382927477050772
0,396635162215856
0,388628053519367
0,397464624252048
0,389199975382439
0,405415956682491
0,39363616456772
0,401798744919362
0,406748307284939
0,415481708216525
0,412567993894861
0,411762262577051
0,408845597604478
0,427338510165644
0,410220312461502
0,437491777232661
0,427897597052391
0,438724117354485
0,425442298698199
0,438262999648591
0,43543293356661
0,439543015151033
0,437886191765096
0,450070776675803
0,444231427419595
0,45323102857531
0,44746363770311
0,450420367270506
0,446289526404926
0,445719082690404
0,444168020078229
0,45085194085085
0,452854565108727
0,4594943582535
0,441464992574478
0,45660404252373
0,443714107255587
0,45605663351201
0,442311703538951
0,447798419845265
0,442427245783066
0,461257780669942
0,442185769548584
0,448136550589064
0,448059276865417
0,451691807609512
0,440178042190198
0,451597660185648
0,444434863949184
0,453294149652692
0,442758822814632
0,46105235777907
0,448277640745755
0,459480248522833
0,449331063178203
0,451900856221413
0,446236321756164
0,458279603779031
0,441604059305611
0,462439247564921
0,450460333055801
0,454936065585516
0,454039332124475
0,462262231719725
0,44644039874456
0,455711514385618
0,447690865985287
0,462594723918453
0,460571625441272
0,463669037989727
0,447609497290107
0,460771505551545
0,44977045872337
0,468781069249599
0,455392306518629
0,450103440519652
0,447372985927509
0,459285018547845
0,453083348801295
0,452517295970509
0,446844508793573
0,456366136376186
0,445660185418749
0,448572431835515
0,435154154792276
0,45266036556908
0,435974829308007
0,443897304180292
0,436007836784724
0,439383894524177
0,440793389745649
0,44281229656593
0,422902528385132
0,434853910781508
0,419625673912905
0,434437492803331
0,415123171662997
0,4220162252271
0,411193505053248
0,421614626961095
0,40947800334998
0,408473199184242
0,400032386623361
0,409393606122815
0,397897268915274
0,39733444223447
0,393512487502861
0,393952108716178
0,377751939465334
0,391379865824524
0,381034809828318
0,382202734056405
0,368108873451541
0,375690884004652
0,364209964448791
0,376873494345312
0,371661283675849
0,370185419324471
0,363846848083997
0,360818206172829
0,349093415924826
0,359974427085145
0,353367502049337
0,352616287957634
0,350171341648983
0,352287644144334
0,344308972266923
0,347903253283663
0,341348947226671
0,345280113715916
0,337288509577222
0,345738068963917
0,330842000303393
0,333337579720089
0,331461779703092
0,334520123711981
0,328059527545661
0,333010256928266
0,325371546410177
0,324415291378637
0,317185639765415
0,321788940330452
0,31376472874429
0,317169304404783
0,311071260184742
0,317480727273546
0,309208585963996
0,314695634622887
0,3084569086499
0,315278220938575
0,302541182510447
0,306560916857419
0,303167955383007
0,308000905171768
0,301714432840913
0,306167330563872
0,299160348138815
0,302296323840825
0,295571264326544
0,29915767105399
0,294910817328702
0,302755200256559
0,293031431418005
0,296437556232691
0,285780369657667
0,29780539804553
0,286297904918647
0,291097554779341
0,288389148539438
0,290810662321202
0,279519332252975
0,281617257632726
0,280308636804048
0,287458205901825
0,282675439702845
0,281397005155147
0,274741838568464
0,28265743451787
0,274327555259888
0,280509954352255
0,273612901103077
0,276659457194505
0,27445593012017
0,278500268197294
0,269104200859934
0,275220501438297
0,261291651288067
0,27311223430726
0,270244633419948
0,271356074043578
0,261051908415725
0,271386736143209
0,264138270449235
0,26213858621882
0,261261352558201
0,269337108173387
0,261491048805014
0,269990515183033
0,260995869314855
0,266494761111506
0,254937519725998
0,261471127215859
0,256881239240174
0,258643715317402
0,252677096346183
0,259330061779731
0,255449160417847
0,257606936455363
0,252933275073199
0,259474740012742
0,249027520862495
0,257191828716454
0,247632127991295
0,252770382020414
0,250977278152263
0,25494146178362
0,248390735043566
0,252936751178298
0,24606219420866
0,252407665942943
0,250300346589001
0,251432981224069
0,243861107622194
0,246290458497856
0,240633252242073
0,244207585605001
0,245648175231072
0,24243114575216
0,237541494453108
0,243582497313686
0,23775447597212
0,246988389588594
0,239434552051693
0,239587543737585
0,239612359417535
0,245475734411907
0,237670170241253
0,24599662929366
0,237921243108801
0,243564953797362
0,238469766310196
0,239536255860515
0,236094764904008
0,24121820331794
0,234212254128562
0,240701544464418
0,232957800438938
0,240598221444191
0,232435190049877
0,238409227081737
0,234043554403997
0,231889746401653
0,231222530804124
0,239765886947314
0,229987713043204
0,236851706147427
0,231319700510861
0,233039067842878
0,227559272982416
0,232747614366019
0,230680299051773
0,234800174075932
0,226277971490236
0,232927017505063
0,228564891457975
0,231295340412211
0,221196538410576
0,226700314257983
0,222563259277706
0,225866631131089
0,221237735901174
0,224666551196939
0,220832681776811
0,228321459357224
0,218615975469462
0,221587129025487
0,215765773179358
0,222671060840337
0,218093196535894
0,21864308766561
0,214054343094396
0,219990108694365
0,215149393164631
0,219381082494193
0,2140775528081
0,218813609192293
0,211184781738825
0,215667214865488
0,213582554605235
0,216001955781211
0,21009448482277
0,216201304838351
0,211446041936147
0,21437178458234
0,208352223745025
0,211384592153433
0,206554130401733
0,211221196735726
0,202589766838068
0,209640359670147
0,205923097388317
0,206640692282651
0,204854560158807
0,206146662513548
0,203120819887397
0,203393050789157
0,200445353487118
0,205294700287723
0,197598178361101
0,201281208723112
0,196787322054353
0,200160145274012
0,19170695916861
0,196758505560966
0,190661603732072
0,196896147400092
0,192846521861916
0,193057380726624
0,187951617676772
0,19379949059801
0,187746519772404
0,193279865179565
0,189880325823147
0,189215542803015
0,182457303049333
0,188555315069403
0,187082627250855
0,19085006877099
0,183185966693836
0,185613888594499
0,179029941039369
0,183136605290073
0,180560530756849
0,179587265633597
0,17769617210904
0,184674303172056
0,176581240252143
0,180097884573199
0,178924679937996
0,176757493577843
0,170648131152469
0,174145806236411
0,169042493287645
0,170719034307873
0,164021646486678
0,171168550047263
0,16528015806414
0,175065013654158
0,169096230046455
0,171515940758045
0,16694709322513
0,170346679759042
0,159902534370632
0,168951310044895
0,164835053073211
0,163353562355064
0,157419021043691
0,160507967378595
0,160549989119262
0,16273047613538
0,160279260329344
0,161078391245175
0,156382771913522
0,161071202348664
0,158863133255532
0,160825314388877
0,155304516107256
0,15852675484497
0,152895679395141
0,159400941895455
0,148608583433261
0,156504236408771
0,152162135300486
0,154295116702475
0,153582852813508
0,154361466212803
0,148726379736937
0,150585912271918
0,145065499900753
0,148650538216305
0,146284608882829
0,148257542332202
0,143677286950623
0,148705880643163
0,147136389956371
0,147885406247827
0,142822523456115
0,144703979556951
0,142964436545262
0,146787879476315
0,141958223463187
0,143483244497919
0,142126244909682
0,144931908733089
0,140612602975025
0,141502442406362
0,137985486872318
0,141651762691787
0,139560167735612
0,141498807539241
0,13712077215065
0,143226129677543
0,136887954074338
0,139718490320816
0,135718602912039
0,138646214334791
0,135981332591324
0,140013061756521
0,133365125240653
0,140188715788709
0,130799022982213
0,136655183056411
0,134808961051914
0,138869064155399
0,131858468318811
0,132559832050834
0,128710057997332
0,134392690675504
0,131684491415539
0,13653310110244
0,128424318467162
0,134740957143065
0,1303542439815
0,132720273656101
0,126881924192771
0,132094092922124
0,128671940578012
0,12908593644921
0,129307106367719
0,131072031507485
0,12736296939526
0,134292189336966
0,127035085535369
0,128711456165556
0,124546384817341
0,128205128841212
0,124704161176653
0,130409899571594
0,124000474500707
0,125808949791353
0,122687428329078
0,1285572743331
0,124928064672541
0,129149010319093
0,124335385298176
0,125271383602238
0,123765803070938
0,125109097501316
0,123583265945094
0,124245322291713
0,120148158789567
0,126508566196399
0,121543335778156
0,126287958384876
0,121865621957298
0,122989990889026
0,120298224062215
0,123921774603336
0,119853888217392
0,12234972207859
0,115211155568247
0,122525975878878
0,11771110920655
0,119832461600953
0,116290789137054
0,120192860283281
0,116584601241019
0,120371497240225
0,114662572397571
0,119882913647429
0,114047323517706
0,119084962568368
0,117631661018058
0,114793739023693
0,114105975683668
0,117057334242902
0,115369509838843
0,117782814991669
0,106522734489678
0,113471551828959
0,112208140554898
0,116403728691864
0,112859721756908
0,116266410078774
0,111303014254977
0,11524594179291
0,111949713069552
0,114511805245886
0,111388423482598
0,11609368772094
0,111015932878204
0,110867724604159
0,11053027934488
0,11129447903859
0,106020182659254
0,110082632867344
0,109129865909141
0,112730632170048
0,108711260652986
0,110380412416892
0,105366576107388
0,11067388104785
0,107515679303562
0,108983918050754
0,10525839095383
0,106777468245926
0,104975076188068
0,105937933839126
0,100043351496505
0,105441247541309
0,100802613416113
0,104369562756484
0,100796066800053
0,103737354951464
0,100514263649574
0,106562730155347
0,100027841438653
0,105439334980329
0,103172122459381
0,101623841350809
0,0988633795414884
0,101251293809113
0,0960777847096206
0,10174306684642
0,0959610349519504
0,10122147792001
0,0972337916266926
0,0978879292581818
0,0920789338875626
0,0970033619540396
0,0943640312137227
0,0987583768043105
0,0917911956927995
0,0981384422045177
0,0922236963287364
0,0932846947828622
0,0938329228491988
0,0944561206169453
0,0927428887338751
0,0950386535233008
0,0902122824568596
0,0944073254160038
0,0900437125116405
0,0904284202974921
0,0891885536511299
0,0922600694436821
0,0908517370725017
0,0929162164911258
0,0837622845252594
0,0902080521705937
0,0871869377397396
0,0923071428206637
0,0866455908700875
0,0874750606993053
0,0861690319074448
0,0890342794295681
0,0855635055200718
0,0881980958283565
0,0844567557554401
0,0887472773932357
0,0843537417222291
0,0880059148549389
0,0812132984823735
0,0875133156234333
0,0812099951015745
0,083042635561162
0,0797289565873401
0,0864430757691329
0,0821087830703237
0,0852912905502751
0,0813137033602165
0,0839212893245515
0,0785346636932711
0,0848275362468891
0,0784724456019085
0,0834393226910524
0,0803709055673317
0,0837178751426484
0,078848002816713
0,0837306624711165
0,0789282942166611
0,0805846235384442
0,0762126712144176
0,0798066870500938
0,0744554705930875
0,0754607049734655
0,0760945634115213
0,0797155299628623
0,0725763043387698
0,0788242550239627
0,0730727900908128
0,0784816198502787
0,0743562734190366
0,0805372791181734
0,070958873647033
0,0782562124748806
0,0737238610399227
0,0758384519211107
0,0703917806194601
0,0757132517282992
0,0738068454210603
0,0774423504526061
0,0729321510408367
0,0737942511788598
0,0708220182942778
0,0763134531584416
0,0685863242885938
0,0748938446134366
0,0701702637970628
0,0766762067780419
0,072003315714378
0,0728937122385011
0,0686719327674022
0,0738657527029275
0,0689386042649062
0,0741028466136996
0,0691086448087999
0,0757023599215532
0,068691033682066
0,07529016312871
0,0688652470989469
0,0731952008133913
0,0671255433978939
0,0726892153661892
0,0626444638927209
0,0707017724974079
0,0654914008934763
0,0690676760319799
0,0621761449987351
0,0790625008893898
0,0682801320909057
0,0761906955294609
0,0610154164432551
0,0674409033093267
0,0657886510683996
0,0756011745330161
0,0572471785592243
0,0691161393715668
0,0584985166398614
0,0738977986843871
0,0632650356193066
0,0685123138810098
0,0589749679846455
0,076732988797766
0,054923995539991
0,0721538217155374
0,0531655021465997
0,0752078399194286
0,0634568922657692
0,0720731531825332
0,0581404712972436
0,0765398951041068
0,0581865716479026
0,0745338226353867
0,0595522078172173
0,0802855180415009
0,0534975605310451
0,0781802604564119
0,0503584538044121
0,0831144342387973
0,0503656440097622
0,0801679950275448
0,0450467925831724
0,0756100702462954
0,0371503486777528
0,0828461919100849
0,0375362048582931
0,0909205733044084
0,0469721484694065
0,088163364372415
0,0353244501289029
0,0833718281486476
0,0329973610889432
0,0905348636563433
0,0447567296731596
0,0890117011617772
0,0298077708539619
0,0841683903766473
0,0505596761251685
0,0834842347002309
0,0422331798108736
0,0723712969592579
0,0658361087760828
0,0651420552842724
0,064411583976489
0,0552956563013662
0,0796051982327152
0,0459867945098932
0,0835623597645119
0,0436319386132937
0,0817463128568075
0,0462835425900497
0,0794199652617303
0,0496424278527333
0,0733650000357675
0,0570753644107929
0,065472135935132
0,0631828850409727
0,062786128083055
0,0622994821883842
0,0606484078569889
0,0629107217055588
0,0656856297682746
0,0609894307064813
0,0657897469160848
0,0555510329785479
0,0648724253179658
0,0584284103105021
0,0641915842426437
0,0589953898227228
0,0664625642202392
0,0603337048273337
0,0636557268698165
0,0618516608592623
0,0632892507012812
0,0595514357030405
0,0628355184798766
0,0590616299297443
0,0619282887864657
0,0615401768383764
0,0636474871770485
0,0610269616840059
0,0617533955881406
0,059623663342378
0,0651958197404951
0,0601929500777423
0,0616048076939042
0,0598328542327975
0,0639905994379366
0,0622044797550429
0,0613257070664063
0,0620081781854333
0,0632749849770592
0,0608201008576216
0,0639819674103961
0,0603537749877298
0,0636902606788837
0,0603195025960921
0,062573227072186
0,058955460126547
0,0627496240001061
0,062229358125048
0,0628076720956834
0,0606879034275744
0,0632551994342173
0,0619956338014894
0,063688394963885
0,0624587167527758
0,0622188691165
0,0602408852431955
0,06195211443604
0,061729041327751
0,0634178069728045
0,0591530338423829
0,0653559362967567
0,0601948830066115
0,0623112026473858
0,0623679886995369
0,0638273595703904
0,0609801033628524
0,0629566452555211
0,0597889604158593
0,0613547762373439
0,0613407622206655
0,0630259620481417
0,0615775482434833
0,0611492044527954
0,0622955596160463
0,0627020789294068
0,062068602422694
0,0639833348500474
0,0618795122605854
0,0634014534821515
0,0618464746803077
0,0608981550809642
0,0624749952337705
0,0628566456043269
0,0653577035445493
0,065546111712549
0,061247332957536
0,0643567487942247
0,0645339464670871
0,065365315270877
0,0617672225009722
0,0651364524640713
0,0608674930461964
0,0643446756769258
0,060085692940286
0,063625734099669
0,0635853839883945
0,0659260136439
0,0645409816956984
0,0632529632589977
0,06399266813857
0,0628042419819449
0,0633770565333728
0,0639708044036223
0,0627627637925006
0,0640544375277503
0,0640841767754204
0,065156437881696
0,064643766701594
0,0654195859984019
0,0659866924527517
0,0657312510093058
0,0655759792313988
0,0639958370095711
0,0661365725565627
0,064142873783038
0,0649516130612265
0,0646352664046956
0,0651965331824146
0,0654352008453813
0,0651319519281866
0,0650818942270899
0,0633672242966407
0,0637508169796436
0,0675303284579959
0,0666405296634643
0,0636665897081104
0,0647896258628941
0,0658781898722195
0,065531476700643
0,0672678448943779
0,0667085601668776
0,0651889418879972
0,0678799402085073
0,0656288922570833
0,0666601873395706
0,0677443402158573
0,0651795863820948
0,066908536789148
0,0643230982236304
0,0640963221092152
0,0686420536556437
0,0657915866796764
0,0678600107657619
0,0678203158457108
0,0689676786155627
0,06579647182238
0,066677932113367
0,0670871086674207
0,0679384277660761
0,0668232322993611
0,0675715328556209
0,0656844724131511
0,068376127190125
0,0677204114076647
0,0687275441421551
0,068002810540894
0,0675873477064388
0,0685005043753301
0,0694810789758236
0,0690265720451848
0,0687829840942502
0,0686658828745771
0,0697049263618043
0,0681508514206888
0,0699375411752212
0,067317781449962
0,0709930834413642
0,0670447785414454
0,0699844729381131
0,0689619168547087
0,0723061202180361
0,0700334414578702
0,0676303382631726
0,0697464647597918
0,0687369111336618
0,0662271132656878
0,0675317715026397
0,068798514620836
0,0687795319784908
0,0666472122949646
0,0685741982154397
0,0673785526040665
0,069094174992797
0,0679594301572043
0,0669922484659057
0,0680938454997573
0,0678007183241624
0,0675980741126602
0,0662708263673263
0,0671709181578576
0,0670510567708707
0,0667971370002944
0,0650863565270071
0,0672476734471095
0,0690577195306383
0,0662143258590225
0,0649710320734183
0,0649352898560374
0,0671163264137617
0,0662614659439851
0,0648525703688028
0,0648083777757313
0,0667183158625059
0,0649294846165469
0,0665756091884384
0,0643004361633431
0,065482370207216
0,0634072377930621
0,0648962070189649
0,0645738836667087
0,0641242504240162
0,0647237350371185
0,0644646329437987
0,0658910928741488
0,0654269257603468
0,0640352971526978
0,064541255077002
0,0629822038320385
0,0638948355362796
0,0641569626827753
0,0650085417942577
0,0627145365231029
0,0629184704809038
0,0628275022478062
0,0622973189903819
0,062859604013254
0,0629557100873109
0,0631577671004779
0,0622809510389077
0,0638202777847267
0,0650437890184937
0,0618619312395303
0,0621038805160334
0,0630755733234059
0,0648001358655479
0,0639433761549955
0,0644336052359399
0,0622969396087898
0,062238406841419
0,0620853149512942
0,0637629109953143
0,0612236190710331
0,0602133851643595
0,0618438964149984
0,0622530938325849
0,0614323924133496
0,0627866267383458
0,0615901809913864
0,0637693067627828
0,0604549206919704
0,062420519854157
0,061511806652724
0,0616364164486906
0,061258185719653
0,0613042167313751
0,062435076632834
0,062336793115375
0,0622287417409005
0,0608932284898207
0,0601090045366206
0,0628194392565489
0,0617133839599811
0,0606696575895773
0,0615068002916607
0,0606971002684779
0,0628051815071367
0,060215994803882
0,0618220763723851
0,0608988475273339
0,0622290304256688
0,0603754187009015
0,059956221522029
0,060487780600932
0,0605347078724922
0,0614594880150751
0,058650369468237
0,0594821386739143
0,061996053110656
0,0600558830417592
0,0586564190224327
0,0617040440492319
0,0604691901568393
0,0602791207375292
0,058547972497212
0,0611864720719716
0,0579210337188279
0,062705775969634
0,0584685310306806
0,0569118614342915
0,056267164270915
0,0596046493021661
0,0591166463713948
0,0591292289330229
0,0580064619833574
0,0577084329709603
0,0568970545118302
0,0597846517303752
0,0587091150954515
0,0550238404207331
0,0572453194459749
0,0564628329694384
0,0545791908421085
0,0568668226712081
0,0546526708978122
0,0576715412223331
0,0552355471267536
0,0567528624534976
0,0529372708157301
0,05805003761852
0,0550879089850819
0,056326347714334
0,0555672625467809
0,0580164868635996
0,0560031296430239
0,0525193996931551
0,0543647450004081
0,0514850695587138
0,0530680236033639
0,0554534906583142
0,0534205045505949
0,0526043509181799
0,055175163015388
0,0518221379668436
0,0526440762812024
0,0512675146124454
0,051083291199041
0,0507235784965203
0,0530584263640664
0,0507625352747084
0,0523150201361508
0,0519302118313932
0,0519198157845097
0,0509864700787376
0,0511537422013021
0,0492519639828278
0,051169585817351
0,0503269113006969
0,052709429675495
0,0471782119239666
0,0600570760653042
0,0514051009654227
0,0527614272207115
0,0476231394592685
0,0510497768612765
0,0507043774135046
0,0521422249590479
0,0498860144295403
0,0488997703085622
0,0494912845580572
0,0494099841552864
0,0484982166489533
0,0526999125213903
0,0501642747306977
0,0488999490038232
0,04968169654644
0,0475824061207473
0,0490100448954621
0,0485884504400129
0,0493695823836088
0,0501359038036338
0,0505748445252878
0,0490387828726196
0,0486265264907985
0,0498596563193972
0,0465439566779139
0,0517788853693236
0,0509284355248021
0,0482727095010812
0,0496151902164875
0,0471181086325226
0,0505264958349328
0,0464516590532746
0,0458139040618482
0,0475941167533705
0,0480540655604971
0,0472375095303623
0,0496594420961587
0,0459177778023184
0,0489726848348093
0,0475529830147282
0,0499083363685329
0,0470433117707936
0,0491366729135342
0,0459362887119847
0,0476936571656628
0,0489779333778613
0,0482866245504222
0,0464315860278423
0,0485309915504217
0,0441671197517873
0,0485612736275523
0,0417848477851663
0,0559764894018946
0,0425654644830534
0,0514051051948503
0,0436563558489026
0,0438712351001487
0,0451790052325697
0,0452421744397803
0,0456537015049666
0,0474498324588777
0,0416357565658442
0,0464118777130561
0,0459813731312498
0,0468638666552598
0,0448479457034906
0,0466641913308599
0,042959661064456
0,0438822245133906
0,0447858721580459
0,0453356857684127
0,044187007031863
0,0437057106000325
0,0492817483906078
0,0498316542985485
0,0402877071116533
0,0509181979082887
0,0385074187178802
0,052083930379443
0,0477291231836759
0,0395595958381377
0,0510098984107772
0,0410907336784152
0,047923402640846
0,0387972043067005
0,0507650996452087
0,0395595464503702
0,0529923299092524
0,0410117995241806
0,050536756981419
0,0450564045634353
0,0446476482463276
0,0445567034424505
0,0470461854753096
0,0428750254820157
0,0465794683531975
0,0436635343404243
0,0469930868407833
0,0442448107133682
0,0428451588024788
0,0433910783910739
0,0451947852581152
0,0404916205864547
0,0506189654748051
0,041532691187506
0,0479824991460592
0,0419620005074157
0,0480371952750958
0,0385306908898735
0,0539243552004248
0,0391641648088518
0,0472822845634352
0,0448970949770991
0,043375811200088
0,043658889758562
0,0452831497661406
0,0432079471000669
0,0445188011774563
0,0454468166578525
0,0432951211316319
0,0451088464764535
0,0446754684560257
0,0443061023523738
0,0420651667974752
0,0455494624775998
0,0410422119906527
0,0451890447226324
0,0407034492075569
0,0475049957987148
0,0407884504573805
0,0470768291548679
0,0549924281832944
0,0425311461961053
0,0563501111158178
0,0394661785094545
0,0489081744446854
0,0419881618777093
0,0471100271674157
0,04038052471522
0,0473389496752362
0,0423688235143268
0,0457903786250638
0,0433009792223949
0,0474313307209614
0,0408704097463482
0,0469853359361784
0,0406256045768459
0,0464328601712702
0,0422487888121973
0,0464217850793642
0,0426258356150843
0,0463671099334309
0,0408083854911841
0,044614533589752
0,0485902235419504
0,0455831713937642
0,0456735222718543
0,0438293288182087
0,07808834802064
0,0306235281232825
0,060038168236873
0,0376208844434505
0,0474747967255937
0,0432751257145145
0,0458748246304898
0,0463713551311031
0,0500243646984172
0,0415417296859225
0,047422362531406
0,0420567701570676
0,0490222372591603
0,0421380549937244
0,0490017213257866
0,057614453789105
0,0554270690204158
0,0451002838325401
0,052561568025035
0,0357090138388931
0,0683234158146378
0,0446179502715289
0,0449647147475391
0,0482837941321394
0,0450283086351393
0,0498452943372707
0,0428694725434705
0,0480146761631093
0,0471815266428365
0,0525082908691712
0,0441749969781905
0,0513513531459336
0,0453510537358908
0,0498680580563876
0,0488902455070956
0,0493750618311487
0,0591263311123908
0,0478988109255972
0,0457918116025775
0,0548460013024297
0,0463685439979007
0,052321911209273
0,0471812841816362
0,051245821023115
0,0468338684860184
0,0583379506622388
0,0498884999285818
0,0564126551343467
0,058701108573968
0,0464049854956408
0,0514963878013874
0,0533876848580999
0,0512666955960548
0,0568941648354576
0,0402317967614233
0,0852021663284936
0,0362827823007266
0,07698721617921
0,0485731745252158
0,0538277317245606
0,0515407940286159
0,0561580107199949
0,0490839378898566
0,0565855921337521
0,0680246676927032
0,0435167677871749
0,0634902449378631
0,039081889855134
0,0751080605131936
0,0474821952551793
0,0605676435412223
0,0507366701390766
0,0569770928135824
0,0534497668706301
0,0737475862246206
0,0428773373172182
0,074687097518633
0,0568615969991409
0,0671855465681983
0,0749549324590633
0,046030875136041
0,0713068393271104
0,0651745392850425
0,0521338159444696
0,0661947163211563
0,0498106846343815
0,0684714992943027
0,0473688290139337
0,082267842353457
0,0606893539812472
0,0541437779549505
0,0665653833700435
0,0563740950189149
0,063528209595466
0,0731372109140385
0,0542106041970527
0,0668318988932172
0,0588049641262201
0,0648312575700449
0,0599211154542292
0,111196284272703
0,0349849222308043
0,10445283741422
0,0517845028548628
0,085086270422762
0,0621534766007779
0,0763472514531768
0,0613879565337414
0,0886598076405298
0,0643599840691953
0,0755899959454397
0,0662741420312416
0,104151183563543
0,0602425222646036
0,0816776902564441
0,0742625462460921
0,0705450413244781
0,0850712375867813
0,106977145986136
0,0787475104288382
0,0904794295847372
0,0749393067889368
0,0912249534732494
0,0951155416170963
0,0764364143071686
0,0885903403024885
0,0797104918493864
0,0895103625897557
0,0861192568761095
0,0881537516206194
0,0935600153283394
0,0830664492323596
0,100387898356858
0,0818175197761087
0,107582765907735
0,0984390139863583
0,132362807717627
0,0918117954336369
0,101995561491882
0,12357444834753
0,100611277436144
0,108772973697974
0,0965852222324226
0,108239269428309
0,108940376138892
0,106163398189312
0,109419938091164
0,104686180127569
0,135728792941858
0,103277487364609
0,142809111892884
0,104679602489732
0,125081361874643
0,11911380906538
0,152289796734846
0,189772329635882
0,108268768959759
0,157164147677126
0,127909025691493
0,194073060397754
0,13286896495724
0,146943193534635
0,150986887179264
0,157387328595001
0,151183987598637
0,168759881443203
0,163522337115493
0,177636316335957
0,179965237330414
0,179289315438344
0,187928431122742
0,226259058756246
0,203876402091347
0,22880013856786
0,196229969772205
0,214278566363881
0,224075943276643
0,229431530864764
0,220082537842232
0,239952012083648
0,222514603745219
0,285662384517869
0,227864997544703
0,25488471743223
0,261494460918593
0,269422036831456
0,286457239579073
0,266807735584872
0,338638454191002
0,256366408518186
0,316544714975927
0,282127523475746
0,317602549073773
0,296445839176985
0,323431333819472
0,327980783039395
0,321207225732074
0,330410880899802
0,333549396151759
0,331921277440561
0,340658431032158
0,341970945114323
0,348037812531646
0,350501017482346
0,390399963619179
0,345212781801309
0,513408958742085
0,335012925297231
0,377996453339441
0,356304714364073
0,379671006900013
0,385270143439403
0,365931692604678
0,399969527625848
0,354130774194578
0,377865608589778
0,372124453725998
0,375168916981895
0,369826219802599
0,368449838257939
0,371614771135785
0,360352591019512
0,407504199022123
0,36203142625089
0,46349822821842
0,336449023895273
0,384989704608784
0,372762908443537
0,381734630248861
0,367995465171917
0,38230256460361
0,357151776540379
0,381045591112067
0,374421473649611
0,369976978060935
0,368765139183643
0,350861088453225
0,388348966160665
0,348299060948284
0,363851033669635
0,357726146873813
0,346874662819763
0,359192589275878
0,336163362459605
0,392782234631011
0,342937417675236
0,344929186279993
0,34757133491426
0,335315708127405
0,338220747554624
0,339096448696526
0,334079954377095
0,336210483572365
0,329898818986807
0,325998144395916
0,332199754908916
0,324593084134872
0,33061402959673
0,323737276664492
0,330962002446273
0,322305296090603
0,330980865059977
0,327794507977006
0,325839249747964
0,321307304607575
0,324743138627739
0,323067399691756
0,324455195789491
0,324431617924066
0,324146107867871
0,324792587642154
0,322771510776768
0,316611267027437
0,326476010960352
0,320635384185758
0,322993222188047
0,315167448753398
0,319214527258223
0,312870978641682
0,317210829015948
0,317774206158321
0,318166157125966
0,317111558309148
0,312639776421729
0,311466828250585
0,308518172268952
0,317772294226438
0,309790842645585
0,353490433172828
0,288693418250086
0,317286175515405
0,293351039250293
0,311125021491706
0,302831972326912
0,295666476354231
0,338760744788924
0,289234265949932
0,298799956809437
0,282544136351828
0,284857381419531
0,294021954338042
0,277524688725614
0,27476724920575
0,284978583200671
0,26970022664302
0,341601701849786
0,223658918800246
0,357804359005697
0,258212824181657
0,276383122035134
0,258407612062731
0,294417068338708
0,261737780095397
0,254415112411019
0,262383724851741
0,244575381153827
0,298063777922681
0,24331918749934
0,253980518768601
0,24752450296198
0,244488736570389
0,274012966125289
0,251989402727881
0,244763454343663
0,264070994535053
0,245585081432158
0,249438121610417
0,269747649059693
0,248972695013313
0,235593106284297
0,221821909105196
0,232781607082309
0,220731242921256
0,23294400122415
0,250651998946405
0,214463819889706
0,236509641535681
0,205740180144109
0,227537230990818
0,206902254546221
0,22693226223641
0,204790558803297
0,224048486039902
0,227525831500128
0,186981129427586
0,236847853692657
0,199058072902806
0,240636070113356
0,202063913841256
0,209518315701011
0,190649388421112
0,243969058143753
0,198445580586072
0,204306872618665
0,205796033788796
0,186204796687076
0,20431564047264
0,199771687372454
0,180872698871988
0,218101382753042
0,189819495841982
0,209398196849374
0,213880390086647
0,219229679296763
0,206121116634395
0,18564328643309
0,184282017048724
0,185666277008402
0,181787957715337
0,192816860731753
0,17466431154302
0,230264460631349
0,172674324007305
0,208010958375436
0,212467741564494
0,183085277396283
0,193412252035618
0,199320694202373
0,192438908293288
0,206159897471348
0,208413931922985
0,226231709995271
0,199750294247593
0,229256873122108
0,215870305562836
0,209167088565218
0,219748833577734
0,216808803983877
0,222817718756176
0,225457452497775
0,242328059065885
0,233955617133065
0,241122662025279
0,252462800624814
0,245175239333761
0,278641094942637
0,260472465509991
0,257253207048987
0,314564775819358
0,248527260954537
0,330690182196354
0,271795061281573
0,29475734059732
0,29434685114594
0,300265012029085
0,307496254880817
0,305461127820796
0,331009307111914
0,324669080316709
0,315214204056327
0,339129035865787
0,319767901043227
0,341721439505258
0,328277198362651
0,374887517146518
0,324264561737167
0,414642696589153
0,329565322343775
0,365760606151617
0,355494082388058
0,356327333538
0,369945242508561
0,358600383765582
0,363409865469265
0,366482010203343
0,367954077472563
0,382482333563134
0,355329363055308
0,380025654645281
0,368036443012072
0,378491277889864
0,374744597546106
0,382227462577263
0,378086272982967
0,387909073983065
0,385665341241593
0,390949307457209
0,394281243892824
0,435061243804374
0,380630091625338
0,412731080193339
0,398473718883044
0,420706254039963
0,404557457109945
0,421074772027408
0,431899538030901
0,425169382817217
0,429595869625393
0,428917230880396
0,430601794393997
0,434496787550995
0,430048742292452
0,458583365960787
0,428146453347559
0,472192677189556
0,42483849446423
0,509025894552145
0,4454083609647
0,467303309453913
0,467394985301944
0,463465590850273
0,46097802503814
0,464890395943175
0,462552588444729
0,462256930279163
0,468932200540014
0,468311686135894
0,468529330176387
0,460486119101123
0,469128103824531
0,46446379874136
0,46398128775781
0,489336234397319
0,45684285371016
0,470298381206296
0,467634255879362
0,467760062940997
0,458759115513803
0,488479259919155
0,462314650047218
0,469624789050264
0,465441578338771
0,477883217262931
0,473440049875276
0,467009534039641
0,464236643045033
0,472865445832573
0,460581873204062
0,478258657574294
0,462886456674587
0,481975397175025
0,483094634443783
0,477948169695816
0,47771245659762
0,473564213206513
0,475924925594535
0,482100609604067
0,485499997095306
0,486494250368484
0,494122321544314
0,489227027142979
0,497287266309764
0,494240434047537
0,496824045774534
0,497022754556695
0,502357751944485
0,496411854980646
0,484303835584077
0,492571999483701
0,488200589092732
0,493821555364262
0,487908141774402
0,487548889898828
0,474928659150333
0,479049458634886
0,473108813321845
0,466646779834705
0,486265773924285
0,452099471790905
0,473813053151484
0,450140929083885
0,455518298460052
0,446176341561309
0,445649185963092
0,440264943446241
0,439767964606094
0,435772486934647
0,429067667653328
0,431401422463183
0,425422825370553
0,42850810444864
0,426603004619098
0,427843200352469
0,418319781165531
0,423106947827249
0,425795336213925
0,422213790370895
0,424201524644043
0,419548764391528
0,423384178542269
0,414798447733603
0,429611776755331
0,426025874493814
0,431811577148539
0,419555162172221
0,422558961754199
0,418576460908339
0,418475279675901
0,423051928151781
0,414435842419133
0,421263715046567
0,416052005066635
0,416857590986368
0,414619996994596
0,417284602743738
0,41210378376234
0,418065545301199
0,412936114914561
0,413173846295751
0,409930687246976
0,414852064907759
0,408701861083201
0,41663625940235
0,411881523824706
0,420009827166294
0,410146253943019
0,41286180038895
0,407881365861446
0,410145388941022
0,41773768297105
0,410851895736604
0,41711845217275
0,412230929618832
0,41225585587352
0,416818821163309
0,408025898766096
0,413621501251633
0,407942339378689
0,409215822562471
0,404281009654546
0,409280296677971
0,402813452796234
0,407049817650827
0,398520401666722
0,396171412812751
0,394405525298708
0,39392608522769
0,384169147504029
0,382508962210179
0,379396431189705
0,379718731030408
0,371896599399505
0,369548995890108
0,365571302048857
0,365644217735066
0,363200119193793
0,36291646397848
0,362067407286213
0,359620850221394
0,358438718677923
0,355726383262609
0,354751784052613
0,354217850804659
0,350805956392076
0,353737434874111
0,351420021566431
0,352054044134517
0,35248019671744
0,355883354684069
0,354769421095537
0,356225293530692
0,35576154832904
0,356864544500133
0,35532711307457
0,355387269757582
0,360945086698369
0,359770430676529
0,366194710061336
0,363891908237881
0,36704287228856
0,367914987809823
0,366095023789995
0,371578643723117
0,3700491412613
0,371776854663048
0,372843337372272
0,375081926134696
0,373622303732244
0,376821335948396
0,376376208069059
0,373621134565288
0,374876489241893
0,375257205638678
0,372639428621219
0,371836058457191
0,371534038411997
0,371894383743974
0,368807473880966
0,369530651882813
0,369362388393149
0,366602956930146
0,365664732204772
0,367531977026857
0,363405685452386
0,361456114942472
0,36182290386165
0,361072290243449
0,357798940796433
0,356387968268329
0,355117637532397
0,355985430534318
0,354345140673643
0,355713362768134
0,352567092964196
0,350470879563135
0,349595009721815
0,347832181063182
0,344953562653432
0,343444631986355
0,344365657721886
0,341899326725148
0,340916863699342
0,34079858081084
0,340685076955839
0,338621302080349
0,337747218313724
0,33648466634177
0,33824585724655
0,334663966926088
0,333435071033383
0,33092961180051
0,330018365237556
0,328096713674201
0,324726302599916
0,323405429024556
0,322945973028995
0,319547764738415
0,31697346759011
0,316372591067889
0,312468501220305
0,309192675030323
0,307493443922819
0,304958725962048
0,303306334785823
0,301284066172835
0,299549090349904
0,299808919164967
0,298354064359936
0,299011948410176
0,296443931256641
0,296022214483043
0,29829111057629
0,297034282221159
0,292618085272507
0,293721186257204
0,291854545824697
0,290154462341251
0,286901068484389
0,284998337453557
0,280886793222587
0,277509570387545
0,273724595181078
0,271629292202621
0,266342333534778
0,264250774423592
0,261773349697583
0,261447342344911
0,258805877733098
0,261699066119151
0,262333307663686
0,263435866448794
0,270109269777698
0,275521246989396
0,282821323639145
0,292733211510635
0,299739890444277
0,313835282524237
0,326017852483853
0,3368721158981
0,350910745887567
0,364318718731148
0,376547785662031
0,39038033952537
0,403358650885004
0,41913771848615
0,433933147974203
0,444807683362143
0,457782827342049
0,474592658071462
0,485748834570362
0,497207504831607
0,513914726855322
0,525726996463391
0,538688631027775
0,544937576021992
0,552805826855068
0,566370151688901
0,571787966295781
0,579477781928199
0,588576497473791
0,59292711602971
0,601671435667107
0,606061208296907
0,615673316286229
0,615023891433947
0,618527686430131
0,620240276456623
0,619615943879835
0,618633055800342
0,62366097223648
0,619452894423445
0,624518337770399
0,628391279775096
0,625364248448446
0,623678421706793
0,626814093655896
0,626611668911789
0,632469570315271
0,636691300601367
0,637870778352449
0,641125345962455
0,649199691940591
0,656386429589598
0,654260943273756
0,660706650532216
0,666908964561912
0,672011832384203
0,676420971878047
0,683832326801569
0,686334186302928
0,698987307353871
0,708296420384374
0,719716578980531
0,727996549212122
0,740195229492195
0,743906932728785
0,762218944395734
0,771802892550283
0,778400519447412
0,792322768503193
0,797547078464969
0,805321799787517
0,805860865672197
0,812237603137142
0,803481700718593
0,799805759694168
0,804744579498114
0,801491314519269
0,800394509869662
0,793336039646883
0,79055045325064
0,787193284394825
0,792997464973206
0,786835780055302
0,788523850531976
0,79636778045081
0,809389004045023
0,816793707631461
0,835884126496822
0,838079795948617
0,860929041861564
0,880523356870186
0,879483204343794
0,896627307961616
0,914306295909277
0,92093205883292
0,945447649723955
0,960623308254748
0,966973909524411
0,971582431987716
0,994011248005588
1,00221556427215
1,01856449450448
1,03772603480544
1,05923567466656
1,08258146530433
1,08884657902092
1,11805067005383
1,13644657591968
1,15306451488458
1,16414799774761
1,18573729779719
1,21746872245394
1,24635512552306
1,24572508938513
1,27336963135532
1,28825062264709
1,32014956000249
1,31752548964474
1,32529184013268
1,31741010513597
1,38410478519988
1,32836466155316
1,33491627911662
1,35893551093124
1,36630545733037
1,37446644557971
1,38047344856484
1,34759114973258
1,34419251899491
1,36375527317595
1,38053085914393
1,35842576597649
1,36681924471685
1,36184633311494
1,33512915637179
1,33900613508263
1,36621613637211
1,36130752685512
1,35000488912092
1,38872828053144
1,40409447330882
1,39302906806532
1,41949652846748
1,44000238024284
1,45224213743198
1,449468560662
1,45423062656492
1,4912490605278
1,50893685650173
1,49610231576882
1,55393617278449
1,56410601138822
1,56384344941824
1,56714503159081
1,55416003375934
1,58402338715092
1,62194141176625
1,65116598007658
1,60526998155476
1,62521855527003
1,6291354086286
1,61867531225389
1,60124647740061
1,61326477779758
1,70055039293955
1,6806182485699
1,64400291017274
1,68980991077855
1,66848620338041
1,58715395273634
1,7031738402639
1,73128403762303
1,72825225629016
1,6734499342085
1,6736959007898
1,64513673454861
1,63185104472072
1,65957009994932
1,59486108641898
1,57269134469848
1,59166571898775
1,51356743379584
1,48049047784801
1,47475525525448
1,42787197562198
1,37536892935605
1,34573807389278
1,28983652224786
1,25685631793321
1,18729784645336
1,14869423077828
1,12042924210865
1,09356549314434
1,06824441564501
1,05563702511095
1,04628598837927
1,02508968179108
1,02043101214173
1,01371938696782
0,990387559882795
0,978339835754048
0,977229880538392
0,977249427083164
0,954905864654542
0,946569307933967
0,94041242276454
0,927011185690091
0,908630080650124
0,890606016956056
0,885007899742849
0,866420147735225
0,844348231075594
0,830925697687176
0,804691524075411
0,777079501983808
0,754066434271027
0,717601798987746
0,697205812497968
0,665679374380885
0,648360750707149
0,618613023156648
0,583656184996167
0,563262828888041
0,533250640175704
0,514969329147562
0,490144137632654
0,460843091554347
0,442513626980911
0,427209033733691
0,408524270135647
0,391867397583049
0,374785452081818
0,364957426483032
0,351931488367084
0,347819069370289
0,341520278544164
0,332647878363048
0,328204478283731
0,324402502291036
0,316589633604093
0,312341528181701
0,308018630972462
0,310180210984965
0,310966658475073
0,309319817400574
0,306357316092735
0,309207936107185
0,30923375835053
0,312808219825706
0,311117393184956
0,312402482270345
0,312377522591153
0,314854963205203
0,314011970477099
0,315576541290277
0,316077150133427
0,312958743234163
0,314174807417576
0,31181357061499
0,308150559800496
0,305367739713608
0,298923503529508
0,299343227816741
0,295390413605567
0,290885065877488
0,290544073155083
0,294420502225517
0,294118550068893
0,288571705222464
0,290744529315532
0,295870279620432
0,295995281043355
0,295855016623377
0,297926896088766
0,302111015121064
0,302316864394897
0,306041592332803
0,309566762031358
0,31119539840979
0,311853663543825
0,315087921227754
0,319482124354025
0,323006805682361
0,321993702269876
0,327248245339798
0,324815524456231
0,32951494735576
0,331503370651338
0,329813959937416
0,327663058629791
0,331203079815031
0,333649055143179
0,331559794125842
0,332227708822479
0,338628430951806
0,343001446583311
0,349278688435621
0,347567401453802
0,350160703999473
0,354730860174749
0,367546179719211
0,382914050927457
0,390416124411712
0,397076286122582
0,410983414752444
0,42317369662332
0,428984197139247
0,443381784392608
0,447759563945488
0,45402830172864
0,460408445034197
0,449119632994318
0,459407193166627
0,452100764978283
0,447438851470037
0,434501253428886
0,424973685325773
0,423660663635581
0,416185758434238
0,410733642256876
0,407163035883792
0,404091677259604
0,400687711324788
0,401406720060934
0,409616368329128
0,408320424259837
0,40528738015196
0,397425696540025
0,401492286737256
0,402841609606657
0,403190708360721
0,397911760898254
0,399832679305262
0,39022521635902
0,38257374080995
0,387534003884529
0,38262810740193
0,369834509066966
0,370850373995254
0,366311865581149
0,362480735620611
0,366849295782842
0,35960314205008
0,355253343389362
0,36010682242947
0,354823887056259
0,348431137459237
0,345661737364485
0,344065672043652
0,341027390584452
0,348271441549548
0,344776681623871
0,336574091226165
0,341471655037795
0,334168498743305
0,327974730244392
0,332747204497453
0,332851283999237
0,334482283593369
0,328758695068416
0,325879982533108
0,32210846401566
0,315165144541505
0,323043481371419
0,324970323278602
0,311417365021365
0,314083193750631
0,306090545989719
0,317494636010073
0,316922772411805
0,307074461986122
0,306421085615399
0,309914388427666
0,295247124918543
0,301341583812909
0,308925757168821
0,303467204701898
0,294998411455219
0,308961092569668
0,311028815240852
0,301013134015491
0,296779277653952
0,304933527029051
0,303595924386727
0,312995195599899
0,305830999933258
0,294342478348732
0,304893476176339
0,30837849865498
0,303839500004248
0,310852765628484
0,316018192096389
0,319503364867479
0,319556128268139
0,319887931560445
0,322751272864591
0,318732593538689
0,322134140992861
0,333151231829309
0,328470678546661
0,338497092584769
0,333154299187441
0,337780915809869
0,334802940762246
0,337456174372489
0,34648407209629
0,346067650295874
0,359316024257494
0,373362081388542
0,385237594001535
0,375413594314902
0,375864040529472
0,391062956307811
0,387308396290228
0,420660251335362
0,431488564550948
0,436846942503514
0,455514082227088
0,46116355372503
0,462009218268425
0,500556627696191
0,514387696034156
0,507793322289675
0,532015512591341
0,536304930638571
0,539201489787074
0,574581367412348
0,576152993308357
0,558758020295277
0,542946842973869
0,545499111061996
0,562091260638009
0,574915602261005
0,5513761539781
0,537532983862346
0,533928655714492
0,531736337985497
0,536653790692038
0,551188955436727
0,538046658395647
0,550686296126646
0,533303673352124
0,519304071029407
0,520338990597997
0,512894865636122
0,519392386877029
0,517149310960915
0,527633795074711
0,541874084290586
0,535237947413643
0,511907313453235
0,499604361201409
0,502454740240512
0,46117403628048
0,490005726698584
0,482382033505403
0,470600697456608
0,477676550118875
0,480134653192253
0,480672862907603
0,459961967921343
0,471970897678581
0,481818498077217
0,483012955437334
0,491360036731471
0,466396010336368
0,481432196639147
0,467016919036494
0,446754934186092
0,472048839388859
0,476276379433331
0,470704164116022
0,500411194164021
0,500738467643853
0,483027128433063
0,487516951735881
0,500404231325064
0,479957948261027
0,488710982659422
0,507782636790728
0,477348698652775
0,494309002783367
0,469868039653767
0,498955612668738
0,5391879224554
0,487438927549239
0,492302837609398
0,491985560408705
0,527655692988269
0,520678635033256
0,517146967103512
0,544797621531016
0,577677354704094
0,529266234946049
0,524573721941938
0,563165981961756
0,575034039629567
0,553203966336764
0,526927217399921
0,51214411122715
0,523396306536569
0,5590161520178
0,627505641537427
0,673795133548878
0,576512703794835
0,634066221303209
0,632750183030109
0,649950860029529
0,705044230053742
0,681630581672432
0,677200048354886
0,664452005252929
0,651184232508122
0,668343571664827
0,660815982235594
0,660470318447339
0,67493527035438
0,702861651155562
0,698144913912352
0,696470647490196
0,621986957961957
0,624120949397571
0,649709309857449
0,655450006572792
0,715458398262687
0,602673596586072
0,681374951426455
0,688797309356555
0,544798285843359
0,612988160118783
0,560825993700244
0,570713076663684
0,595836074727265
0,546096653435944
0,635386010506814
0,621267385288378
0,622283239471277
0,632970971587102
0,669601616641097
0,677105287239068
0,601080516731017
0,806981811138592
0,679177290939727
0,584476456042442
0,54679776301643
0,608020614791882
0,704263216996914
0,708188161989118
0,616029060194598
0,636132860467443
0,814920176858825
1,0484944877857
0,9816051922011
0,636728122710484
0,61249537425435
0,850469257210012
0,768190700914671
0,656114403453686
0,664214900483736
0,507416390537992
0,547722044618675
0,69234958374781
0,578985541705212
0,979660887032903
1,1723716334266
0,641333105733208
0,940478078775221
0,829112451879291
0,49043510754897
0,469614821804179
0,913458010643992
5
