3596
4000,36533379555
650,420452594757
1
2
2
0,0710609903350315
0,061595566525599
0,0703640235473209
0,0662873656605137
0,0699582658143359
0,0684874304625602
0,0700939644009811
0,0617788918700459
0,0700400183311493
0,0654682644119464
0,0732049191055369
0,058978082541667
0,066635832194564
0,0683090029667293
0,0702232226588275
0,0649413563373777
0,0629283383797764
0,055280695994913
0,0664797551970285
0,0584499130704861
0,0766440076135278
0,0620647910337011
0,0687709101190596
0,0641622459767774
0,0684455415086185
0,075936598946562
0,0680201204182339
0,0681221754156235
0,0775780815252421
0,0654494369522778
0,0597681483320315
0,0578304183128876
0,0683303670420485
0,0669510213606931
0,0694758199285269
0,0645424482040901
0,0661629221747767
0,0670394412420269
0,0691169723144247
0,0690080773854618
0,0843993917293058
0,0660510711473007
0,0839709458450758
0,0645628135995303
0,0704906151043235
0,0672478064241999
0,0612792666499986
0,0617591890310735
0,078640572491171
0,0674392453411959
0,0750405732506246
0,0671117878195595
0,0797304677081152
0,0777700133933414
0,0732382722512489
0,0821592879155026
0,0824988889344606
0,052471731757376
0,0669130198340405
0,0656944597446248
0,0859414811822647
0,0914146522719626
0,0677869414521852
0,0743920758877077
0,0621760388054418
0,0642799201994909
0,071941296436154
0,0690616591106949
0,0713127744813658
0,0711916811305952
0,0686318479692316
0,0727295912908659
0,0913604393508729
0,0663575168989027
0,0759465173404467
0,0713119615250566
0,0640200352061793
0,0618107148138785
0,0577602148374288
0,0709449378586854
0,0875471379931883
0,0717592964928935
0,0692465693773933
0,0612764833942749
0,0726735268644589
0,0845984658516157
0,0712387268128158
0,0596086190574535
0,1057838310895
0,0722347570434129
0,0703299770885229
0,0691976441607859
0,0727023173515484
0,0604874893568836
0,06742427749199
0,0555761613952138
0,0673711751176121
0,0593612709253517
0,0635570613649872
0,0685011297605799
0,0847412150622748
0,0677429962735084
0,118424790379934
0,0697344636400235
0,119410812289255
0,0872539386178074
0,0590271194731107
0,120543638783254
0,0928587091974241
0,070571760536117
0,0603827047513418
0,0627633578086888
0,0713056191299131
0,0746977833990809
0,064049893650465
0,0774132488481923
0,107984681004348
0,060617160167204
0,0682265516882417
0,0592562925127537
0,0591202836763423
0,0874837299706403
0,124291083643695
0,070678808438032
0,089237817672725
0,0607651650409399
0,0744791923535604
0,0978822153160826
0,112982825698021
0,0625230408797322
0,0714260678871244
0,0593308281657474
0,064158754904379
0,0613490228273438
0,118684765740145
0,0844313207830984
0,0728753076824153
0,0645094247714934
0,0956261537038099
0,130609586780277
0,085950036766695
0,0600891113844503
0,0664074218628561
0,0679405798523381
0,12182552522622
0,0832806270417934
0,0692080260962375
0,0896321059504171
0,0918302301685964
0,0547819686935421
0,0694838960072619
0,062907623064273
0,091761390088529
0,0698094739570273
0,0495747807518572
0,0933539904035034
0,169595194428832
0,0794435580929201
0,145492647857487
0,0779852043667137
0,0817676345425814
0,0709107039914719
0,0657749674371228
0,0588897911310254
0,066790651128454
0,0529079238837688
0,0824170380688956
0,100628640630397
0,069117160816981
0,0795397953401829
0,109498677807061
0,0896861129995444
0,0715198201529164
0,121406240923923
0,0969968891385601
0,053686793181926
0,116314025898485
0,0769009187316175
0,0607563034161419
0,0680370297840903
0,103239865456889
0,0631920811175301
0,0670412010241963
0,0567498152549414
0,0808236358579983
0,0813555337995634
0,0777777975561496
0,063336150351812
0,0807043170632191
0,0530706338481071
0,105218642274331
0,128388998354039
0,116287986061054
0,0782458929155156
0,0703745429171634
0,0424417295989706
0,100793060942111
0,109974541068224
0,0723424174791221
0,058928770646221
0,0611305085013317
0,0591489096926665
0,0681413337824697
0,0538258756304653
0,0581519533985797
0,0448216395232637
0,113150140665114
0,0869227675708463
0,0609640692973127
0,0595561129323728
0,0746522439344844
0,0687581216045745
0,120864807169623
0,104708213099096
0,0686741250708207
0,0640305583635063
0,0610073040152458
0,0785446102415081
0,0942008491296526
0,0541581674805522
0,0676361072294628
0,0566612913756292
0,0588095362125166
0,0537629304316503
0,0638320483620942
0,0630490246954237
0,0644933695408159
0,0565735688780623
0,0635010015627711
0,0649469403941162
0,0778620433803589
0,0672298103518035
0,0662443505724208
0,0564775755292574
0,0596056755342183
0,0730833431701541
0,0987804099789278
0,0625056739227223
0,0660689028896433
0,0625333559998454
0,063889024136042
0,0582830218990531
0,0664049660397358
0,056042462525808
0,0627839931548762
0,056641612189855
0,107730370875052
0,0808398403250506
0,0695837033153855
0,0539021400150136
0,0909020195015769
0,0790568411085341
0,0630085321958829
0,0637091986873211
0,0688223452600673
0,0542753725313017
0,0591178762627101
0,0972307570543031
0,0787864275338984
0,0602940389700942
0,0824016096757142
0,0729296655786207
0,0701480947458723
0,0630850799453132
0,0596599266388237
0,134613426089336
0,106407803505466
0,0658289418281079
0,139446294222172
0,0883129635085179
0,0848260974527738
0,0686162207791767
0,0445706355330117
0,171264021616496
0,139040620610305
0,0708629828071254
0,0829002646791582
0,0848192173726448
0,0744157185344232
0,0699909335726095
0,0792228752015532
0,0728426093948958
0,109980223939572
0,145960152286613
0,129204407334267
0,051122616705558
0,101597202257559
0,10595840420943
0,0736244238012706
0,0639418920232878
0,0645251738729198
0,0681873065049957
0,0849500544438343
0,0856672091658855
0,0970747948807556
0,0747604809136008
0,0734934401956866
0,10373354781088
0,0813871552843016
0,0569284539842976
0,0773709240878776
0,0826443064176825
0,070165720798069
0,0583654798841148
0,0683489622804331
0,0685408533890614
0,0654892390000412
0,0641332146348908
0,142566577862056
0,0823470890198182
0,0699392124059989
0,0946394390540693
0,0748812808359465
0,0564651479565344
0,0686327669992018
0,0620329479652385
0,0655683069738741
0,0561346698553512
0,0665721387791869
0,093751858267452
0,0752897171848779
0,0587252245692825
0,0655162456876059
0,0520444387982316
0,0678395386046336
0,0594300921434643
0,0683795846374665
0,0630045801421008
0,0648928728379525
0,0585558272640763
0,0982835055487696
0,100045496401336
0,0637809052807452
0,096082058491476
0,119883679799969
0,0691223682431539
0,0640513677692694
0,0636768905792149
0,0668627452899091
0,0615168720922112
0,0715342195970805
0,0584353931617557
0,0686007343509768
0,0871496653953121
0,0837328081159802
0,0675612564577726
0,083035341674056
0,134597678439752
0,151617626202928
0,0904407886298386
0,0777527486895119
0,0527512741720979
0,111370340245291
0,113108488904102
0,106938640852812
0,0980845533654166
0,0772486990259709
0,0732153421588363
0,069922680251983
0,0662265045223557
0,0752475870893906
0,0696608517836898
0,0715957755577262
0,0678308175492858
0,0775990035929214
0,0758001788090878
0,0684679558066658
0,0757770829463891
0,133130745161777
0,0890882143568976
0,0904509648549854
0,0805980097306005
0,0732237919555052
0,106136691765109
0,127542388839938
0,143970904888946
0,129010852396805
0,11421535236287
0,151282410679193
0,101915478745662
0,0921584644385036
0,0744495270960444
0,094516386846297
0,0847359856555345
0,0879905571072699
0,081534653009733
0,0889684727715649
0,0892319582436222
0,0911952148842703
0,084807121174038
0,0849566957597048
0,0856508932898206
0,124051790000042
0,0927535681086862
0,0962207700284846
0,0885043852792309
0,119968010849654
0,163745705408624
0,165755442678794
0,113161707665199
0,121757486019306
0,0993040690735303
0,103886931405435
0,100425943767201
0,102762777908843
0,109238788954412
0,115652994263845
0,139078120328305
0,149343389337229
0,129910236821865
0,140042856684369
0,106197440307576
0,142312949904234
0,127681193137897
0,144909740478853
0,152473765188377
0,134470890010323
0,102876570253519
0,15278644983533
0,138966820683323
0,149326939022744
0,154064673518459
0,129941618376211
0,112318408744078
0,133956550488589
0,135781196296693
0,132588081643738
0,138297308186782
0,155078438725298
0,13499049674605
0,150903518244933
0,142456295671331
0,144602546003436
0,15764718644929
0,15410345822722
0,146809604979091
0,16452488198203
0,141830027049578
0,155421870319131
0,139260581783558
0,187038810474176
0,175898094951733
0,200058238583686
0,186737301024764
0,157561448663071
0,150153757883979
0,167281862070963
0,157179543747605
0,157465240443153
0,156621594230883
0,179059873637474
0,164359026465859
0,17907114388221
0,173638927655575
0,179289478795565
0,179212843936026
0,189168364086127
0,172734953838802
0,187709464956709
0,179938627385833
0,2007054004156
0,188221984465149
0,234680359365857
0,234028645538264
0,265424684998315
0,240007211262168
0,226764965631653
0,207578093472645
0,204827330531075
0,203972532342741
0,217735290077082
0,220388477177809
0,230013648642991
0,21618858983394
0,225810806735948
0,21672128054726
0,228584293864619
0,221273957464824
0,239849186105357
0,236218058970715
0,256565017201804
0,22945379051441
0,247793942800732
0,240455421073001
0,244067693438511
0,263974560062406
0,268960923300551
0,260778696911947
0,269529227216616
0,255137245396052
0,272195297695558
0,255807659377049
0,268649881703241
0,261041191433203
0,28175825421178
0,272239388546854
0,283027064727851
0,281979661442378
0,289493681820156
0,274954839413649
0,282613940272948
0,281514868911178
0,284053967588206
0,292366942374756
0,3273114255111
0,288893162780483
0,30493154329854
0,298035964631709
0,32578195957025
0,302706769817879
0,328033283575194
0,314512269492267
0,342943770130316
0,310434471438608
0,348792830625067
0,330388466872899
0,325384909661533
0,324133773509832
0,330664231696786
0,321438301352731
0,34598010815244
0,330863606283244
0,364422136039026
0,347620321544056
0,358796669589943
0,358644964638996
0,38792822302362
0,347898732254577
0,380339443902135
0,367298528588895
0,381009652159677
0,373550956706568
0,393158200910724
0,375438545749632
0,406331774387816
0,38371717168209
0,407131942478112
0,37811812344336
0,395704845780696
0,390477589695195
0,407995145281423
0,403460636407107
0,428074936682072
0,407920076914398
0,423993254514186
0,411588922311165
0,436337169603256
0,412538627051378
0,440884313518886
0,409317427598404
0,457167269896773
0,44174792259733
0,479216853605476
0,433881094328541
0,463081596024092
0,44641702347024
0,444042069676195
0,442211963308589
0,464096259943272
0,456313930659297
0,471312645594595
0,458764776126525
0,464280424004253
0,446979770973926
0,507106537155565
0,472332907558415
0,497430541757544
0,459537215300165
0,476702605416464
0,470584430473413
0,489499430515223
0,490256011392077
0,500273570219124
0,505936482726023
0,519435307015449
0,484677672247545
0,505974210965999
0,518082073981254
0,509296867898038
0,491405030662347
0,53139404429493
0,493267280469287
0,540201619988016
0,525302445837506
0,543749764865673
0,529134262585135
0,554739481483272
0,534627174068419
0,537753068090309
0,525767698857774
0,557562632568954
0,542242278240534
0,584455689730018
0,537595278937557
0,574765174088379
0,559589840755082
0,582377753896224
0,567861054904952
0,584932097526801
0,556175624008695
0,573985279149583
0,54601622820189
0,570085178678054
0,57024287292013
0,60230011412412
0,547475562495813
0,598266472525998
0,559921687216504
0,62472390294538
0,586423398641304
0,619614032477806
0,602407956344395
0,605774235874621
0,613838075650287
0,614934324832885
0,587373658818661
0,615960043153797
0,61358990464182
0,651112762097118
0,601083867308475
0,645183572499155
0,603691959055257
0,63595551227131
0,619326218949908
0,624908057612446
0,627379662928662
0,664560351123226
0,606677468006773
0,652642329330346
0,622575922675689
0,674037500269147
0,643074437083226
0,667041658890397
0,627045528311236
0,658699141008559
0,660406597372922
0,665001150254403
0,635500262640359
0,670300139836286
0,635271244625676
0,664415093524096
0,631622708810437
0,66855860955147
0,650297992283278
0,691072864169985
0,685365314599456
0,681418817279077
0,65747866888643
0,702881003104315
0,670360282012463
0,67913054821641
0,65713927540709
0,684903197857201
0,674994694690412
0,695067057812616
0,683912483022143
0,725600456847116
0,686680950782
0,713674716479053
0,710706353835372
0,730263345094974
0,669901871494063
0,704771808631652
0,676601123663936
0,70858462361974
0,708291524832323
0,72088615696314
0,688440653066588
0,736181652943022
0,693337592585345
0,714445791332932
0,706839218843626
0,696629228709192
0,679621526582402
0,724134283068766
0,682556687122953
0,745284895900747
0,705780613944999
0,75350130156473
0,724193964193297
0,751901573668382
0,720749038491137
0,749846652708464
0,698995233713289
0,723503310159156
0,712463814394603
0,7344417723897
0,718458378150219
0,767675174231952
0,732654202459612
0,76454409779862
0,728658220068012
0,742055458639339
0,704115972662335
0,752024539634741
0,710790928922312
0,73728447194195
0,730575482218286
0,750800006835515
0,743262597344425
0,750472654855001
0,730106862687236
0,74136695963308
0,727860989256177
0,776102333040056
0,69226057653983
0,753163027140517
0,7288458025124
0,780334235267288
0,745783673494748
0,745173442910565
0,742174963151147
0,756982541619835
0,735301246443184
0,762560314236451
0,76081289413497
0,751826071836841
0,740303689660569
0,761827037543913
0,726332323171982
0,767627246742106
0,722474314442719
0,781356172954719
0,726449924442333
0,785860353609246
0,734594951183252
0,764232137746935
0,71693203103557
0,768771551663249
0,727453746534769
0,751919684510704
0,725379828724788
0,752860630958567
0,719641015631054
0,774195971131826
0,745445094109225
0,752198867185156
0,718941929244706
0,745977245717484
0,74667316317444
0,745800357070664
0,732193306896369
0,747390441051587
0,748193517685706
0,73469985827048
0,743280693962554
0,73674842202489
0,734463925691228
0,748429954571775
0,735771208911726
0,744654475706836
0,711586484219599
0,752642786480948
0,724114724631113
0,745905874726776
0,690153222098505
0,752319000059272
0,746171755876675
0,757507257204756
0,727741050551109
0,736062768130539
0,732135075349775
0,748553058275867
0,753006557387142
0,727551236669543
0,743338884661276
0,733634199320104
0,703551942373491
0,722919954904541
0,727090722277719
0,714202100513939
0,720897696556649
0,728792879519387
0,701447812964096
0,729251806089066
0,694484751863832
0,70580988302491
0,718834551746186
0,745935689193854
0,709054841544082
0,71553723196303
0,682632329888194
0,72548573025808
0,693835942454943
0,731449763996417
0,707372293376721
0,713293273520776
0,703008949573346
0,726496310646445
0,689578400826796
0,709848422371762
0,679708044758166
0,722210732161217
0,685210943221334
0,693484573843765
0,698706807936595
0,711895928621852
0,679562513217884
0,71066021544089
0,671714257482128
0,701207091654693
0,683783129998975
0,716474213237359
0,667092810601561
0,67094593236241
0,662046037678724
0,672937123711716
0,665755655009034
0,684539346894035
0,666078666320116
0,689089386191448
0,636360336800831
0,693676575851188
0,656847016585745
0,663804296996923
0,647375605085043
0,660268065399732
0,638064845267453
0,655853574377914
0,626169058861434
0,671105775040288
0,627514622948972
0,651412336363426
0,647121765479555
0,646952383776755
0,640226101657593
0,65988224943496
0,621467229981518
0,653205621163174
0,633114213399093
0,649180810830944
0,624630223857328
0,625703548940423
0,631946410965368
0,617131106511971
0,61467767313567
0,62271396295816
0,605374131375635
0,623041306268396
0,608297345385413
0,60745569432095
0,587838152638023
0,612356532566028
0,609351349704755
0,609904908544345
0,606658331405426
0,608829988995935
0,583109215179217
0,60779465745002
0,569066436837135
0,605812246428234
0,560736978602594
0,599056233564362
0,558845862647236
0,578702480565195
0,574462686756549
0,571996620020611
0,563655813983109
0,560471605312414
0,557768406088041
0,583759774020189
0,555158693951247
0,574721866921916
0,554669897920894
0,55693040876225
0,533289640182471
0,560991234092848
0,543955685965828
0,55143872856064
0,537014194881047
0,544568991826059
0,512574731226663
0,541661955528661
0,523750582360329
0,536920730747982
0,519050938929166
0,539535727881989
0,50834136139129
0,510164647478779
0,50315589990962
0,511978288436333
0,508650708060136
0,49721652107144
0,499380903441634
0,504538844771447
0,493654338559875
0,514844776970203
0,491435826816309
0,488660055204902
0,488216079171223
0,491814071134908
0,484875557126492
0,48738401130126
0,468687870689764
0,487717090778611
0,478310724077893
0,476663444650665
0,458207608942935
0,474419792557861
0,45286505486088
0,463181247122965
0,466149012709085
0,465522505992732
0,455699228468623
0,458698375954715
0,440010858352301
0,451025984579688
0,44069993884573
0,442914305529578
0,43232866168085
0,439454498268471
0,435102851172687
0,443701948754663
0,423497646376313
0,438942766451132
0,419221033714354
0,430199447922571
0,420233198921743
0,422405944472798
0,409186726540809
0,427335383249042
0,409753784170167
0,40325511587156
0,398160984462103
0,405871402511089
0,404955891565061
0,414502740233285
0,395678680497705
0,396767778459391
0,387907075538081
0,404344962784438
0,377704786060227
0,392370657257515
0,378708512260207
0,392900907845598
0,383607128143555
0,394918352159429
0,376759072393709
0,379095064360729
0,373626129501784
0,380232603866168
0,363307806546774
0,370916487659307
0,360636636482127
0,366779151793364
0,366344227799202
0,36655832119941
0,358513132972965
0,359592289179289
0,344152870013445
0,354670358643814
0,346442422690789
0,347177415812022
0,344353268395439
0,352798488742551
0,339941940387065
0,347990764160508
0,338758100068851
0,34278668790666
0,334694392960294
0,344041054127292
0,330193490894896
0,337230486242649
0,328780388540481
0,329464260495406
0,325881173975368
0,330498373357796
0,318693099667026
0,328736243842689
0,318698267275286
0,322202796088654
0,309556005962465
0,322631936156592
0,304620055105162
0,311140234626432
0,302866748902455
0,312924912102033
0,300136363233189
0,307408285688211
0,299769341668334
0,30502898132117
0,298575859986884
0,30048993029369
0,29790772276499
0,298116894117073
0,292248273097656
0,294358879832436
0,28344869575539
0,289463459761391
0,28831389146413
0,28560700678615
0,285325118334426
0,283904821607446
0,283240864636044
0,28005221879645
0,273004059730298
0,281863638174247
0,271243497695563
0,275798258608908
0,26495733538944
0,275058793842403
0,268982339133826
0,263675648166225
0,260590610154922
0,267662176396837
0,260750622442845
0,262653207069133
0,259471735194191
0,265272281792646
0,253042252709917
0,259484012958848
0,24874944367413
0,254445844386295
0,248367510836702
0,254250250580801
0,24733621915402
0,245327578490885
0,244110237536284
0,246877629887895
0,239437983873606
0,244365557064304
0,239761548979849
0,248730339997853
0,232519288614535
0,241786346177394
0,231352949478314
0,237683850814697
0,231656048324448
0,233735026839576
0,232789387052735
0,229685423373147
0,225650134922074
0,230107404809267
0,226250459866782
0,224949980708463
0,218260238107511
0,225102281598685
0,225468847957472
0,22645365051663
0,217224263847032
0,21497596739294
0,212203810127707
0,218148344718312
0,208606625388363
0,217198625303833
0,213364935535642
0,210840279080459
0,205601104347248
0,210000228175516
0,205463087341264
0,210037384650337
0,204142117847493
0,207884498824332
0,198292847371163
0,201341512154063
0,198294451298225
0,204721925634473
0,198762229889347
0,206426181152521
0,198590175146492
0,200444782317004
0,194981338536469
0,202242763869044
0,19464411238027
0,200416014602071
0,191900057764233
0,198451211053283
0,18681909601918
0,198993571119552
0,191949075631861
0,199447082097012
0,192633866938747
0,196647630106183
0,190882299737401
0,192874911546667
0,191318976143443
0,192371692069716
0,186501999495501
0,197870112305869
0,189728127768591
0,189817981925428
0,187853118561314
0,192513700449434
0,192667343460103
0,193678613239315
0,192124066705314
0,196695082313858
0,195850936739298
0,198908355884272
0,193453630958588
0,197957461088424
0,192112783492447
0,198918770708236
0,195434641733114
0,203940563606898
0,197378641882328
0,207806250920766
0,200294599487987
0,206692331439412
0,203337890483421
0,204245253013336
0,199941803511628
0,212009784075822
0,209387276187955
0,21111401801846
0,209278464390587
0,220032358193115
0,21205708941608
0,216087104095475
0,210467248926325
0,215637271961113
0,210221260998054
0,225259665079522
0,220300171719361
0,217081195247549
0,216909103020122
0,230717731370977
0,22577120239732
0,2298576703366
0,229014641143656
0,232596755907675
0,225607944039514
0,236347684155326
0,233063788219859
0,244905186294273
0,237572693001533
0,245230346030181
0,237000185922079
0,245458979279062
0,245452086349021
0,253357673209388
0,24796703460074
0,251830232916186
0,247058158380157
0,254300433270845
0,262646816539902
0,266942690039503
0,262953308483236
0,266572369945902
0,262229320393717
0,266145455743892
0,267903903454727
0,27343187473677
0,273776472440411
0,276294807163873
0,271827419486953
0,275628455298968
0,270999207030768
0,284434966147438
0,273750617939081
0,28576224537052
0,277557131469227
0,282561356097256
0,280158455689235
0,282478208487934
0,275619245724737
0,283362308931802
0,277037330942274
0,280200360699532
0,27025091478814
0,279877573105796
0,274458545964261
0,281302722761062
0,271812352397476
0,27930002943666
0,26962744825079
0,278403534226988
0,270798608573179
0,273337671141143
0,264988063536304
0,272361011891199
0,273586667742678
0,275909189280839
0,271126580738115
0,277521575127151
0,271827505440586
0,278285194547995
0,27052491245374
0,279553918384416
0,267254695830775
0,275391250565893
0,272582919176364
0,280232185905459
0,276547498804732
0,277144396563124
0,272847600767843
0,278261108732434
0,277013663825085
0,276867678532747
0,270665874740365
0,279405790017202
0,274963629501747
0,283884261856566
0,276476082681848
0,275618763305226
0,274479404366985
0,275131867917578
0,272893487130734
0,273805531133683
0,275060290389044
0,278048449412277
0,274351287513845
0,276266496229058
0,27171031235978
0,272580360056932
0,267401271454965
0,2731776329624
0,26245374194275
0,266146763395876
0,258922138621881
0,263995735712621
0,256901863757173
0,259484839342214
0,257702536253153
0,25757606393171
0,249815175224438
0,253151631715279
0,244445919980166
0,251946620811386
0,242264712199471
0,245830339988764
0,243308346917066
0,241227651112971
0,233290210629502
0,238335727486373
0,230878708712999
0,235767032164081
0,229261948661945
0,228582015978575
0,223549776626479
0,227031543002902
0,217990300817777
0,220015190679334
0,215979175336681
0,217470807197605
0,208683777190132
0,213283230716309
0,206544140635312
0,207211735274067
0,20366126981128
0,204272909366931
0,19703152093458
0,205153072675713
0,198296858703839
0,201682360352265
0,19462749785478
0,196515457864339
0,19707590339813
0,193247525889322
0,191490991079986
0,192687914095491
0,190259665316532
0,192357202515791
0,18798985696434
0,187546669731456
0,183261532956838
0,183564124798461
0,183390745937552
0,178583176183747
0,176232247581179
0,18432067277314
0,178973608446777
0,177952028377463
0,170384752841206
0,178749787334689
0,176440866084402
0,174638741798207
0,167144221997433
0,173610520797936
0,174259019474241
0,173886928303033
0,170535289745988
0,171171119295539
0,163946361454692
0,171701604462101
0,165332343259921
0,168699262343255
0,168357262711761
0,167719965983126
0,162662073264663
0,166492647996931
0,159713740409227
0,164161216050034
0,161464096772328
0,162801095214413
0,156641933788631
0,159104427420478
0,156101565286464
0,163385072724156
0,158230475002383
0,156601357581823
0,154431859825894
0,153465463774862
0,150755308814771
0,154412711175013
0,15508218491247
0,154217549629109
0,151780859021138
0,154400964555605
0,148776283855161
0,148851841906755
0,149688646603103
0,14934997987879
0,14603257309164
0,148574464919237
0,142065681598733
0,14730112482211
0,146405442910922
0,150187179355139
0,146885501253181
0,142378002511343
0,145277965787549
0,147868235728971
0,143784146043671
0,146173737243525
0,139697553782528
0,14373986981393
0,144162236934764
0,142648391405938
0,141251461126573
0,138565005003188
0,140629138455957
0,141320981870295
0,136647358245458
0,140152531892247
0,137886300833856
0,139385632763311
0,14188306151118
0,138080050437128
0,136065959162952
0,141190581012298
0,137829532409096
0,138688470978838
0,135382687956325
0,13966735030021
0,135902949949779
0,135969787403433
0,131940855921239
0,136985635522989
0,133919990123242
0,134458445939685
0,131436455547659
0,13348954087872
0,13156608826701
0,133032709292966
0,129411512056184
0,132831010975341
0,133671981240004
0,132295499222892
0,128885687797106
0,130985706091274
0,129518629862313
0,130708372997546
0,128130789079449
0,127209912327736
0,128148591688894
0,128710016612428
0,128463649032787
0,127316629710678
0,127433624798653
0,132666202458058
0,12746370272883
0,128122059972746
0,126561002631317
0,130052383558297
0,127624899067015
0,128154094495367
0,131132247292327
0,129963972110652
0,128429995171755
0,128921391382415
0,126200256651606
0,127190476786348
0,127051030829764
0,124024712751129
0,12315084071936
0,126642957850086
0,125086553511599
0,131581220415535
0,126555932010488
0,126070721803794
0,125647456677232
0,12621771354562
0,12442511811976
0,126253994530534
0,121853503713548
0,122416110881574
0,122359474816162
0,124879882312369
0,119868023024587
0,121826493527096
0,120115491681123
0,122109194034466
0,121298176626018
0,122573453589288
0,120023541736932
0,120461348860554
0,11833592405501
0,122232743096425
0,119049995789372
0,116619441768934
0,116426299540538
0,118698131291873
0,114545998516102
0,114551442649503
0,115543315123718
0,118412845303478
0,115820963957645
0,116571820362794
0,112754865226751
0,11410725529785
0,11282083685409
0,11717888625126
0,112143989659584
0,112210748670655
0,112727363722322
0,115457945705357
0,111281916751546
0,111397592667792
0,111726941576591
0,110497923156696
0,109895231838055
0,112435559360006
0,111595535387835
0,109850018813466
0,107249353924853
0,109426561766488
0,110594630257987
0,109604773693821
0,107706599091022
0,104441753952028
0,103937509109091
0,107771584176942
0,107354973135026
0,10693901251835
0,108215043697009
0,108745013566485
0,106891136387324
0,107155319788613
0,103920799131122
0,10699749978755
0,103135192370739
0,105656243033985
0,105310089434382
0,103549122111787
0,103763695678906
0,104563291196516
0,0995920499354074
0,100426956541517
0,10116547580139
0,103913677417197
0,099033223123397
0,100968829001435
0,100431601955183
0,0998171944005024
0,0978270334712883
0,0977938537426309
0,0943513840467994
0,0970004841369815
0,0963973215745044
0,0962798731500934
0,0936559605093874
0,0951019006321484
0,0942546095247578
0,0959598207584087
0,0923669793386292
0,0921301037230728
0,0938874034781137
0,0926047131848784
0,0902340998865126
0,0929091937565822
0,0925212259773403
0,0900500113028117
0,0906436171932845
0,0917446569304562
0,0861605786739342
0,088586952395468
0,0877098716058324
0,0848995607111515
0,0876577149864925
0,0899507553148054
0,0884028023902834
0,0853711488314077
0,0851452467810333
0,0928371714372563
0,0883983813453025
0,0867030457840247
0,0866546448573419
0,0875810104863816
0,0890944864185885
0,0900554151598993
0,0839598509607815
0,0828223072761164
0,086229779565728
0,0876089246238312
0,0830119753225146
0,0889159679344629
0,0871547618401318
0,0842948353584215
0,0829488097613502
0,0870417926019281
0,0859534776986892
0,0817745359738231
0,0812451304887648
0,0840733507526688
0,0846153119398541
0,0855800956677753
0,0821997814326374
0,0799540216471333
0,079936173387582
0,0828692780264104
0,0818273108651573
0,0838518197471711
0,0817498786248499
0,0820340321326181
0,0821034897839042
0,080976824040619
0,0783380461715902
0,0780994170635339
0,0762376886289662
0,0785554723741363
0,0783813558058864
0,079881614545542
0,0774425742549183
0,077676489362931
0,0764590212982572
0,0805483046056958
0,0765106311004219
0,0759870652354289
0,077998723152029
0,0741614222017451
0,0743529598669126
0,0770073526597573
0,0740421367479684
0,075909086801347
0,0752625887239884
0,0748111476255551
0,0735316413149835
0,0770137331814138
0,0743918738231043
0,0758487002037388
0,0741920675368359
0,0760408023187644
0,0755651729396908
0,0737888628782368
0,0752640412126309
0,0744560520225472
0,0760289841950246
0,0757221378465969
0,0723945136620567
0,0746232667851134
0,0765268732334013
0,0749838371746484
0,0735328704843078
0,0741101211382416
0,0731152907597152
0,0769187510806651
0,0729805403562263
0,073078864573742
0,0739273115438158
0,0708588288589531
0,071935117424294
0,0754413734857376
0,0717630040243898
0,0728115904596944
0,0722366750904448
0,0749758143385627
0,0743000952283147
0,0707902271230074
0,0706696709264333
0,0712463386369833
0,0715365102813913
0,072674757934373
0,0722502843552626
0,0734361828837213
0,0733500863640101
0,071405479204109
0,0679399993090156
0,0697869064726884
0,071600878408201
0,0702338692611921
0,0699491633703783
0,0667492580500342
0,0660668618257472
0,0698622254379564
0,0687684520190135
0,0717053211794855
0,0690969300072865
0,066818933138153
0,0667676086182143
0,0682481094730781
0,0675370604032431
0,065334230016616
0,0650002059910993
0,0629252518033048
0,064119025575368
0,0689115625751658
0,0684371913063987
0,0678321397033157
0,0674114486167567
0,0670004812543482
0,0658917518652862
0,0645898026491325
0,0645443670093972
0,0685174903687878
0,0654357837071018
0,0648790848786248
0,0668572536571835
0,0657220502764811
0,0638860418705709
0,0662318589763241
0,0635561938601594
0,0641137231082409
0,0671614757946687
0,0647421627958853
0,0632624840762164
0,0652511885236396
0,0659346556300444
0,0636102480034366
0,0651032811770079
0,0669779543332751
0,0645692253478078
0,0678685438782098
0,0652881462127783
0,061570829610386
0,0601873365522455
0,0621256097347631
0,0654416400235643
0,065636096326675
0,0627994807415957
0,0603803779393874
0,0630261348940433
0,0627714752459276
0,0581238030780118
0,0618786422189776
0,063385110651835
0,0614084585136943
0,0591995290837388
0,0606127688325238
0,059983939306674
0,0597917958992008
0,058441709029641
0,0581972243287754
0,0584423232625591
0,0582907897428409
0,0605823135759643
0,0602181531435118
0,0595149046888532
0,056047647002665
0,0568449267557652
0,0596236641936392
0,0576835018260261
0,0569985318807742
0,0578570906927066
0,0547259717289068
0,0564903788003636
0,0570330610694927
0,055590275015821
0,0576078146619774
0,0563326134857122
0,0564996471122327
0,0576061037175131
0,0574052988771664
0,0564118926976732
0,0558247574748835
0,054661804066851
0,0537053775118796
0,0551814313929535
0,05540489690301
0,0542198567255163
0,0536489344616507
0,0535504624760713
0,055190043239072
0,0564260232159091
0,0553835053550375
0,0518620130131595
0,0527813708128987
0,0554152580894999
0,0550994088546691
0,0550638057627821
0,0530429273755756
0,052489579608071
0,0553922907496437
0,0550324515963008
0,0524031782277647
0,0518434865147762
0,0539240150403466
0,0557497420769298
0,0528220785574484
0,0516332204667106
0,0547504466778504
0,0540980233666574
0,0505476548033177
0,0503531379664575
0,0520497599915266
0,0527281592698952
0,0528219283287154
0,0506003422859416
0,0505025713726772
0,0508254750645276
0,0497158341530472
0,0495232812002211
0,0503866048865404
0,0479230208770903
0,0487877850653466
0,0476107858553267
0,0475748337565676
0,0475053695543501
0,0474821541221714
0,0477654060835013
0,0469792278933196
0,0492553406384318
0,0477542167031856
0,0471127495630556
0,0478679129646991
0,047915005762956
0,0474330347621432
0,0456108579995567
0,0452225633998402
0,0468222035878963
0,0477438721541789
0,0466616539533603
0,0471575735562846
0,0464891940331946
0,0481310970346366
0,0496238052289257
0,0452680796540138
0,0462430948845295
0,045669658437675
0,0450377738560877
0,0489738348040074
0,0460376964190622
0,0458641890177124
0,0480862853734597
0,0474675597411762
0,046975504527655
0,0483428697389245
0,0485831455563952
0,0483034516092282
0,0492944378625744
0,0486031382784853
0,0475653796582862
0,0476347842333448
0,0464443517535103
0,0452429686040969
0,0461777263643102
0,0453356071250338
0,0451452946861927
0,0431168597031082
0,0416067166825646
0,0442861830076374
0,0470339722766437
0,0501942836203284
0,0432329821275368
0,0325795153923484
0,0389034496525918
0,0455806665977255
0,0393875171064221
0,0338670644409539
0,0358749273072062
0,0384278611877221
0,0363455067741675
0,0414069373005642
0,0419897619705824
0,0392364468854999
0,0385872511598434
0,0433232817621592
0,0402976754633902
0,0426375558568077
0,0468947525669122
0,0469173347441118
0,0440881806402851
0,0438917050017846
0,0410868415254867
0,0411217560637046
0,0447232153869875
0,0425644422268604
0,0411219869301054
0,0430647536852719
0,0420618015141549
0,0430676749022198
0,0404674161635906
0,0444241179463013
0,0412655621411883
0,0372884056719939
0,0347489753590149
0,0380868708301693
0,038534707906589
0,0427568142986109
0,0455161296331376
0,0462108586243459
0,0428100386936005
0,0361143877769054
0,0369646842420718
0,0459212649069412
0,0483620086207655
0,0392438102960967
0,0388994555840429
0,039589156963533
0,0516092540157006
0,0453458803412504
0,0420666545187443
0,0409534331549908
0,0515500621512149
0,0427562647334439
0,0439058961979652
0,0442122044982002
0,049702006181636
0,0424436361105182
0,0443587448177693
0,047399580444911
0,0477442911380942
0,0418732391162147
0,046499601889137
0,0443421418338959
0,0455839724595493
0,0428117068302074
0,0452164476616423
0,0418881873066707
0,0458994997439369
0,0409544507892433
0,0424024715443214
0,0413244633606146
0,041891189029916
0,0408818932708438
0,0427447500746949
0,0411740816862675
0,0427159847309498
0,0411611099574784
0,0422309359021724
0,0399818045211345
0,0406122232869716
0,0376701689203225
0,0391748187131763
0,039020665789452
0,041630383372061
0,0398620187545917
0,037868629515675
0,0384364068063321
0,041413779114324
0,0386135913660348
0,0391085828183439
0,0362948368493413
0,039632066316491
0,0397545967089352
0,0407709682383644
0,0375356614016192
0,039639774539755
0,0369087005136554
0,0380005868124322
0,0383153147298643
0,0398657386846214
0,0384598807445222
0,0397167113777359
0,0384679702110169
0,0405919921027986
0,0386635457819559
0,0395519637653433
0,0397571359678752
0,0404026457655182
0,03827990190618
0,0392212047913531
0,0391128862376218
0,0406081230590468
0,0388734560044562
0,0404143442565919
0,0379622428823534
0,0390079834694628
0,0393558958773689
0,0399577754302874
0,0359775499865245
0,0395078043857149
0,0385370505657336
0,0405328230563099
0,0385518206927353
0,0396735225416354
0,0369615895339119
0,0388716774009093
0,0389407269134701
0,0395162495385161
0,0388779115392144
0,0394862895237946
0,0358328479420255
0,0402655589313709
0,0375089424913853
0,0381837088918481
0,0389829335102394
0,0384285287231596
0,0380081792157864
0,0394111573167087
0,0379731767139301
0,0380445463057124
0,036636496216395
0,0393599631405091
0,0381279787935356
0,0388546688981737
0,0364563071041519
0,0375732717244469
0,0367892762044342
0,0388401463646683
0,0365661925167227
0,0392266381957609
0,0399107572821841
0,0399294412398596
0,0369922057955961
0,0375050039221644
0,0367056431526976
0,0399317247809781
0,038341989815665
0,0402761567586381
0,0359598114087903
0,0386885495520465
0,0393231768688763
0,041665071450995
0,0399345939694283
0,0376743252656529
0,0378059220910384
0,0401317071697422
0,0392439465385
0,0400434764724994
0,0379351740102768
0,0401877628484911
0,036796995845971
0,0407402205933421
0,0407595915627981
0,0396669701510252
0,0387814589225084
0,0391089657282627
0,0372630211383738
0,0395427916726014
0,0376450921056173
0,0391652221728309
0,0382502855511734
0,0401190517302957
0,0376542087782019
0,0392117289558439
0,0392475696919209
0,040341760553995
0,0384908924590447
0,0408490982159831
0,0386249237563902
0,0410839613598807
0,0413160777835947
0,0395946424518956
0,0369587995551608
0,0393907149874947
0,038012255720514
0,0386487992329215
0,036503064085083
0,0366501296841286
0,0376218043346751
0,040581001590145
0,0382085055080151
0,0383105650294878
0,0387817284800907
0,0407717902219606
0,038581879560596
0,0388255346772302
0,037211480618554
0,0393018136570007
0,0376392142134324
0,0382859029369903
0,0370561544861419
0,0386548873109754
0,0383166557602274
0,0389755345729442
0,0370708127585691
0,0390477296256311
0,0404770644973019
0,0402887933887933
0,0372881963997463
0,0415979580865887
0,0399299860663287
0,040238924409204
0,0389670472848988
0,0412969326775037
0,0400444361289822
0,0398655315708833
0,0369422480623143
0,040585872968008
0,0408785149358609
0,0404848975397938
0,0383599967416844
0,0414537647821569
0,038505333547937
0,0392821637230023
0,038955454737369
0,0406023385185796
0,0369038775391881
0,0406313968265174
0,0396079630453766
0,0406737988053861
0,0376170750156049
0,0397319754848481
0,0389064145932636
0,0399681039774441
0,03769935376972
0,0400082158006064
0,0384396970789843
0,0394334571342117
0,0387908685792694
0,0394568671405699
0,0378081191674862
0,0388021573175472
0,0377903784079619
0,0378131611768659
0,0360511485797683
0,0382089579252656
0,0367372849473853
0,0393985382983528
0,0379475678325705
0,037623987017687
0,0375835231580825
0,0397284927708621
0,0348714639326172
0,0371029693354223
0,0379961739013076
0,0370475065268269
0,0352225325221943
0,0381268581041324
0,037586052039007
0,0362294647782394
0,0359872634610304
0,0383926388844627
0,0368686496231611
0,035452187004174
0,0361874506250411
0,039386277947487
0,0370817114200805
0,0373229081275993
0,035817871134882
0,0357876658567783
0,0359207242090491
0,0390019386568649
0,0389038128712228
0,0369398765027182
0,0329941824388994
0,03653781562924
0,0349448540364141
0,0368451691186773
0,0363064598678621
0,0407066248550673
0,0378057713326749
0,0372055261200401
0,0355394942553769
0,0375299041342039
0,0352370221220384
0,0373470964619336
0,0361734108243164
0,03845812619693
0,0358699131592381
0,0382829337851086
0,0342092542674851
0,0369318273856832
0,0343250737999879
0,0381081595764093
0,0368286340715295
0,0377668681643343
0,0365338738839199
0,0369945650933968
0,0351126886256616
0,0368282435359325
0,0354744950947762
0,0357065978229646
0,0353281070129777
0,0381979208891723
0,0344301799731049
0,0357563345462645
0,0352142305408416
0,0383744471917875
0,0362900214573278
0,0360611643388069
0,0345729243522195
0,0332445148037983
0,0328735790615974
0,0366761539456086
0,0389805675090339
0,0388659787172042
0,0345802712867182
0,0371178814368681
0,0363513384792705
0,0365805632315821
0,0349456374271946
0,0353934031851173
0,034038490037871
0,0363070319541571
0,0345664179012652
0,0343804010215513
0,0342355755927198
0,0354534373512714
0,033764338564574
0,035056883613066
0,0334475630816983
0,0368612071537545
0,0344137624778069
0,0372385070990799
0,0354571287692787
0,0354751447061634
0,0344055292906816
0,0376717829017733
0,0340580468194408
0,0369590720920758
0,0367011006700979
0,0374767073211332
0,0334838528440956
0,0363304808513698
0,0342687292610814
0,0337883202079948
0,0326826703540312
0,0355176185478712
0,0334703235020517
0,0346969455197058
0,0344477696466079
0,0345942287719522
0,0315677964212731
0,0341152585260498
0,0335111511220317
0,0359065280859803
0,0326374811533669
0,0350743566395464
0,0325207275373132
0,0357940981988408
0,0316233589141854
0,0350588376801687
0,0297069708778387
0,0356352819801366
0,0345805922730663
0,0362248234110055
0,039823591197992
0,0366968655465651
0,030793150100476
0,0322963728947142
0,0335657208703033
0,0315302885930036
0,0329508759960473
0,0319932441556075
0,0308040863664426
0,0330074072603348
0,0308728728342602
0,0297116069827994
0,0307671671263383
0,0319807118552076
0,0307144569039768
0,0314642261408064
0,0307668319654246
0,0323952531371457
0,0306242506534895
0,0321955397872691
0,0309461285241369
0,031963134604492
0,0298498410740825
0,0307163020194864
0,0314223033565825
0,0287147891799214
0,0416261692638434
0,0409983414731391
0,0334509955453254
0,0319947556460421
0,0337550583375754
0,0351197606635471
0,0303179461559196
0,0345536374003232
0,0314206830887651
0,0322427001614993
0,0301314061816011
0,0326644103674533
0,0302145474588886
0,0305095093542162
0,0299329478288553
0,0318237120857825
0,0290377233318449
0,0326474597605424
0,0304551619477269
0,031648100334751
0,0299231475434173
0,0291925336735742
0,0290704640237687
0,0318481921020916
0,0298246075552754
0,0293338869618872
0,0295633987761537
0,0400413597250934
0,0381439692847913
0,0350563529205248
0,0283730610682012
0,0323251006934956
0,0268607505253873
0,0307812164961748
0,0302335740687159
0,0342388604341936
0,028484629353615
0,030438599696407
0,030763682364135
0,0311768706469036
0,0299797365783106
0,0310182770259137
0,028920856248918
0,0305294166634596
0,0262428327586432
0,0304305018342025
0,0281002274525039
0,0319393369828956
0,0247987429457097
0,0334035927087081
0,0288839288108901
0,0385155336445623
0,0253064092243846
0,0420390077695921
0,0459009578071955
0,0379304188441861
0,0306724463566668
0,0296414771518601
0,0269278408077537
0,0290710763938199
0,0283374886901976
0,0307063049814847
0,0276221676044949
0,0277745147253873
0,0295842725986322
0,0294346991609302
0,0285079157783543
0,0311355652827295
0,0270131962234006
0,0295485705239739
0,0293853889569394
0,0279354962872651
0,0300423246446398
0,0265127209954401
0,0342965399198841
0,0479448310124721
0,0359874929559875
0,0370640838755599
0,0257551950377109
0,0320243853904433
0,0565137390564449
0,0335288350182912
0,034313206804549
0,0285070179144812
0,0324904669729539
0,025570775664754
0,0324535353171779
0,0227456670863213
0,0360469951118864
0,0339477725074467
0,0359872609208455
0,0317964511867379
0,0303730769901696
0,0295867762611656
0,0278443374673995
0,0278639091729602
0,027789005023025
0,03148322640708
0,0271469415881691
0,027352376941226
0,0288220657511751
0,0261801602365558
0,0300424286167689
0,0234547308806158
0,036278646722189
0,0331507863153589
0,0309023525595734
0,0293529707215994
0,0325034472438527
0,0221085861688885
0,0418466183616338
0,0443447911941168
0,0316130218703953
0,0336551298722809
0,0269616010929736
0,0320234089466808
0,026415286176903
0,0292059808752446
0,0254627434698698
0,0296704667319501
0,0249335243759053
0,0319171119463552
0,0271450026447295
0,0301265856916626
0,0258274271488181
0,0305017400094417
0,0258325422450177
0,0306212698696923
0,0256299247251021
0,0306728281069883
0,0305740403068701
0,0325035274596738
0,0509412491026465
0,0542268892224811
0,0518824894810212
0,0401548205512581
0,0376385852910213
0,0293208797896904
0,0315747548778982
0,0279630081036306
0,0316415084484599
0,0322185900860075
0,0312236252847816
0,0293846418471593
0,031324858300211
0,0287504472451892
0,0272084903312113
0,0259070434294627
0,0280851580709298
0,0257044188847232
0,0288356916620009
0,0302637091371426
0,0285466686503749
0,0283903239000706
0,0254775884962937
0,0433388324390264
0,0344430594006461
0,0356362638369226
0,0199120737114598
0,0820388969612935
0,0405382051822197
0,049683799078978
0,0302968021806016
0,0331010536297177
0,0280954674930487
0,0284759650914403
0,031079275146789
0,0394114452921488
0,0267270815683852
0,030745251806368
0,0239517047899113
0,0346003666772434
0,030310883439285
0,0251883103488467
0,0443809515642631
0,0687137322139057
0,0401809710130016
0,0388710408083758
0,0188823993026183
0,0538645289638161
0,0571066385899339
0,0349418117881288
0,0370836350758732
0,0322414579090372
0,0307599676678818
0,0274337967943772
0,0278763559985487
0,0303317219418276
0,037488841076043
0,0285783203000259
0,0314720718899903
0,0306229948816673
0,0293075953101622
0,0387403049823882
0,0336337638921568
0,0491875796130698
0,0407738365169932
0,0306237330292568
0,0387789307934721
0,0325183342783397
0,0326461902765096
0,032913688525333
0,0338728787059571
0,0277899197946897
0,0492079975130564
0,0461415311497272
0,0391607557924392
0,0543299159341643
0,0410845751878654
0,0326903441121574
0,0393291621540978
0,0453107624786447
0,0480819299090152
0,0193136005530179
0,0668088471161689
0,0500597872647866
0,0671600263155767
0,0500674805939517
0,0373211690857316
0,0349350828027112
0,03112941806831
0,0316524437946546
0,0312034607312695
0,0617203299176245
0,0294646841301588
0,0462359814499275
0,0193388307635992
0,0612163579767442
0,0374410604449855
0,0468738097460037
0,0317378321785171
0,0348531955678619
0,0286617930618152
0,0670565804110825
0,0280983671870459
0,0469131259755576
0,0680839105979508
0,0741800747186638
0,0745284038216425
0,0335415195661134
0,0420790212768632
0,0756096390210558
0,0361967926241532
0,0454373397473971
0,0258943952459518
0,0469687302610473
0,0193755703739469
0,0523095177217566
0,0718775792846681
0,04263671191036
0,0386156818792405
0,0404712159784982
0,0381407505352576
0,0745681438926131
0,0442786432062409
0,0420828708772428
0,0346501760257649
0,0438177778864188
0,0277689959467971
0,117475120463905
0,0380955731772384
0,0899628036487292
0,0581171479169545
0,0794723325553667
0,0490094033523906
0,0622266961816532
0,0388172140414378
0,0724711667576953
0,0625534929428846
0,0565766384048223
0,0283207945451439
0,0870892124087343
0,0555028690935794
0,0521512647499815
0,0519237089767041
0,0416571775620921
0,0429039188173819
0,100549466441387
0,113054318688955
0,0920047031289605
0,0510135522328877
0,0575056689387813
0,0803803674281492
0,0526640584558472
0,0487069394945445
0,0429269894890605
0,047722629344954
0,0463300745476622
0,0471745341020058
0,0658871734463642
0,0436823082919158
0,0630655939343803
0,0403965617761338
0,0616886215600972
0,0712635437369405
0,138964980266777
0,0869858915279601
0,0750786384569133
0,102740535523146
0,0826485658871571
0,0786375662864043
0,0551883711512626
0,0561769483731254
0,0686964732092211
0,062688622798075
0,0600282259707925
0,0554392441423749
0,103945691420652
0,0647292136387869
0,101181622022167
0,0775774749074431
0,07709639128799
0,0654541511903318
0,0878799298240093
0,291987010333094
0,0917174119679239
0,11257804732719
0,0704635301765584
0,13835138965346
0,142532104484716
0,103733015474191
0,0838288683988806
0,0896998940827634
0,0778997047231832
0,10273565057023
0,105136220647037
0,110298198640489
0,122464997348743
0,104051152045914
0,100815348030013
0,145283181876596
0,205202197463379
0,209801493239042
0,135088986768628
0,129299842053839
0,153338042491827
0,151704403167317
0,124538239360916
0,146157703530655
0,114158995986734
0,177217526210916
0,184040358241461
0,163252192776583
0,145433057523119
0,163192358522331
0,19332636302182
0,149848896210093
0,254445133631545
0,181864693685669
0,196705248755466
0,157804085356314
0,189976405083195
0,169701480997026
0,185594938782152
0,214955602104575
0,205475841390788
0,198008390783022
0,194225015062738
0,196657637670358
0,194428701688373
0,200005346823483
0,204594734879772
0,203153514231683
0,268465640029043
0,232238315482407
0,495251413791605
0,220473208148385
0,23222875165965
0,197476196402381
0,229178566061549
0,249933191709844
0,235349958880832
0,296292727590165
0,23395115251801
0,210256774025772
0,210192848185223
0,209809289790398
0,211281743149969
0,207438997232645
0,216256823745967
0,194035796854879
0,265265788530681
0,191809478015188
0,308913396172791
0,267845125989377
0,232021709530509
0,201679078296522
0,214522549519427
0,200163652240421
0,219822291317443
0,193561921447222
0,231691384396575
0,223088471942679
0,212867405777006
0,201492103762257
0,189206797141578
0,239476894957318
0,222318112506012
0,196091177984534
0,19796748064864
0,180236667448627
0,196883839375633
0,169057703727372
0,238005777084532
0,235382380331943
0,199832064759473
0,185687960614979
0,180961883074634
0,179200020682472
0,178251379929235
0,173382915180574
0,192678658621838
0,177990020002475
0,18097244569375
0,185300371995355
0,175063553054012
0,173441022802842
0,17516953559346
0,185206782944872
0,175340443471619
0,175079760020066
0,175674980287576
0,171972282341753
0,175096599561517
0,165821813298387
0,173701763148466
0,169092381357947
0,1826676944227
0,178622095880021
0,169787236277914
0,173882375672238
0,167968377505064
0,176568065855298
0,173564577571498
0,172298924424384
0,16879216950937
0,170271109472702
0,170614572453619
0,168679982718207
0,166253054225806
0,171484961357697
0,166075867580292
0,169473535791768
0,16621074038564
0,169188559369973
0,173107586301691
0,165210844818414
0,265470603086044
0,182179768271026
0,18162831520635
0,156085566002226
0,168461891991039
0,155480600937698
0,153668260264833
0,233836604312977
0,193483145033409
0,162389702563752
0,158771353045251
0,147677194765915
0,187344086797317
0,158235308566776
0,156545879521855
0,15801571837708
0,138592319159616
0,246263525168756
0,205153334639017
0,309228159419903
0,247337591246801
0,183734684309351
0,140152846627441
0,187787649125534
0,187321657188737
0,149261119669424
0,150325986100451
0,130677945153309
0,218590302103923
0,153019230452872
0,148236188738496
0,141783685042442
0,14058192063731
0,180329996040209
0,182260676307037
0,157282312081845
0,194438586252134
0,190236274248027
0,178862301634871
0,225527834560201
0,244134190510201
0,178954973215048
0,136357012257023
0,140909242649642
0,131486410044522
0,15650701515414
0,207547273325029
0,140599821928969
0,164588849036772
0,118123514044408
0,132751259988768
0,130800821569145
0,169406558167359
0,129304150797381
0,151384607970875
0,177576027863004
0,121036481620845
0,15860160217067
0,145331475770814
0,200961373099291
0,189682111600028
0,139639428280904
0,108908367703613
0,187512245557097
0,161125119321518
0,140844751305862
0,147942942291026
0,105455683916325
0,129698098518982
0,142125457570481
0,108862743690381
0,15048448211095
0,13549505571355
0,171905503079825
0,187835925012983
0,216698665123618
0,190366347034299
0,124964870044255
0,104986795682433
0,106920995601686
0,112405868850914
0,113935747721722
0,0930907316166827
0,165487896304967
0,101648122777455
0,124734224838421
0,158622489749345
0,115929393590472
0,107664344814194
0,107411899026265
0,102016376487706
0,125590168055229
0,151919159123328
0,183602365742063
0,127955606574675
0,145077210450616
0,142050918297333
0,125506903325427
0,122455540756428
0,120889861984121
0,121786308548897
0,124165708358263
0,140036582291915
0,130005977074975
0,129319782782882
0,135837398152462
0,126478790191993
0,185881082414967
0,169935245320112
0,144274898221008
0,200045644016034
0,176499019189673
0,246988541587449
0,168334124480307
0,170369386726276
0,159568039993939
0,164149383779293
0,17336351638075
0,162577791321866
0,19546291999874
0,216704973026469
0,177196231235715
0,188347271409825
0,176317236508933
0,189926262386672
0,189614102020389
0,253107911382268
0,207238345443974
0,318185754744043
0,24165283584867
0,238918962313717
0,208879163327368
0,198444852762415
0,212118110406969
0,208081476391608
0,199863894856342
0,194491385945661
0,208289096348177
0,245392131955762
0,203712843485642
0,211818846446997
0,204251328161997
0,21257381515088
0,203429713192639
0,212593502198158
0,213822887318429
0,216230260958199
0,217625822028899
0,217401816283793
0,225029680790978
0,31835861314823
0,239555170068874
0,236943577989458
0,225290201108584
0,241325586013734
0,226240538359607
0,237042833872551
0,258958481302706
0,247497385638141
0,240171485833161
0,23649406654595
0,236771752029926
0,241280337927894
0,258324283283514
0,283666074579565
0,237752014572314
0,270635222999063
0,229579543748379
0,322501971813689
0,29456692788443
0,289710394977986
0,279851081785987
0,267811386993262
0,255791161825543
0,258893002488263
0,254758722696455
0,262403692553997
0,26270838304695
0,260164400877659
0,263653024854892
0,258211080559758
0,259542947875621
0,255740978688429
0,263638922322163
0,293651344137145
0,264009600077474
0,263221831165032
0,257677801145293
0,260908203677158
0,250651653482102
0,302524480662203
0,276979534125383
0,269396738185909
0,261919993525542
0,274342444506891
0,289227894457502
0,276812139127635
0,253960690963121
0,257605565171857
0,250194356013313
0,265777489166902
0,248130747474517
0,269562041652488
0,287670180567896
0,270095126372512
0,261327667361694
0,25907198038922
0,260992227203696
0,263318946517765
0,26144117585637
0,267435353864861
0,268378348187048
0,269588462651145
0,274443095488462
0,265333730139262
0,268953720670564
0,281499592318744
0,289282362801201
0,283543243219515
0,265965689597206
0,268995774829997
0,257893257092399
0,264539059219331
0,269529998960812
0,26182497614345
0,249652392576892
0,256453058680282
0,244772372819646
0,254377887826318
0,289661180299373
0,251073135202196
0,262215238547742
0,242799810699378
0,239132039783803
0,23811988296129
0,234813734188227
0,230864596449012
0,236055636501589
0,237831936319813
0,226274786204604
0,227442281822667
0,22512717606107
0,227148019828926
0,224036011347525
0,224931890405296
0,219711796436197
0,219395876201969
0,217566665963384
0,221433083280461
0,217689255599149
0,218978569372401
0,221361354232654
0,219692102896196
0,239802245960263
0,242810515842684
0,242877400484039
0,226230713756955
0,226572841131971
0,226148228344125
0,216379775643787
0,217283525577022
0,211656795320249
0,215742220822679
0,215762418957198
0,220957459063182
0,216506452285409
0,217377461439447
0,215843029663731
0,217044931477089
0,214195176283352
0,217736250916903
0,21358973132004
0,218741933150228
0,211288734946653
0,220983061128556
0,215010992155825
0,229525846247856
0,216538289727897
0,221782412022525
0,220643653902083
0,2194367763332
0,220159897772015
0,219933495814373
0,22352063559539
0,217919313575207
0,213745059557876
0,217000121331689
0,214738079919704
0,215943932595412
0,212716499647506
0,215428163751722
0,211661186349498
0,213585645060573
0,212902897289034
0,212924297255634
0,209667172244121
0,208423240865171
0,205194078289855
0,202218976196464
0,203127979282711
0,203108931774332
0,19527527861589
0,196813847382431
0,193701044057997
0,193406436676328
0,189486379551252
0,193096476939588
0,1894565484217
0,187747326983463
0,185843021525671
0,191454860907595
0,185340606534969
0,184061859016634
0,182027542328903
0,183561655083349
0,179491517109748
0,186015489053206
0,183393469733975
0,182865730869634
0,18180173139683
0,184004785679304
0,18086517878609
0,184790430569418
0,181641502048126
0,18474410948585
0,18360168456321
0,186049055491928
0,188938132274641
0,191312203425732
0,187613560441795
0,189433828647809
0,190253674722515
0,191468845162981
0,192091388878881
0,194596309562497
0,191950680793911
0,192954172517388
0,192711721752615
0,192476558775388
0,197506600407558
0,194391850210617
0,194389923271457
0,196890746952228
0,194373748562659
0,194585129874439
0,193972186260792
0,196020150188307
0,195832703926776
0,194919489431353
0,19163034468371
0,193484554483533
0,192792189956291
0,191633752147612
0,1897678924912
0,193311230155719
0,190087866353175
0,191210296530198
0,18830234681252
0,189433171912574
0,187739053027863
0,187971527161813
0,187048933903114
0,18832323412498
0,184973243617557
0,187050244667232
0,185767474046284
0,184759219818742
0,183405938360505
0,184596707070632
0,183043856375993
0,181591302557807
0,180956541688785
0,18098876527895
0,180057779818517
0,181790026018307
0,179243689470802
0,180453240273702
0,179055989176706
0,178587809790673
0,177792756239539
0,178587995411083
0,175936632398724
0,174449381945582
0,172986837897177
0,173688283417324
0,172510112051126
0,170351656250017
0,169436729593381
0,17104630677643
0,166228820324158
0,165394540267595
0,164140236234122
0,164860370099269
0,163637735566985
0,16259139810863
0,159817640306257
0,159123658910366
0,158050138343604
0,158686387130424
0,158113078206848
0,159011557490577
0,155949119725085
0,156902943059684
0,155253246238027
0,155762920891153
0,153862258938859
0,154414249167461
0,153954903997497
0,154055038050734
0,152894985275757
0,152095403629933
0,147456787641948
0,147982096660151
0,146207057339479
0,146057728085967
0,142616738058648
0,143043324655768
0,141187538561211
0,141245828054275
0,142518026121813
0,14367568343923
0,143960380262223
0,147821577255854
0,149203892806317
0,152800004584082
0,157061814432624
0,161569320041218
0,16718160811718
0,175351077005408
0,181508572547749
0,1903441662077
0,198365702052292
0,205914460233159
0,211962888070173
0,222692596968553
0,229463901544774
0,238240163691603
0,244565629223507
0,255302818018817
0,260891734961681
0,27160279007483
0,280538808493676
0,28654413843886
0,291468830842816
0,30152462436956
0,305899957342247
0,312446574223157
0,31828327880988
0,324817819019634
0,329178475466389
0,333851747829017
0,338896961855938
0,344528960030566
0,345144961394866
0,35058789754942
0,351045072673899
0,350523209327803
0,355647317066765
0,356694245009252
0,355154822688212
0,358022438220342
0,357585141045615
0,355895057922591
0,354296858204218
0,355403626024599
0,357483809464424
0,356203256903429
0,359679258732041
0,361301873356268
0,362640578027281
0,364780017657925
0,3643530599782
0,372302256281526
0,375171251191517
0,378934635443409
0,378937588558488
0,381811806823409
0,385572827153616
0,391120528308437
0,39720210301598
0,398296710769548
0,403393196047668
0,407564351820866
0,415892508443309
0,423649654155492
0,427652142547236
0,432508795552426
0,439835736520444
0,4462308650673
0,448711871173658
0,453618737740911
0,456836811348954
0,463284535207157
0,469801190918012
0,471850726932675
0,469031526294115
0,473341841231502
0,470169313342821
0,46779873571752
0,470436306236672
0,471885972177534
0,466582408699852
0,466458646595248
0,465851728950832
0,465162636116326
0,469261043245945
0,472457802875988
0,474351302041931
0,483175008426226
0,489420944895785
0,493868643814231
0,503560369452381
0,51081930478581
0,519130057718311
0,530801389906162
0,5368817222115
0,544668282555191
0,554099514648629
0,560960764265013
0,572694550491789
0,58040835322343
0,589515881225613
0,601381859329919
0,612692525228228
0,624491418340317
0,63144080870194
0,641890520721381
0,652163180416462
0,665098591718063
0,682959551769989
0,695188997365054
0,705795475947975
0,719310900391685
0,730435200566547
0,741166510369207
0,746942259471094
0,754458619347549
0,770837969186196
0,778019918624563
0,777640985031477
0,787248100992002
0,800360444241612
0,81447395351546
0,812822532450247
0,811780305052804
0,816418147683455
0,812960501313518
0,810378557226184
0,806203833167413
0,808154191745975
0,803833769184462
0,79600735147483
0,802306004918863
0,78716951239675
0,785399934555196
0,785401263965354
0,784895129109215
0,782219499410177
0,785737443985215
0,785351890384922
0,779618671321841
0,80205892359229
0,802768445308612
0,803252671713324
0,813840031420186
0,817448259487382
0,823596304740514
0,842598018998703
0,840204816173612
0,840550510107896
0,846683150050761
0,843601695499671
0,855362604215392
0,867127785198036
0,857238173253322
0,861374982339294
0,858355126327888
0,860208395792871
0,865615157540768
0,863728859669014
0,864534317631963
0,864730330064895
0,865715151456958
0,862637269494945
0,853711961841292
0,851872375476159
0,855876286601909
0,853932469879262
0,840255416112963
0,839962753404396
0,836521784189632
0,829567024569536
0,825702357925839
0,821138148063418
0,8191075376896
0,807833183867202
0,796959631542057
0,784756228450392
0,773256548338234
0,76774080191055
0,763051781733129
0,739406611634829
0,716709796110756
0,70325888889215
0,681695522857029
0,657959925526602
0,634455512946242
0,609555283775303
0,582243185451283
0,560751657912409
0,533155797127713
0,511730210939041
0,488783827753599
0,473736569581375
0,457763793116334
0,442490669110923
0,43428776690392
0,426438731648728
0,419903695441058
0,415222017481549
0,411030718876715
0,404416712809246
0,402501242881132
0,400136877862428
0,400195084450687
0,393396937743456
0,385241542381916
0,382909876235226
0,376693064516087
0,371538292361376
0,362189222215606
0,355376573349233
0,349914920557258
0,342044123789382
0,331553520097306
0,32221474147783
0,31612848524758
0,305719245095366
0,295197915700243
0,281414438884397
0,273474413589011
0,256845637353636
0,245088427742294
0,239678498793045
0,224711976199933
0,214836575215676
0,204983763833804
0,194837840443626
0,184320507004781
0,175904714272242
0,16834952320584
0,159231415887937
0,153414797923265
0,146536520792756
0,14248337473766
0,135698723410763
0,130992344885183
0,128467450006057
0,125644697429834
0,121917960312212
0,119958528161043
0,118553871856151
0,115060022878077
0,115918862457587
0,116473272794839
0,11682420502687
0,117485685323059
0,116637459049014
0,113023318020425
0,117554098081257
0,117482284440349
0,118637197868093
0,115670150605736
0,119735690739422
0,11871861844845
0,119786815891879
0,119748851427545
0,119841558045344
0,118645997502548
0,117274903813475
0,11759144969118
0,116946401802917
0,116258966145373
0,116048122387465
0,114340293409519
0,118924420936287
0,115798547119214
0,113668368837917
0,115406768339635
0,110586440674102
0,110141059657677
0,113016162083534
0,111322222887066
0,111012499838507
0,111652465502412
0,112579697736906
0,114943230405026
0,117485709250382
0,121330925344077
0,121751804577428
0,121353343377059
0,125862424654038
0,125286250381726
0,124376075761444
0,123791274747081
0,128888043556817
0,126207638171051
0,129810932316019
0,129086318435608
0,131551958998527
0,132515162072176
0,132794891282557
0,131496379940966
0,130994346271416
0,133938771619671
0,13376382202148
0,133146361456732
0,135731906987706
0,139956257175001
0,137785435798363
0,138524740377241
0,137576352370759
0,143607505566507
0,152810841289548
0,153990871923841
0,157176817597638
0,160982799888769
0,166933678301811
0,173727301591014
0,180915126251056
0,182640209973123
0,187215371439309
0,185725807611943
0,185928711087728
0,189179815213081
0,185705336265667
0,184566483604316
0,18572177481355
0,178328093677507
0,172012591546844
0,171072473609766
0,168915855831328
0,165014658553368
0,16495396027896
0,161593803123321
0,158160970154948
0,154948925879394
0,155001574862144
0,154530863581727
0,159461695614528
0,159237694537937
0,153432360096362
0,155114231436024
0,159446282086464
0,156413420149415
0,157297073762302
0,156915237426275
0,155109304387102
0,146940036198413
0,151700604047751
0,147714215097572
0,14469963326392
0,14406323235037
0,142281426226765
0,13889288136413
0,143034913187523
0,139164284769652
0,135987037414147
0,137980677814668
0,132473643602831
0,13285203697437
0,139762187800637
0,130703012452889
0,131061346735607
0,131764513012808
0,129524502153567
0,130898949445616
0,130927517310163
0,130070758352343
0,124213094119477
0,122527537640189
0,126724351712542
0,121023987925087
0,120083663804486
0,122049941062165
0,118619317382794
0,11680888860947
0,116176783469589
0,119199712374659
0,117888290978909
0,115805627774272
0,115942410439112
0,114126526163933
0,11511705687675
0,104116617821711
0,111974294316546
0,113391167787175
0,109389573673127
0,112990988421025
0,112033164288379
0,105043955400079
0,10388470685953
0,1032918993863
0,109559195694968
0,116965387616443
0,109035121165688
0,107603415545277
0,105441323123346
0,109123651510604
0,119664318786811
0,115949528431918
0,123131329355395
0,115948294512243
0,111124390185192
0,118705175498974
0,116424429352248
0,120314168800577
0,117807375547445
0,11827007112591
0,119361873045063
0,117695435520062
0,122578009089369
0,123057174261809
0,126907232323146
0,128101125796248
0,124545342982399
0,133407536354136
0,128569820742169
0,133748741483481
0,139108794509853
0,137857513855501
0,1397451250583
0,145811507553759
0,158231654141647
0,147346430957293
0,156493752039832
0,163096694437828
0,168476605518768
0,177738651276425
0,176103022934272
0,17270292638639
0,192217116299858
0,188917774825279
0,201710273787778
0,210097283947133
0,218584466913202
0,218832243962403
0,216905598140561
0,207648979491397
0,226998906179134
0,229347982964232
0,217129575086606
0,225959427111736
0,233609160927095
0,215457934940591
0,212344569053312
0,216902062397499
0,2271902914413
0,212934729143901
0,201097299501353
0,215267104724672
0,218627694421999
0,207284817767816
0,216278220793422
0,214453954373554
0,192147328678206
0,20229101725855
0,204905243420581
0,20274489521976
0,19771117557293
0,198401164984792
0,196665010418682
0,188517033827611
0,195655820140736
0,198950925838505
0,197437269705148
0,180204090332927
0,182488511736572
0,196896277318829
0,174156037831956
0,174882143968188
0,185760181772291
0,188532149199822
0,170032549710012
0,183929124033039
0,178369936635463
0,17843334107559
0,164620388476616
0,166384743302151
0,188750111767313
0,167242263559284
0,183784821843506
0,168772539466947
0,178632875349781
0,189387537025505
0,199673677004241
0,191184764490698
0,183263164886179
0,196690945031248
0,186459282019062
0,19666855892751
0,187696309877649
0,179116436453078
0,183959606636244
0,185516747331189
0,191452250891703
0,176205041801012
0,179544811730476
0,179043819059521
0,193295616900643
0,199063094976476
0,186194437647422
0,197070610708386
0,214999689177703
0,190562464210741
0,200248878752375
0,198200903926079
0,196117971327567
0,220921702024797
0,227682322005577
0,214448686620193
0,222310873748485
0,214442263772909
0,217903585136715
0,237385144336902
0,25680472943184
0,253948589381045
0,2535438146556
0,232993450136195
0,243627776486535
0,245447381143926
0,282204949705381
0,258967624666709
0,264822287019264
0,28185393894146
0,273390805860268
0,280420888468164
0,265876358271914
0,280158367399961
0,296048448208417
0,287298511136608
0,267853067744228
0,248940275364209
0,251866930158614
0,281884984424152
0,254151633347557
0,2733640911775
0,260282789123438
0,234406114281397
0,285099982558817
0,238810750465612
0,261750029262692
0,24223084071923
0,25033074430693
0,225718748660051
0,224703036602291
0,289814790043665
0,267204969017385
0,233744806819677
0,270884453364007
0,266034976890657
0,238975961424262
0,226311622551248
0,254318414541269
0,288778847219977
0,25177235678625
0,233955316191425
0,26491511677675
0,262922374136887
0,248707679238901
0,301818934372671
0,270509013889917
0,293598422063634
0,264495624223228
0,319872991579211
0,155871480396777
0,219367548252518
0,325351011984218
0,261940931318194
0,23115509980412
0,291642705014475
0,334057885496479
0,261950103016746
0,34390706887472
0,260726870328403
0,413013406743918
0,154471689632328
0,164314963584552
0,373019132267728
0,356752005468509
0,289389346771531
0,372353546511801
0,24432318138236
0,24571755649427
0,445427021478817
