3596
4000,36533379555
650,420452594757
1
2
2
0,0912705774687577
0,0914102549015902
0,0911955733451725
0,093732638903885
0,0958573067901327
0,0925270391296562
0,0955574731761251
0,0886066221483784
0,0933113472210794
0,0929409416784605
0,0932702779912407
0,0887007074812962
0,0923273408098256
0,0900671924614158
0,0879910805099337
0,090038012382737
0,0876166118596054
0,0871985956005472
0,0880071860405072
0,0841264755500527
0,0952221048122346
0,0891828901750841
0,0933267881943356
0,0931270355455363
0,0970319809100615
0,102805528189396
0,0914109834072127
0,0872866054918035
0,0944546162997774
0,0934793298188223
0,0886707623965205
0,0893501000651221
0,0896933520149546
0,0911405040200506
0,0911947446913726
0,0873437569108243
0,0878372206277289
0,0961713903644641
0,093950547005491
0,0919290941831769
0,0998828391210465
0,0837665661689146
0,0945886027952547
0,091145994412679
0,0996563577918875
0,0865544686442394
0,0889460314004655
0,0886858434028457
0,098181925048296
0,0889369248578254
0,0922173715219002
0,0909700198923699
0,106187384348896
0,104820968800825
0,0946587454704426
0,104383327753396
0,100600434139694
0,0820618238162537
0,0896419693068892
0,0914312207987343
0,111389959169109
0,114021438878274
0,0824745112118651
0,0964071952569027
0,0786312620460163
0,0947091555683677
0,0899985271187662
0,09284522870083
0,0869237805103242
0,0892054165967895
0,0939780025560957
0,104419433717859
0,105912034491216
0,090734643269032
0,0986674647025864
0,0955020415153486
0,0837265558546524
0,0870203796603543
0,0821658528629127
0,0949586489809127
0,112506838791394
0,0952291925852954
0,0852302061052048
0,0812804505301771
0,0889283462748438
0,104615140390947
0,0832939157832819
0,0865926847722112
0,120974214915557
0,0944341728819702
0,0918119581309007
0,0908240073991421
0,0831915102111337
0,0778815774873652
0,0877936196701527
0,0888637809322712
0,0866011103547714
0,0793887964362215
0,0896616394342764
0,0936166585524831
0,102336771126085
0,080863499224916
0,144636483529866
0,094928921812648
0,15135444732659
0,114010588522359
0,0794861786089414
0,13996766563821
0,104558251110219
0,0978076387554065
0,0788418781280958
0,0942460503577019
0,0978228087182345
0,0941069324153179
0,0834915315301134
0,112393567471178
0,125915128324094
0,0857952675003874
0,08696445970537
0,0814478312342121
0,0785458696378473
0,115490841029649
0,150079861337061
0,0809046005158129
0,102184974694676
0,08514814898906
0,0990632966424976
0,124748154688308
0,127158615330876
0,077850978301634
0,0887191053035602
0,0728410258702202
0,0825133198381842
0,0804504417371681
0,139531366063807
0,0996549023273513
0,0946122529278314
0,0932180519469355
0,121342789261893
0,153396684444975
0,102774872579521
0,0821653629842044
0,0841880240057485
0,0865383466022406
0,142489639663818
0,104131242698218
0,0871228564453479
0,10678935441667
0,111313097577302
0,0789255772633773
0,0954780002933907
0,0803200799025395
0,114037553245137
0,0936305566792792
0,0727121920489636
0,131187215618211
0,187689399153773
0,0939805431913188
0,163671040485202
0,0794210976710881
0,0995802573699586
0,0844093885188483
0,0819748478362105
0,0765718671688732
0,0856801747607699
0,0705076697742576
0,0998209939428465
0,128730521725481
0,0828145819786888
0,0941457701403751
0,131443528622288
0,112967302789124
0,0832986301131176
0,148125444364659
0,110343902343617
0,0765672473346026
0,137840691718779
0,0915458905564501
0,0775536016007168
0,0794134071001507
0,11651358692047
0,0759038752431951
0,0927900524576483
0,0789515458088171
0,0949509982323786
0,0981196827133685
0,0976058142088416
0,0870730401520188
0,0985504693537579
0,0702217301303089
0,126848838486978
0,13776422742298
0,12726117020375
0,0858719612985884
0,0963689395350137
0,0648904217264651
0,123964701117847
0,125001926055115
0,0874183462947996
0,0829404486060502
0,0807171645316032
0,0776257464699651
0,0856797681917288
0,0722763851428027
0,0838264063054225
0,0604341470276387
0,138097176013894
0,108565925788745
0,0842093069761552
0,0818996053612162
0,0973971024300424
0,0898063472300081
0,142100967171536
0,125907421345088
0,0805683363680991
0,0868232713843231
0,0798461614337891
0,0991043635718556
0,112895993273533
0,0783030833497141
0,0868342137700017
0,0786767149783317
0,0811675614355584
0,0751591439843483
0,0792609555704279
0,0808330721710183
0,0848116033894518
0,0780055317354853
0,0836672358359369
0,0846580727946471
0,100901441566407
0,0935163764884248
0,0900899934660686
0,0824067675255514
0,0783406071260391
0,0927299697051867
0,115598895330216
0,0848543269502259
0,0937858402377476
0,0771551994648284
0,0875513924191557
0,0784122776007952
0,0884451057236447
0,0784958892360964
0,0883844048209129
0,0783512348836735
0,135658109328192
0,0940579316682286
0,0882314173662209
0,0747501862715323
0,107306195563448
0,104322606117172
0,0789710009244523
0,0906224671580482
0,0884354931675262
0,0802627649886652
0,0819201965090257
0,120780168260357
0,0944031687927968
0,0840368808919963
0,11232712262001
0,0918017960769701
0,0809947407257717
0,0923220138058967
0,0839617937880513
0,166032936932977
0,121030567354052
0,0976325720658945
0,172893285701346
0,111662754035366
0,106457130264935
0,0964162148818869
0,0640070833199304
0,210670508573111
0,160994986516537
0,0951214117467378
0,0960422535722223
0,111098199402789
0,0964372526071482
0,0909517506201874
0,106263102985683
0,0993218935343586
0,144664662388833
0,179501889242098
0,171737590134098
0,0817475889069146
0,13143115183084
0,139919074705296
0,0957894890516376
0,0920858120383366
0,0873975865849509
0,0905882538083062
0,10856936126041
0,114875463324769
0,110776888795356
0,103194625251879
0,0943878829037292
0,134424594118718
0,0963944543086205
0,0875034013083834
0,108243927502107
0,111857940275756
0,0930405058117077
0,0872372974858682
0,087228182392312
0,100621298999301
0,0965811726389066
0,0964166063215426
0,170194112274961
0,115891634744109
0,103150577041528
0,128692677290072
0,0980566997797334
0,0871522109061535
0,0898760943993777
0,0937100880945271
0,090840023477959
0,0867797655222849
0,0923532332771906
0,121065269729704
0,101583263937718
0,0892327579344764
0,0951321666650182
0,082505301670897
0,0991782610196634
0,0943980502661629
0,0982977217001829
0,0932652537746107
0,101469940696866
0,0990828896381595
0,136042875733884
0,134000363263414
0,09623173242296
0,137825498297366
0,150261894288185
0,102204039953572
0,103497765055553
0,0950190163913589
0,106830019706104
0,0985620854784935
0,107492129195457
0,0965167992301971
0,107923784704687
0,132915534436102
0,123187354288402
0,109638304751819
0,127974906638033
0,180179182922131
0,195431646694907
0,130500262630656
0,120473285300216
0,106741252338714
0,152673642378613
0,157845342512721
0,140533417759414
0,143953333818196
0,114917923836046
0,122687409016685
0,111491798377121
0,117388452239962
0,114418528797766
0,114855492895437
0,127483931068256
0,126346137859122
0,126273852069704
0,126273633609011
0,131175005146461
0,133244200869183
0,182543417428704
0,144143526372148
0,134789910840562
0,137871479150507
0,136915945831215
0,175469276970552
0,199768298933713
0,18424602412059
0,19202492285069
0,182109030695618
0,218083854639762
0,151011878010233
0,152114877316411
0,140545028392893
0,157526039880878
0,151439080988832
0,152033373647617
0,147898536673942
0,154082836531254
0,15335490732376
0,162173123885529
0,154844475237466
0,159326680708482
0,168143878215589
0,208231715755263
0,173187021048438
0,171562465877238
0,1725556608754
0,204045571393897
0,264306530487495
0,242608001726337
0,190930463267733
0,193567882281
0,188485062486933
0,178903117253718
0,184851367782178
0,18953997154858
0,196774124325688
0,201408447353871
0,229992055371135
0,240002546641272
0,222998491733594
0,220546321391386
0,203253957924936
0,23486575084667
0,222296833078627
0,23729482746962
0,251884123004612
0,230792941841224
0,204290199614242
0,247309966540287
0,240699753230061
0,23143509218979
0,254164620210281
0,230211941827615
0,217567254058997
0,235494969998683
0,241492414706552
0,245665226728475
0,248169047705672
0,257437015499044
0,245133450599762
0,253684994309404
0,251202914933129
0,270312382353276
0,273437985967288
0,275654696709766
0,256722437011298
0,27135188772812
0,256591803164226
0,272991826995112
0,264968158276199
0,304157005518726
0,314068379675314
0,317652525456961
0,321910918133555
0,290065843552846
0,281056034422527
0,298127806054644
0,29010677591718
0,295216256286823
0,29373397791621
0,305204997497635
0,289393103145356
0,315237509475661
0,30998914221709
0,314252925700559
0,321447604336506
0,327438360014512
0,309474655408405
0,321989611243733
0,323963053644841
0,346223433192579
0,328812204745637
0,376804120536313
0,38252014868101
0,412675697923136
0,400278922601099
0,365105987335415
0,356033589989951
0,363636289959149
0,36094513016862
0,371010658455322
0,366571287023752
0,386677229872551
0,371151601966009
0,377285527610049
0,368294179138836
0,386080325125982
0,376526495268407
0,394346774378353
0,404083101201286
0,406611306745728
0,382738110910897
0,404298662996264
0,389839153914132
0,41783672938784
0,436650734428209
0,439505455850865
0,425391532033542
0,436351826747046
0,423257338923761
0,42051765310881
0,420117697597898
0,451469248755086
0,434101219242951
0,452209224379096
0,431633808252171
0,466127965004711
0,471750364694156
0,482772496138722
0,447356605457231
0,450120254998108
0,463776159928073
0,47254379627601
0,461670269917308
0,497496199713431
0,47926919177342
0,493026416397781
0,488099157450592
0,495661183737542
0,493885858851014
0,526539132242917
0,503845762366902
0,513233191637362
0,50204190077163
0,50288613535352
0,52889380526665
0,532675388536831
0,489555569389488
0,539460370461615
0,511119672934568
0,527187211946912
0,545398423543433
0,560831641683141
0,551761017507905
0,565805891714399
0,559119632081026
0,581075845756797
0,574618159151959
0,57761272680334
0,573108228184556
0,58280880566751
0,570205278837137
0,609250481843245
0,597135878063418
0,61424247458783
0,601158874643287
0,593200514586494
0,573527565328179
0,615211937602295
0,589221815347155
0,634307964017443
0,615789707173205
0,638372229469553
0,636879749789966
0,651851899683095
0,628716049498
0,660414490856017
0,652052503358653
0,63991282750999
0,638179384397846
0,656043097244487
0,650814844266086
0,695366653172765
0,656052702946368
0,695127887751619
0,698043498940141
0,718841936045284
0,680240015844325
0,684969434358746
0,700300132481059
0,728625674460819
0,695866170193938
0,753810167934224
0,67233389531521
0,707832425365567
0,722558812115111
0,726364158365132
0,682284026126382
0,726577361132497
0,731480666283475
0,730039208181374
0,735567757152442
0,768957500162289
0,750827203286749
0,772131542922602
0,733122359347262
0,759502162333078
0,748883169626615
0,78704887464969
0,783090772618179
0,77460320974334
0,743375041380757
0,794240756671292
0,782076697885558
0,768904737989908
0,759430177113509
0,830367171491919
0,80857939993766
0,798710450532345
0,820537408917187
0,854022287628401
0,797581525522721
0,821039938883077
0,80607738566502
0,819039027693565
0,793896198855745
0,863438798661206
0,865576681618837
0,868035079367323
0,845338543767078
0,833851409181369
0,868398871491331
0,853736194430591
0,840963236164085
0,887773160638917
0,828527116073227
0,849961410096972
0,879989038149746
0,873383611954867
0,886214653499566
0,915643869601653
0,886901603345121
0,889886812994164
0,870959991474199
0,907709238714225
0,894881898301474
0,919040789705552
0,919575417168524
0,94461376644137
0,905571623371415
0,956537927205675
0,95182011188799
0,909799276604472
0,892856534971779
0,946771316572579
0,880306008223701
0,921963355726038
0,911926062348205
0,950858630403377
0,922488904736398
0,949037600964315
0,968512289112923
0,982677398630833
0,945630374836491
0,997499950413424
0,984391844911543
0,965446671866447
0,954474875106999
0,99558300995274
0,964972528012039
0,981079190564472
0,935613940769153
1,00644216276036
0,94116516114687
1,08345883551958
1,00978041685392
1,02095480858611
0,969405453944149
1,03862188439535
1,03609529881383
0,990009364303485
0,998437959149637
0,999357463080307
1,01066306649349
1,01913578939013
1,04480159544545
1,15675189698375
1,07471593090146
1,05957345420426
1,04467724909577
1,03370261687192
1,01766402810478
1,10814472261373
1,04823262562142
1,07166501214179
1,05230468680936
1,02811597872374
1,01656628500317
1,11250001658109
0,998332884983158
1,00286232653139
1,05058769574464
1,0925286608395
1,02108272072371
1,01667635010618
1,02830162995177
1,05497789730625
1,02703264445384
1,0964251221719
1,07925955198352
1,13568848092821
1,08291711961177
1,07450673036634
1,08151356082838
1,09624022568225
1,08532679733425
1,09006564815085
1,03696489936044
1,09547711963066
1,08449616779227
1,14572465119386
1,07170204404993
1,14720441903714
1,10628065001655
1,13749179784061
1,05275162270601
1,07938034672458
1,07871160038653
1,14108829560126
1,09814730637083
1,09132020935519
1,049668102935
1,12839087861258
1,12161984089627
1,13224623514541
1,0685821364729
1,09663476441481
1,09032114359979
1,12029688754115
1,04073247103259
1,13378001020242
1,1543565733652
1,24594985605016
1,18064589236754
1,15923874862428
1,07949191558787
1,14250095109226
1,08902371288558
1,14729678794072
1,13443277619728
1,21359646743879
1,09469417713003
1,16003060416593
1,11023087443323
1,16641767832569
1,06645524578655
1,17425868562374
1,05651730206054
1,09330757905874
1,06331982378146
1,13011573228653
1,06483110863744
1,19498376541403
1,14225490172269
1,12529779709806
1,0456488882396
1,13608915122152
1,08389786981186
1,15530926566979
1,15843022297629
1,13089828728197
1,07486564079383
1,19282548493763
1,15135817706329
1,22481017723344
1,08585659725715
1,13688028551108
1,14610945584007
1,21503173677829
1,13382030159538
1,14457382299032
1,09889334069469
1,15745275027745
1,04299945947498
1,13484118285646
1,12315598983815
1,20813153518178
1,11755003115911
1,13452916798335
1,12568438558704
1,1255748938788
1,09888152235872
1,16724696234694
1,12624697210733
1,13235913099216
1,14124626756226
1,17840902846416
1,10310345644457
1,1506525998977
1,14226840977583
1,15577095001246
1,11425155805615
1,16727482019884
1,06730505462016
1,13193784543176
1,13675958143145
1,1569303998874
1,11971734882461
1,1436204217792
1,08916266682146
1,10583641228969
1,09087565538465
1,10726887755737
1,08759646637243
1,09035761337898
1,05631454670324
1,15616290163861
1,09222440736749
1,13588326611847
1,14741645647592
1,1275732127705
1,11647343701615
1,14917285723194
1,08442535098394
1,1445334882079
1,0635770015558
1,16661455199261
1,10471825715463
1,10133802146514
1,11276215087369
1,1233519918789
1,08949132230178
1,15390896952192
1,04875739991314
1,09320534998286
1,09081544604168
1,04304485980326
1,04459420168788
1,08967855633547
1,06428291046967
1,13858694106905
1,06650280517493
1,11523308856212
1,07011265723514
1,12478155274412
1,09423624779162
1,08081051358268
1,0765089496052
1,05260977598088
1,03641168955657
1,11305874191934
0,99449570948319
1,09303554905721
1,05328389369561
1,10140948371637
1,01587902640993
1,08569397627912
1,04700373735611
1,06298034399578
1,02848554168974
1,06435508108595
1,0212467127947
1,06905237666804
1,04320044997293
1,09955032028082
0,991150265191925
1,06908640164293
1,04674373329558
1,05571840869127
0,973364780736673
1,0720961705501
0,981979206786404
1,03294882887465
1,00332534028334
1,02776372839359
1,01396024794144
1,04378347283594
1,03243403285179
1,0170378838699
0,991511352567082
1,02021887024787
0,995329080841661
1,02741181620305
0,958246414110051
1,02403369754549
0,962370621480346
0,965981207793035
0,952984209081794
0,995918799097144
0,968785877801385
0,99287182716169
0,965595305529829
0,961524647122593
0,935208405496647
0,976877715565731
0,950021746371204
0,949956507389421
0,927035205980397
0,974789423100931
0,940544554913679
0,957524915507718
0,947346796560433
0,973729051759395
0,914442062880515
0,949416216626719
0,900743817240986
0,929558558205355
0,910193340098563
0,90292400817826
0,864578165533055
0,91881695230594
0,894061666208189
0,916009453640378
0,877369726223598
0,915725547802611
0,880833797725149
0,894270086288719
0,849048804758199
0,870106830497767
0,869169359240906
0,892368711650795
0,867547500191558
0,888777881993758
0,823105520619165
0,866458617584989
0,850003880194772
0,868389248009384
0,852674912704672
0,852151064582245
0,821920711084204
0,851085239812879
0,831226870440965
0,844886384368287
0,814157377321064
0,823565289216476
0,796776083203805
0,822425871858928
0,82193504448762
0,801352503700743
0,789501038349717
0,802146085370887
0,797043651214176
0,832473255035629
0,790327519720456
0,794630818855538
0,778617234507932
0,788787226773124
0,780725398775818
0,790191792930637
0,754960207673433
0,769698886279699
0,777248327090605
0,777225961806528
0,758065960871766
0,78403777094287
0,74727994410207
0,760282693231416
0,735586765456275
0,765696669978155
0,724661384347057
0,727700492974224
0,733247058536097
0,751396566385587
0,717994421115816
0,740024980226699
0,695629497563242
0,72569204348547
0,714304658398248
0,717668055584828
0,691480872336866
0,717285405681138
0,69633778573953
0,704198360548855
0,677073736906538
0,689128500655915
0,685610136470565
0,683418520834414
0,690735199553916
0,688605161124957
0,666157927279664
0,682341217483953
0,677356688502386
0,684927289003122
0,663527091682805
0,665530580352324
0,651579341355313
0,668024151372374
0,653218701673784
0,675993611031122
0,64059886401393
0,649491850208223
0,625851228735558
0,657447000863299
0,638546399676526
0,638692394093947
0,627661522920264
0,641198086226094
0,611100216714233
0,625860652787211
0,60389250942945
0,627909624704536
0,619006747183938
0,624279797802764
0,6035021213902
0,611212073128369
0,598217289810787
0,608079797173167
0,594246961799538
0,601713021350999
0,572644108221611
0,594968263614877
0,582203279720111
0,594071196664893
0,58175859707717
0,587145540757824
0,56763214700391
0,579864351507543
0,564287590014064
0,569486252343477
0,563991202538031
0,567832751487039
0,557737377007915
0,570156223410178
0,547748648472663
0,562172430759334
0,561918842108535
0,554339170286522
0,546568590321423
0,558893376287098
0,528781739517256
0,542933594825012
0,528375289586653
0,542830314112293
0,529425180531541
0,531160680761217
0,530888150959071
0,532089011820526
0,520958569645199
0,524231290779084
0,518989816435215
0,518442984341738
0,500736740609592
0,524529506015635
0,50049080694263
0,520603967791516
0,500926386681336
0,502760972071783
0,496702060892036
0,497872081222145
0,491886757399721
0,503220194397159
0,481004852776509
0,494925543007775
0,489852167929914
0,489118856422396
0,482984400583738
0,494173775103072
0,477724208194935
0,477190168492449
0,473343350311622
0,476299879627335
0,470588977052969
0,475208552019585
0,467179706652436
0,472205800156396
0,459306611870253
0,474632976650443
0,453586335020901
0,475225330534766
0,459604839745345
0,460062877292579
0,449353740174685
0,451883071408125
0,449678585987987
0,447106983905579
0,443252252766988
0,440416319367725
0,429948380860756
0,442822082881648
0,432911427734679
0,441190914598644
0,427142977208608
0,439416932140927
0,421583532951495
0,429371701251447
0,416927394097868
0,436614068222283
0,418005030337169
0,429561059117128
0,415003976807611
0,426821579016656
0,419349742607809
0,425452317214225
0,411684778331354
0,420321803966184
0,416560470444746
0,413856769581202
0,411494186935837
0,415079251834856
0,411966921251579
0,410658611248046
0,400566479749307
0,409728617799955
0,404074037453659
0,408492511555554
0,396849415318514
0,405307284986891
0,402069400370568
0,403768355588275
0,394462397994237
0,405012497019815
0,396840171685401
0,411176867373891
0,404592877110892
0,407806562584553
0,402675109462032
0,415748465759689
0,408808688655792
0,407504544118177
0,398512532378781
0,413504965946295
0,402026556114466
0,410263946281651
0,406506952595979
0,411503266904365
0,408653985028941
0,412075652946651
0,404006909374
0,419137827794231
0,413559917528302
0,416747227050733
0,411241496125791
0,428762285551874
0,421294843591932
0,427205212334397
0,414019363376347
0,433531010800335
0,429057703071955
0,431035255934692
0,419330102226322
0,426435045252606
0,4222105716516
0,436459060879229
0,429915456672428
0,441380895474697
0,422724117469527
0,440264769899473
0,439617885827198
0,44927822067919
0,438824345335176
0,4499688656301
0,443638802082974
0,457002853360072
0,450430129898805
0,464942693901216
0,453477911602805
0,457567433082731
0,460128154570416
0,468370992335977
0,464937782852013
0,474784946310881
0,468017896106229
0,480850294014464
0,474332264164216
0,478910969450664
0,473832368350944
0,495016513903245
0,491751455730769
0,499129010859935
0,481524521632551
0,498462655768269
0,495715131429803
0,513628374878699
0,497871850636283
0,513131286415575
0,503001684697389
0,511802242713546
0,503967625168541
0,523718295270427
0,498557963356456
0,511518422376105
0,510696594958423
0,516900740970351
0,511553854175543
0,510820907979336
0,506479058409395
0,508166763457103
0,512460104799533
0,516185485618079
0,503835297804053
0,516423763681301
0,506560436455252
0,513583814800462
0,496510298047875
0,521613898820299
0,49352968184887
0,516198422094279
0,506988530978043
0,508095538129477
0,499398892212013
0,51057465963508
0,502821392937008
0,511535867187544
0,504537638711144
0,50860129374432
0,507302100843422
0,512640432057546
0,511518778510642
0,512660650681555
0,499903478240212
0,511306183267773
0,508432579579631
0,516554994074672
0,507843889922163
0,507863268055395
0,501382773523077
0,517066724551967
0,504677072388275
0,520543355333527
0,507626252422642
0,513686453058075
0,505696379734989
0,523645966885476
0,507921547793407
0,515499864909524
0,520076087433799
0,514078020609203
0,507381334421867
0,521310665923712
0,505850193774325
0,519798469024827
0,503831876692608
0,508123217243663
0,518773053353148
0,51066591446669
0,504430685214628
0,498773642425659
0,496872464433944
0,505401641742805
0,490247041372528
0,491615937275037
0,494046176510464
0,497078527190785
0,487665357286674
0,498242209675007
0,488430893893547
0,481994598215111
0,47492055331046
0,480026475440175
0,475035353516053
0,474096484381005
0,475152659657371
0,4673824025829
0,45662363520328
0,465595132019973
0,463858125409222
0,462130275305676
0,446460260777536
0,462570608185603
0,439399264626154
0,451073562417169
0,434101840985796
0,442242027406382
0,440780674960882
0,438914132034273
0,419644329810767
0,436161250357863
0,4189671007903
0,422917612997891
0,416952302657469
0,421186849822189
0,418754341617943
0,416259895430761
0,413487325763512
0,411465185798684
0,407944315566889
0,408995613578204
0,40309382295032
0,406681535813177
0,402849333364088
0,399853057545055
0,397070764947879
0,39944295760958
0,391860457325942
0,392552430400505
0,388311476038317
0,392196935519808
0,39105169317418
0,388097476264419
0,38344497249261
0,381391821426861
0,375211107254962
0,378674587373522
0,370558926599157
0,383569534975888
0,372422864007832
0,368233930503054
0,373554936999644
0,368654745953078
0,366042425283713
0,375521566846242
0,369534155046433
0,365114085855704
0,358051966322687
0,363538751511037
0,358423909691124
0,364300340650133
0,358744191193611
0,365410534469497
0,353961716099651
0,355642312462406
0,348423302084304
0,352788332916131
0,351195137366796
0,350094971354422
0,350054350048305
0,352063071260762
0,346660808030212
0,35668416216838
0,343651011870623
0,352132009870618
0,341118318451346
0,341685851720902
0,344457183314626
0,34778920129533
0,339829168669691
0,338299379725358
0,335813593748851
0,34453027298421
0,330935685310404
0,332101538444015
0,334264691832353
0,343108854002503
0,334057807998658
0,335764975492228
0,324115561277343
0,327758939260206
0,32860604299672
0,333559809207935
0,328284893896459
0,329368811241383
0,326170726883635
0,332576843475151
0,327758742642184
0,326443230238882
0,318882914560711
0,324888066548355
0,325821479389184
0,328122845057011
0,317512950600607
0,32429293436278
0,317157267142917
0,324830972281728
0,312612942960429
0,321861908646724
0,316047916210961
0,317386131099408
0,311683010643681
0,320634300853261
0,313864010585699
0,315830474056436
0,312210778667975
0,31774488116152
0,308917864413246
0,314568694040446
0,306858856881071
0,314029538397813
0,306563865463702
0,313253675941293
0,309602306998546
0,316940563921053
0,303533889836621
0,308011216621277
0,305679655615569
0,31137887999282
0,308531112251203
0,310378595945293
0,307846443759927
0,303906180368234
0,302498480472262
0,310062246547227
0,299777741120489
0,307544188997658
0,297901841125417
0,303315096199236
0,298124505544918
0,30432926142576
0,303044385235184
0,300287657830792
0,297380043165647
0,302544922430517
0,301295393786627
0,30287541143433
0,299602599087285
0,302049823766471
0,299404481577455
0,304632226629132
0,294913804327999
0,299107787783651
0,297167933345672
0,297168879450661
0,293153516087764
0,297278020529517
0,299798901241164
0,297989457319354
0,294019419986251
0,298813660665562
0,290708408757038
0,301745943293806
0,291398610632952
0,298997622940896
0,295088934833375
0,296289781705078
0,289212327372757
0,293611762010759
0,288628956101364
0,287184147820386
0,291153391942188
0,293217625969276
0,286854790229392
0,29070130495666
0,28867834662455
0,286722337719
0,283743998592395
0,289156779009625
0,286348787931365
0,284938355522131
0,282310994003243
0,289642251768807
0,279229031136874
0,27995179394624
0,283408487781044
0,2839683297955
0,277648493018365
0,276558766800384
0,282519224294395
0,286835332339871
0,281745221417118
0,280242092149208
0,27811485059461
0,277964839097497
0,28152261170522
0,276014518741751
0,267745287087415
0,277826974488394
0,271451045878623
0,274582489415666
0,273132710625267
0,274037902923226
0,272301695143405
0,271898000417735
0,269226200791048
0,276220854760265
0,270331375807044
0,270023632278551
0,265936817253685
0,266375307860379
0,265236734321755
0,270657808162144
0,267474846388243
0,26692636073744
0,258884286194488
0,263144715340801
0,26467646120956
0,263117670252435
0,262349332418749
0,264141843133218
0,260550627585581
0,265409291321017
0,256079729806043
0,260431606022256
0,259029734326217
0,262535099881054
0,259031834422655
0,2581888714585
0,2542144152018
0,25629830585189
0,256467249662747
0,249399671920635
0,251616997023219
0,255813203064928
0,246116695404435
0,252454532488357
0,249345659773683
0,251921189598868
0,246098862285182
0,245935877014223
0,243146314572334
0,244808372281485
0,245370168279667
0,246478108325359
0,241259220988169
0,242598427944198
0,241783390175367
0,242445883752214
0,238063479597959
0,239063268396459
0,237337167292261
0,240537268147651
0,236346534757042
0,23496992057021
0,235714900588793
0,234906627719209
0,228060118691075
0,233092059311452
0,230956636579544
0,234650429985475
0,230819226533147
0,228894432762731
0,230495861924461
0,231586963523378
0,228850055719807
0,230090130886904
0,225041391734022
0,227904317206705
0,227057077412402
0,228403374362884
0,225685724484369
0,22440613045621
0,22467339617845
0,226936816636446
0,221735746237508
0,219309209537405
0,217606115879255
0,225160879060548
0,219417979343537
0,224766465821294
0,222537657928888
0,220991567009086
0,220593448613563
0,222789773029334
0,218516258941785
0,219646432013963
0,216533313322223
0,219109191129097
0,219920890072189
0,21904430663842
0,216782852409287
0,214068811390676
0,213790734015868
0,216149435580238
0,210413172648524
0,216370479540621
0,210408127755539
0,211419116665766
0,209945478155609
0,211836928503798
0,209924754999461
0,209065058313297
0,206520817123999
0,208813740939711
0,210404183679284
0,204513468874241
0,205247251959588
0,20990890196845
0,205289508590194
0,207964620299907
0,204066499116662
0,205269661101656
0,205292709109594
0,204777454434491
0,20100429320851
0,204948191118685
0,204767981188354
0,203304621935274
0,198618386308379
0,204707274814866
0,203914545592398
0,203460091898942
0,200712014561986
0,202998177334646
0,198466809685328
0,200940018542621
0,19638414586739
0,197454922060643
0,19957634368944
0,20004053360248
0,200648851436084
0,199746157671634
0,196890473914681
0,197754921184779
0,19935924770025
0,197315491844452
0,19486093810104
0,198401763041208
0,195338140647464
0,198976886938889
0,196035008216153
0,196131902907825
0,195707304657042
0,191086098605085
0,19733278374279
0,200024371742225
0,193497064079228
0,191585009468648
0,19192072448316
0,192138699327177
0,191644110504964
0,191931635176202
0,191638119280535
0,195589002595116
0,1919834548784
0,191726168441817
0,188992812575431
0,191302782946864
0,193210031870946
0,192451671037732
0,188196188053195
0,190251499713893
0,191283663470243
0,187985288557456
0,18595479835752
0,1863816777208
0,185323223612109
0,184236227806262
0,181443936388503
0,185616045550647
0,183401327268981
0,184365437229691
0,184343241614312
0,186907768203726
0,183206587856872
0,181329097771673
0,180777645519161
0,181775331039391
0,180280443064844
0,182294294321317
0,183494879982796
0,181208411980384
0,181749976185832
0,182399021618019
0,179881901501424
0,179277010212941
0,178983664417776
0,181852825435922
0,176025698463787
0,177601064629455
0,179205960295739
0,183392588769414
0,178210965021264
0,178939409015856
0,176279026628514
0,178806128329751
0,180163559303812
0,176599839756308
0,174954127659533
0,174979613440777
0,177338350323512
0,17722808400726
0,173672747144733
0,176243010064977
0,175198933807009
0,178571157270314
0,17617677791882
0,170728130573845
0,169429220995428
0,170504079325627
0,171259711503216
0,172553088839337
0,17167045458092
0,168108171012563
0,167983784022393
0,169487297918709
0,168092374811868
0,169123134710078
0,167715726211623
0,16619392584659
0,165314776539242
0,165260015581894
0,16419270935401
0,164107894461529
0,160886760738145
0,163748676640762
0,16469003714964
0,163324123548564
0,163106702125173
0,16209618322377
0,159277266255005
0,156707901417945
0,160303242990527
0,157352598531952
0,158173787083554
0,160375022993358
0,155840194104005
0,154915972733541
0,1557762018916
0,156286477655888
0,154907910484276
0,153940050783694
0,156829938138514
0,156517661854213
0,154861535762894
0,154282012422991
0,153686615979952
0,15343113809092
0,151675181460747
0,14834071917036
0,150129242122491
0,15328621239539
0,1499031560106
0,150738419512992
0,150483290517898
0,15173133233251
0,150578176518056
0,151718138380639
0,146351515721384
0,146600927410977
0,147826612838962
0,147516582145553
0,147520787484985
0,14606664124682
0,145609387748529
0,146939452491477
0,146218326888522
0,144944011804963
0,142954864008806
0,144168619822834
0,14462606138506
0,140910933503878
0,142304535914451
0,14347157644043
0,14351988257444
0,140524551819414
0,13813715816423
0,13886445617791
0,140763019814224
0,140712066498131
0,139127521400935
0,138816585411944
0,139089405579751
0,137686048013803
0,135546784551302
0,136900865685893
0,135139187215119
0,136232684024666
0,135466185113581
0,133622082981064
0,132663848938001
0,133408213614966
0,133039743199622
0,132708861267045
0,133630651232923
0,133078302268562
0,13134610887643
0,130799172826665
0,130081063629602
0,131106451036027
0,129842220199676
0,127342613971799
0,1283195526759
0,130404939376017
0,130369790798525
0,130485035221036
0,129940089079401
0,128700072450375
0,129987748019053
0,127516786351896
0,128659539790281
0,129568843506056
0,126286426932299
0,128316060721278
0,129275936373703
0,126488697230654
0,126412922595324
0,127553734903295
0,126964982554305
0,128253772637388
0,12916893538558
0,130091795851604
0,130587360931461
0,127371455485856
0,128896459991374
0,125928196677943
0,125473144762827
0,122922139626813
0,124772797495452
0,123619116866598
0,120836226078717
0,116290729580159
0,116143398819266
0,121002736134227
0,12692608726021
0,126748509454178
0,116160708334781
0,108501259539255
0,11578717995233
0,116209069486441
0,11486043818698
0,113988271490176
0,114589755138043
0,1093750296226
0,112953654572893
0,114523313135952
0,113687494611516
0,109862786568586
0,112695199384791
0,116296540962028
0,1141514582937
0,11475889843524
0,122353752519467
0,119807658226654
0,119204047488174
0,11731487767229
0,11629035685424
0,111618217452403
0,118995780583988
0,113871582084301
0,119439245238389
0,118578296173253
0,118378339420296
0,114524896790496
0,117919659110134
0,115933239648966
0,115459696941627
0,106094922225998
0,110424495148455
0,108641778742354
0,112777868320821
0,113693530957493
0,119236160633181
0,116133997601757
0,11621495056834
0,107216497383765
0,109638528737172
0,114740516004673
0,119382782292819
0,112179059057116
0,110069178795728
0,110741382792335
0,118023636107729
0,121006903184033
0,109011288326734
0,117305587989501
0,119471728696802
0,122407717801269
0,109918122293768
0,122011962027441
0,113503921345707
0,119779413265879
0,110640766791331
0,125633215438181
0,113879486706739
0,117040686413872
0,117333775955791
0,11721735370351
0,114339582016897
0,114013862192319
0,117521845188127
0,115094396912535
0,114217410812074
0,112266490567566
0,112697569974254
0,114221226060764
0,112563894535527
0,111113631727669
0,111432273854208
0,113186944187449
0,112116294178225
0,112799815293798
0,112050023618148
0,112397675702925
0,110891156227208
0,109008931772904
0,107942460360691
0,108992236493338
0,111044206145973
0,113496108671347
0,111548511745812
0,109687166469284
0,110006348949182
0,112742746607295
0,11089758186087
0,107483198719015
0,109375596734002
0,111189525468513
0,112042093646217
0,111380739725847
0,110600556353365
0,110662597563624
0,11075681012892
0,109568950352408
0,110598415773788
0,110328765020892
0,110680895362492
0,110765318220122
0,112896573133667
0,112948191247915
0,111094740997222
0,112333395947926
0,1114006975959
0,110433195553395
0,111111907679723
0,111736598213141
0,111414348831326
0,110703750564993
0,111564442344383
0,11111954204777
0,110415421266232
0,110466710215191
0,113614522940477
0,111510405857428
0,111172175121119
0,113096103327972
0,112646353338856
0,111667667937561
0,111363791129903
0,110069026902771
0,109533111236662
0,109419528079929
0,110918196472753
0,109559603205523
0,109757001081876
0,109670683298422
0,112640852681177
0,110623471099346
0,108207091835769
0,111095051778611
0,111707494348982
0,110270299650148
0,110676465967469
0,110593457459977
0,111892047882433
0,110247004085629
0,111322376040973
0,110052811620658
0,109992676475424
0,110589662561572
0,111734412257282
0,113261122332358
0,113467466377451
0,111068952277895
0,112602002920035
0,112615152555186
0,111223678673391
0,110574482811283
0,111086040753724
0,110385763369765
0,11428069311706
0,113937884208404
0,11459811257958
0,111750181712961
0,113441080852776
0,113442786405292
0,113931866688093
0,113234785074689
0,113025119923748
0,11298710035427
0,11308942824903
0,113647823096337
0,114058207717108
0,11145387918658
0,113497893762201
0,115226417980696
0,113672591276775
0,113448123108241
0,11513405636801
0,114217950133168
0,113995927630601
0,112618839721834
0,11674376601982
0,115109125686195
0,113410566013054
0,115641962828208
0,114261098944319
0,112991515668861
0,115275100803367
0,114947491702491
0,117421680735229
0,115231645902457
0,11819846459084
0,117200843504145
0,113866543069737
0,115051985853717
0,115187186606644
0,112946645881219
0,115416827416214
0,114799636541125
0,115604083685111
0,115383242694438
0,1126082178556
0,113789966944984
0,117262052354655
0,114905821194424
0,11598593973796
0,115913475201101
0,116172098302166
0,115643349083862
0,114410859932292
0,114136582938673
0,116820150367885
0,116000720385673
0,118108669939989
0,11535453681973
0,115335274564545
0,117748714761359
0,117958476310293
0,115053915785181
0,118095481890033
0,117731095291929
0,118768135827286
0,116803160672417
0,117859058463676
0,117771494812193
0,118558891683715
0,118659943940552
0,118829798018467
0,11848440358494
0,119037719286944
0,117275641132578
0,120677138674857
0,119369321823961
0,118854596435959
0,119045213389251
0,12050702105368
0,118000151925517
0,117500984377916
0,119263584501331
0,120500143993434
0,117238865479238
0,119071453396765
0,119305812467424
0,119022459252878
0,115738708057842
0,118401765584605
0,119315354698971
0,118945572731288
0,117548960897158
0,119004331877771
0,116840789413214
0,116614477906713
0,116694913620378
0,116306008325575
0,114653603943387
0,117173458600858
0,116030265234658
0,114872708685377
0,114270349197068
0,116791692492202
0,115265624653115
0,116409835392626
0,114489383934733
0,115022940393975
0,114606217283433
0,114731230491932
0,111194199443757
0,114344084975733
0,113944086515733
0,114250329014628
0,112199928947623
0,113861598235417
0,113918379034602
0,112775032085282
0,113851138461033
0,114825185682982
0,112925259284688
0,113463166157402
0,11168131826612
0,114501655025854
0,112881045050872
0,112883354083679
0,111710924440698
0,111249185659444
0,109452363797499
0,11145615162703
0,112625306435219
0,110331438059841
0,109476791581719
0,111955980100198
0,110440527891926
0,111047040946809
0,111009099928693
0,112143676041746
0,113920797792107
0,111559031475315
0,111007837078716
0,111593957091134
0,10916750172281
0,110478545647865
0,110692585031575
0,113557368565412
0,111377981745956
0,113531332099684
0,111087252797576
0,113582713370348
0,107515694716364
0,110805244671534
0,109462922504142
0,108419311512478
0,109208500666246
0,110342394552149
0,109368769556265
0,110284064097045
0,108038384720428
0,10701704702845
0,107195205545163
0,110207035633895
0,107322972532627
0,107619496523524
0,107926332940593
0,110068009131125
0,108670451770802
0,110043396754695
0,107254522298149
0,108107811627216
0,106533762879525
0,108615620732633
0,110113507671371
0,111254854687903
0,106738004208285
0,108707507678577
0,107504856445047
0,108324661267086
0,106285840753524
0,106512614211217
0,105496881966027
0,108012378802254
0,105742540042902
0,106644903337765
0,105926934307619
0,107317969049684
0,104685568205165
0,105741998339998
0,104467843771542
0,105997608734209
0,104919200802875
0,105256384171738
0,104529799521618
0,107500238149477
0,106223971268508
0,108839599308421
0,103146382972916
0,107013283728457
0,106836735994913
0,104321106113161
0,102739279586594
0,105541530387542
0,102672495425847
0,103477496868256
0,100108120719129
0,103121059242572
0,10130788001704
0,102281220979854
0,101889607676991
0,101965810355178
0,0989994134508476
0,0999424108325586
0,100506206841348
0,101414766313827
0,0983475274226233
0,10073310262266
0,0999786504766209
0,102277215021242
0,098683961328942
0,101759059802697
0,0969652673832524
0,100761697821989
0,0996113135547017
0,103124482262901
0,104233920293347
0,0988764414284945
0,0944833549687463
0,0964593523877696
0,095949601918137
0,0955953075923457
0,0958319520061916
0,0961804249093913
0,0957315847323195
0,0955264194458182
0,0932099831683429
0,0935476457775448
0,0937157223133314
0,0927543513902731
0,0918425627337822
0,0950211699640328
0,0928212915266541
0,0928052082326605
0,0907580114823497
0,0930542794548879
0,0935520083840006
0,0918923466802878
0,0917899393708382
0,0921653719493757
0,0933786761273788
0,0896314176988462
0,106180429290598
0,103245145311214
0,0930294337732691
0,0920225639322795
0,0952968747474371
0,0944309950808969
0,0912956796953918
0,0912208881602557
0,0891351217794807
0,0919260980280076
0,0900261282331532
0,0904908570248878
0,0899602397348143
0,0886310591313345
0,0893813718106932
0,0915713976898775
0,08488580613477
0,0894750255861173
0,0887591079029052
0,0881811615042535
0,0865710410365454
0,0882543498834806
0,0875452146260785
0,0882248341589778
0,0865198575797129
0,0869560401052275
0,0888275008555137
0,0982655077388856
0,0920451898091557
0,091248660151862
0,0858240517778895
0,086454905578122
0,0845489180754663
0,0882283154998154
0,0842365418581445
0,0875674222059373
0,0828141730274875
0,0858153931869212
0,084887262243824
0,0861158639158805
0,0842519290944173
0,0870285009982516
0,0848292431588357
0,0848579910652632
0,0813910549575363
0,0847402480307076
0,0824691436556475
0,0840736251005441
0,0798595389870581
0,0865172173642772
0,0851872188290565
0,0905775750737732
0,0762961659801808
0,0971410697511665
0,0966728475384628
0,0915260565573565
0,0836080239353573
0,0840785581393709
0,0804128132082299
0,0813328533122019
0,0804847233853106
0,0832468020242207
0,0806118799218133
0,080050303256471
0,0799675689346683
0,0809207009395275
0,0797484643360356
0,0822161419826092
0,08000083278558
0,0814946500100679
0,0803558514718507
0,07918988885474
0,0791490788526447
0,0798249624957879
0,088307756750505
0,102294015745552
0,0848030025866962
0,0857082274718569
0,0727337179894875
0,085254901093092
0,107604521690834
0,0865442077466563
0,0825297803185813
0,0786686133541767
0,0833993652593327
0,0758882948299197
0,0813125452341817
0,073474771855697
0,0868086157786979
0,0839197162860084
0,0863210929539343
0,0845317322159867
0,0802910425903942
0,0789045349186556
0,079272058525326
0,0774071734766449
0,074778489982711
0,0809703630302384
0,0777684544962584
0,0776569611021479
0,0772116189988789
0,0766799129811988
0,0784624491948683
0,0743724888953294
0,0867438894273652
0,0825634653690009
0,0779376375303656
0,0758311256156452
0,0806589625085598
0,0714471579019852
0,0917663349885539
0,0912982484826405
0,0832328608573883
0,0788133581010465
0,0759845361727171
0,0779905309889649
0,0757408114102304
0,0782222593691812
0,0771933360342359
0,0770962982663104
0,0759290574646618
0,0804820712484907
0,0758731742213878
0,0781976793201344
0,074964575593122
0,0778114870582588
0,0739355099989998
0,0764342436858006
0,0728536806157498
0,0796159412090819
0,0753150604237731
0,0818207684911361
0,10542025291447
0,101947516456877
0,0976883701887133
0,0905954927630927
0,0850495513779398
0,0753303027696495
0,0801061683942156
0,0747150269165883
0,0798156384020218
0,0770214681335763
0,0793993195084337
0,0753031693838338
0,0799254419223857
0,0767623098845212
0,0769495493281802
0,0742846030780611
0,0770391869399128
0,0749531564273602
0,0766753384687146
0,0748011279336501
0,0769303976165599
0,0750555607516687
0,0759084933961611
0,0897097591162447
0,0854213535005464
0,0810188055660925
0,0712892139398275
0,129561613084187
0,0893252119209274
0,0974278553713354
0,0785658209693867
0,0823986810864929
0,0757121406620669
0,0777360078617369
0,0810106512806091
0,0875111362473847
0,0742036065214534
0,0792165930220886
0,0720636829029972
0,0822568453153329
0,0784951568265456
0,0759430143800802
0,0993108703469177
0,119250249833554
0,0882825133025916
0,0879636254821057
0,0685673439933991
0,109093243448274
0,105482650485096
0,0849710690425326
0,0837687491832781
0,0837912324004745
0,0811668245573653
0,0787846755747623
0,0777933351998711
0,0804408237025657
0,0899803657716823
0,0792474084592866
0,0803718593414607
0,0791226424745271
0,0811155574632011
0,088731299875543
0,0840935970848647
0,100353378578418
0,0903298201340282
0,0836805127443221
0,0903658494498769
0,083165878726809
0,0843716013661841
0,0842590506046243
0,0833869636595019
0,080926664589175
0,102785631547458
0,0979114180764836
0,0950002356401666
0,107797550859835
0,0944673517362608
0,0842142696313173
0,0909488188601156
0,10079579026952
0,100642601723296
0,0728969884509031
0,124920673095236
0,101772760493683
0,126660123624502
0,102975700635026
0,0939536651027512
0,0856655211714624
0,0883256294048645
0,0822649623147537
0,0899118838590003
0,11461695493141
0,0846031005640921
0,0987650156806306
0,0748257177503916
0,115594422434314
0,0956512557294958
0,102485869163252
0,0875401666914095
0,0897834040610456
0,0853900608986263
0,121822465270051
0,0830569779518694
0,109614111770818
0,122774261267554
0,13439618523311
0,132352994043686
0,090971083313974
0,10494350654508
0,133020685529136
0,0965063052377088
0,100224180400275
0,0863738482199044
0,103543251668895
0,0796646121095488
0,115055265234124
0,131057432100821
0,103170159581032
0,100243679360666
0,100652311734157
0,103410619834605
0,135273408842422
0,104947101367092
0,102656641318186
0,100451277081053
0,104823818020467
0,0951165339878043
0,184473349948835
0,1003571590592
0,154810777962161
0,118419224567902
0,144905023821738
0,114340378173349
0,127270964078419
0,103372909925235
0,141622274047444
0,13188621298545
0,121901632689295
0,0978223996056497
0,162163293552253
0,123054124781776
0,125289664887825
0,119945442647774
0,116609194228535
0,116535672193978
0,18302449239367
0,182902800857136
0,165469875067546
0,121247596673903
0,138443248483661
0,154210175116165
0,130687364271412
0,126150972294642
0,122950944332011
0,127267801387793
0,126140916788301
0,12915701199801
0,14727743788789
0,126749167758012
0,143410784707434
0,122618549840907
0,146598765974054
0,161162863236423
0,232782304206143
0,166068794438847
0,168080581726521
0,18974678005855
0,171571712238372
0,161769613560283
0,144167975669621
0,145964545367245
0,159233263049693
0,152984201425342
0,151966603801607
0,153936209715208
0,201423584037067
0,159272353406754
0,203699268427314
0,175885729666955
0,179561072228624
0,163690789864307
0,209990169312118
0,36194716644409
0,202557900635745
0,213835556012558
0,185107794441763
0,260592417935514
0,254360343677053
0,223282960844165
0,208904179675105
0,208871528806426
0,205633974053676
0,229550876461479
0,234966694232861
0,246281635551809
0,261785798096785
0,245004747577694
0,244578853897827
0,291299057342864
0,348180639493363
0,359996078681169
0,289547342334804
0,285857651491247
0,311988885513137
0,315310677208931
0,292260746734915
0,313231004996875
0,288166282699992
0,357449677709659
0,36357191770762
0,350849377101207
0,328304408427821
0,353652370521651
0,38137979138915
0,351736337590834
0,454227475925836
0,386320920542303
0,408338565653986
0,370683175615269
0,403686458199189
0,384542721396321
0,410694577336345
0,444310436863124
0,440462468949219
0,426295671791406
0,426711854186899
0,433684170758418
0,441920930552653
0,452947735734861
0,458083410562946
0,452625302692296
0,534244745539499
0,511898369993663
0,776347803157117
0,488417178096464
0,48858577209078
0,457095327622409
0,492877529541884
0,515401392794705
0,527333772348484
0,560261545537555
0,516539403524039
0,486404636412603
0,485609484655638
0,484184650456911
0,48637930581319
0,492042767688158
0,493857218995966
0,470534037151245
0,552188488216851
0,480339087192606
0,593214123598824
0,523758403204407
0,517514400149591
0,476192804746068
0,491537720574168
0,473013071473062
0,494749009022537
0,47058299917885
0,521274639970222
0,497365020934924
0,487112148259448
0,472659292200725
0,462499580570393
0,493715734243897
0,496749543559115
0,4626838606188
0,463252992112834
0,434482922649935
0,455001908879657
0,421886226280976
0,504587354464633
0,468828055476273
0,448599339043867
0,431790718921844
0,423444485293082
0,411796047210347
0,424186549607915
0,41079058035828
0,431857542309174
0,403461954991772
0,411822746049948
0,404560856538622
0,40308533704611
0,400437542935147
0,396344515765794
0,40956648036502
0,398719200688726
0,407581442405838
0,401302707686836
0,38949154263039
0,400032455620373
0,389757283069603
0,396939423697115
0,394874043506397
0,403910204429576
0,39532210639833
0,395089711504534
0,388657825169233
0,388872628661145
0,396389410128219
0,3965749986545
0,389459498982739
0,389244056330629
0,383315981165123
0,391790922701391
0,385376901328633
0,386373496555328
0,386782593680526
0,384162569425033
0,38977344604621
0,378760691188337
0,384763158140384
0,387151122139553
0,387984460286529
0,488810750704101
0,403582875170702
0,397934529099219
0,372718110285301
0,389455336218614
0,363964551970174
0,375663961961426
0,442688984885786
0,405107540871576
0,372880145276131
0,371512159303206
0,358353015838665
0,397427086169205
0,363771082344474
0,367516114366833
0,366994577118101
0,3444381728272
0,451799857027801
0,420114062234312
0,511403211856094
0,451350674604647
0,389057774657938
0,346201332326962
0,402050883303899
0,38977705315779
0,356381944940203
0,349463790619926
0,335046247959307
0,42534413608776
0,357466830215123
0,352627482591967
0,342634447973424
0,338116593688958
0,383219417957387
0,38836302481727
0,361677491977223
0,405131416477147
0,388773651862769
0,370231833026329
0,425735867675496
0,443342126130498
0,374590985631827
0,325066117725728
0,327579954077378
0,319411944496426
0,347136824010754
0,397132723122778
0,329226191361855
0,34912937340506
0,299169792962184
0,322186298817412
0,304169764408504
0,353991845790141
0,309050173737123
0,337918443069598
0,351098212863272
0,299865671448025
0,330287396171731
0,319388266006489
0,385743487563729
0,360297174255549
0,312385118318992
0,281703276854141
0,362742288604043
0,328806569443282
0,312718812845043
0,317524202673746
0,270009508294983
0,296638304390086
0,301401721990481
0,275145653853193
0,30831395961839
0,297877288571775
0,330946745363063
0,347038179513611
0,382873949982039
0,349325543368276
0,271837382476085
0,258649025669128
0,254155862886635
0,265130544309728
0,259772889755913
0,244355714112788
0,315682710812699
0,250012129770324
0,282888253243619
0,3148331511553
0,266680837673691
0,261879920801502
0,257399687947726
0,252057235894999
0,277224707091212
0,303085048368794
0,338008356916227
0,281479903005656
0,304031675605723
0,296568419005687
0,283912662209712
0,280070023190658
0,277221660086853
0,283191548351158
0,286326965444668
0,303638764324831
0,297439032288961
0,301581129700752
0,303445908737513
0,297702091617095
0,363911073172332
0,3476759414724
0,325252868510094
0,381182700742928
0,36108445844
0,444759954976975
0,362900270960806
0,371033137054338
0,357470564169276
0,365687556862177
0,370732438038986
0,367339287693021
0,405583221319874
0,425488219814209
0,387290233675966
0,403108356564424
0,392706424142924
0,405771470398388
0,405785932304958
0,470334336403804
0,426070621133645
0,555234755610252
0,466125369994831
0,46477032417582
0,428912787236003
0,430706714964454
0,435424302665757
0,430758964110254
0,428503423538739
0,425579405561039
0,437148107675594
0,477239225363878
0,434257180879621
0,447055289284725
0,437064358012311
0,445154393363962
0,438821939984676
0,448630611534173
0,452552121693024
0,458341965407908
0,457450223679025
0,460309763044694
0,466202104813494
0,561777068330514
0,485881140823516
0,486309153083489
0,472736785895846
0,494995274004418
0,476819310279762
0,486494363115015
0,505963773371395
0,501666122205563
0,494620800635646
0,495136751026154
0,496186173633792
0,503763883309599
0,5213537139286
0,543213006206993
0,500316199753758
0,535075615147158
0,498143628466463
0,599562090396012
0,557295800330078
0,573521874661994
0,556163538958472
0,547333739395774
0,533097319113792
0,536828588581855
0,52848038504401
0,539812628605527
0,538791767409756
0,550700092608338
0,54128419722514
0,53868233909631
0,541734135050897
0,541918834573765
0,54742396439237
0,580038294864718
0,546118731267349
0,543964420068198
0,545998674354333
0,547517438064687
0,535784150071631
0,584679804519993
0,566118466630044
0,565108264634168
0,541935300211468
0,562889476532101
0,570613437445613
0,566409346228814
0,535192447406965
0,5428829010612
0,537590986058118
0,553784993519853
0,532498581545344
0,555076044006709
0,584983973441795
0,564431670276317
0,551280102551918
0,556054907787074
0,553328438022196
0,558444442147596
0,559105816702052
0,575742514729026
0,564891399077857
0,571618414160254
0,576762412253158
0,57323314388679
0,571163153961524
0,593415975500295
0,598129420096065
0,589834126524377
0,575899843075746
0,578101151237522
0,570920316367874
0,581022383182798
0,572251258088358
0,5688849510702
0,556634910724814
0,560281324556833
0,549247371467273
0,558569850423213
0,591667596042807
0,555420056029787
0,56543724566369
0,538831252498252
0,532024839409168
0,536938099589167
0,528920816652292
0,520538969341102
0,522157639589527
0,524248377469695
0,514537416233718
0,524241096682461
0,508117653475928
0,509721370278415
0,51388681186339
0,512703641487377
0,506549660662205
0,501430254094441
0,49560174272266
0,505757831489524
0,50148880449074
0,500815046220415
0,503714301214521
0,493997323346594
0,522838923607141
0,526995171155475
0,532976717821861
0,50476032018515
0,508564136163872
0,508517578484092
0,499194038371308
0,501024710523874
0,494147647688183
0,498634861033604
0,492871814416306
0,503826692538845
0,493296357753749
0,49920898948421
0,492947350708488
0,492224953064724
0,493051134467463
0,493248639325778
0,492997027981125
0,498339383086305
0,49495728235763
0,501486453427721
0,495679487313862
0,510070193977574
0,499628920568276
0,504811913979292
0,49992983481412
0,497926108354442
0,502018950756099
0,499807059948164
0,509068707296911
0,499007847287983
0,49436017516327
0,495907604784996
0,495434150797487
0,499401561021797
0,491055302571043
0,494935924973294
0,491812632249966
0,490627836935034
0,487207681912943
0,496605407389318
0,484818976016358
0,481352194884147
0,474880763366641
0,477321892133719
0,469779516573152
0,471583512361687
0,461418168768794
0,459958255902503
0,455146728642629
0,451730038898806
0,450215442182943
0,449736440310687
0,445552746948465
0,443481655267513
0,434968644202234
0,442876241306517
0,433474713715088
0,43301169930294
0,434994602502767
0,431475917150918
0,42929655735999
0,432493269805315
0,429169178567639
0,432585049411358
0,429008404056128
0,43742557503303
0,429436887750241
0,434867555664513
0,434194371254975
0,436152096727134
0,431043322101441
0,435076381125651
0,437271054729461
0,438727576190776
0,441525490520779
0,442973864652184
0,443343858595455
0,443095384028438
0,447461360605749
0,448516682507215
0,450882536626896
0,449841571435288
0,449990369612088
0,453972665232033
0,453584920012375
0,453493959304499
0,4553398123594
0,455208193368446
0,45321964284341
0,452548050617254
0,452997419099945
0,454260439748541
0,454422951875104
0,454699257190851
0,450425766128592
0,453694070241781
0,451035613980482
0,450919000450232
0,445454490036796
0,4482438716577
0,444713755334486
0,443949563960079
0,439334197921769
0,439876401399878
0,441569616926721
0,43961535850563
0,436738329681509
0,436069238196274
0,432215896958513
0,430244013307111
0,429140579711725
0,431560741379044
0,431011957670739
0,429826431745148
0,427919265125979
0,425950259989116
0,419524131237167
0,42340889683011
0,422078560650938
0,418495831014998
0,41963788205362
0,418959949836457
0,413631890583251
0,412414029726094
0,412097884403671
0,414029038128283
0,411865470275443
0,410323681257148
0,406855360778943
0,403584379380905
0,400042628380722
0,39861617490619
0,393534490749093
0,394788692668546
0,392353024527047
0,390008510212899
0,383438153899242
0,382505788836944
0,379942189068747
0,377424131115378
0,374022178139859
0,372370565908093
0,370623856407547
0,367238623265297
0,368117613568146
0,366549130675368
0,362933747902158
0,362171262603904
0,361890212313213
0,360496093591415
0,35861717687889
0,359461444814293
0,355612577313914
0,351261132005447
0,347911100830618
0,34734334238108
0,339523678884772
0,339376813382144
0,336208439716513
0,333908601280749
0,324301519776505
0,320466641557722
0,320674615988072
0,319724964949664
0,315943599366227
0,316998412138104
0,320810685105265
0,322465669672024
0,326109827957282
0,330405510288681
0,337310594812436
0,345796740290752
0,356407732565603
0,366490591443016
0,378534801626853
0,389770893761136
0,404270386843895
0,418331906500325
0,430579507388057
0,445612321379068
0,458287468419146
0,474328245183811
0,488177910763865
0,503434201201604
0,519866134286385
0,532114312444237
0,548921758917778
0,559502999720341
0,570930533538552
0,587970141949344
0,600447398304234
0,609903442913274
0,618967582599333
0,631316437450823
0,639232348873772
0,646543696659198
0,659359323459686
0,667615951590924
0,671792770162206
0,678744541381508
0,682548582839282
0,68323875830745
0,691379885423614
0,693703327367015
0,689194954389081
0,700350870136225
0,692604339756933
0,696916080744978
0,693929061709271
0,695865394633226
0,694713060876735
0,695499180972179
0,697629747963167
0,704103851461218
0,705960706074141
0,714474072718922
0,707288971555154
0,710590184048661
0,712190378397762
0,720847589026789
0,7321346943137
0,738380466479809
0,739824926753326
0,741533131275478
0,75264400437217
0,758738632518403
0,768135806643785
0,776131423646041
0,786800410004487
0,798351506401455
0,80260892810636
0,814146920437794
0,828669980894095
0,847846160052051
0,848602495367455
0,859464328744321
0,865735758850003
0,873371528153415
0,876385968210794
0,885099088660304
0,887661642328514
0,896765196584742
0,889638480992105
0,889633641436627
0,879871527949499
0,885086689310544
0,879299988104004
0,872529604679466
0,871217603622873
0,868018925788727
0,872380634460589
0,881405661979205
0,878395434275197
0,886898055499427
0,893260491385519
0,902604875117824
0,920209051739323
0,9381869755298
0,946724180790227
0,955230342135027
0,969611858514119
0,988595373921169
0,992192742437755
1,02081497008282
1,02564803611646
1,04148528595163
1,05549888283299
1,06174196057949
1,09086665232297
1,10380994712838
1,11950533900937
1,13903837201919
1,14918503779273
1,1602824175689
1,18597848106942
1,20986460931664
1,22586971947957
1,2533350391264
1,27532185297592
1,29382505445256
1,32488504562372
1,30754934733791
1,33998830469857
1,38365855893997
1,3988025886981
1,41982949624418
1,40596452254019
1,4460518026166
1,45638868433255
1,46037885734106
1,48007422758639
1,48124660749627
1,49031797299844
1,4934526262468
1,48887018050171
1,4473008677379
1,47732551236516
1,4686689271911
1,44472668310789
1,49730810309753
1,48834788877949
1,49191518467972
1,48724314483682
1,45076026732674
1,49029835484791
1,50718728025089
1,49535118830939
1,49573022169287
1,49090857044501
1,54834598057542
1,56343520341495
1,55682625158145
1,64727599741744
1,5782101878273
1,61801275999615
1,63135871632841
1,61145067852303
1,61582003067214
1,72110028329476
1,66801823369657
1,59280866242255
1,64018914851589
1,79525016191296
1,75819509001785
1,69016085812799
1,77390790127402
1,77078099955629
1,76512297567219
1,797266539937
1,77246163988539
1,75366105109692
1,74346805395963
1,87729681863415
1,84317377765633
1,84088576777117
1,89363295166353
1,8745068626522
1,8951425576483
1,8653433179025
1,83669390003487
1,89569794884851
1,84701797443805
1,88556348559389
1,90212648254265
1,7515147147327
1,82649801278398
1,90861321308954
1,8395000494846
1,82503222546586
1,89730636786544
1,95865558454775
1,80011405948619
1,7622315792732
1,7517150724726
1,70173377172005
1,67573815735371
1,64120096726853
1,5456639057199
1,48625014278126
1,42804494812624
1,43119446019887
1,4387131138577
1,42311868618784
1,38599225043543
1,35911082274922
1,36419972706619
1,38045444425872
1,3207619025091
1,28515418675605
1,31587108939574
1,31929639353805
1,31018744938125
1,33793870194863
1,28344075472389
1,29224710311534
1,25896778810767
1,27306789789288
1,26028187607987
1,23329085825509
1,19748587253839
1,19022081307474
1,16158893431635
1,16815357055864
1,12089968995656
1,08260242906693
1,06822686451681
1,03562168651737
1,00925568283315
0,975538170310169
0,930811409189893
0,900975313997864
0,853723620607788
0,826547975390009
0,802633732624152
0,76926567649337
0,740912637737581
0,710450860817062
0,687460244724697
0,662303110184185
0,633379460291378
0,61536846005734
0,592830721412267
0,572710742967518
0,559269303095087
0,551209906924913
0,541681781027245
0,527391465142069
0,519265523674739
0,511378067972056
0,512140804846533
0,508516801353389
0,494783079284256
0,492517440742485
0,500136081143089
0,495900362116743
0,489139655116774
0,496851905474674
0,49398170862281
0,495788958007417
0,493838259316114
0,500088511982153
0,495888158352435
0,49575006517482
0,495918952516247
0,492231921663257
0,492359653539133
0,479067883961096
0,47795796763249
0,483680272453552
0,474662124763995
0,469268964891652
0,459905715166902
0,462958812086676
0,461713147244349
0,457660605015249
0,451879727918492
0,453312754784117
0,450528254486617
0,446415407607983
0,45160595165985
0,460081171005903
0,460544871994542
0,463610669281893
0,464669881311456
0,459099968228715
0,463664687453434
0,479315452579181
0,475938989611467
0,476912490066706
0,480458614854264
0,475865685501432
0,478576410291765
0,487691670699351
0,475838457819915
0,483823951685642
0,488324158945697
0,48130883956583
0,48303561949358
0,485557519977451
0,483210936489634
0,490115365977316
0,488289237382181
0,48406174834995
0,494093630739358
0,496573257236551
0,493977078253699
0,495244331841869
0,504394732288852
0,525919509523111
0,52771697937182
0,540414893299495
0,549400269164909
0,571051207628233
0,581537620504419
0,590266805307653
0,596038452026331
0,618606957027315
0,633804501028537
0,633125011880961
0,62834759883481
0,643081405095332
0,628619358788773
0,619061991543715
0,618536639665007
0,608277368802263
0,602892460993753
0,601278619637979
0,586694098580701
0,593550948933024
0,573464044921128
0,562730456325854
0,570321306607634
0,582934233762836
0,576931925196929
0,572862955822061
0,583317825187932
0,582170511150686
0,573451594718054
0,578436572872515
0,569717928935777
0,575081303307155
0,573524312154658
0,557644281664856
0,55073532488136
0,54331600682245
0,544019169181831
0,555041748797936
0,53868297066604
0,543096358351136
0,542542465679579
0,528322468616175
0,521017693529372
0,523362603003124
0,521760821054622
0,519663642372284
0,518630687439192
0,530385639230176
0,514465902866899
0,516046225484463
0,512800333167845
0,510382574276747
0,504535987332784
0,497303375012596
0,498586657040053
0,494956254756191
0,490666934626891
0,486364967376617
0,479881559834659
0,484700688178172
0,485171372717526
0,491643594496526
0,482557003433787
0,476487691818935
0,473167497558618
0,4763664604027
0,47800974886794
0,470822397175768
0,46792385115842
0,474150230671767
0,4681501652088
0,470468469829704
0,475709930050525
0,475053536779604
0,468045903312314
0,462021364844639
0,449451620834956
0,463174861620508
0,456484933377834
0,454524360335831
0,462253285361977
0,464707894909233
0,459438580591924
0,449604534995119
0,474430037795667
0,479190908743091
0,458202804424751
0,46330035049334
0,458319518432399
0,468267420959195
0,468450929077701
0,465838482347234
0,481691255669714
0,476860887504956
0,469055884164533
0,480853450395616
0,478097906941337
0,482241569531268
0,488899768380719
0,496751864383573
0,487588391052284
0,484390936632636
0,49800693072356
0,509904982930863
0,508867164938837
0,51130324580584
0,517857609135744
0,531051994029924
0,532379434674629
0,53658896508536
0,539946373559185
0,572130117676739
0,575371140625687
0,58837471089466
0,619532417148896
0,626030033238805
0,604744089116974
0,631459013882936
0,667259409852232
0,673637679173303
0,674613412448476
0,718623341591373
0,721155142255395
0,710893260175835
0,753865870507935
0,777251806608315
0,754205450117671
0,764196132129693
0,769454997771773
0,785123669208354
0,744147232712335
0,74122265014802
0,745662319314234
0,71550498731446
0,727823845456888
0,744527885574672
0,757367345450439
0,754927009338454
0,720405592050065
0,760463153861358
0,779113492316489
0,769695227825876
0,739512576792736
0,730922436721724
0,745994175336865
0,736873467829912
0,714620202072818
0,696826507951984
0,69596263995176
0,737900268093897
0,754973619304499
0,722671175209025
0,685525080397548
0,689314933419388
0,727254662238477
0,691635726903979
0,72924291566345
0,729533999810619
0,659524053965752
0,649767367092883
0,688984760022463
0,676026089905065
0,66229551957608
0,674607427361297
0,673582624448714
0,709112928233927
0,720877794692802
0,726467594119274
0,710009899208701
0,694342510240597
0,726162809237873
0,71375992940941
0,686034988571344
0,715563738022342
0,684223010812285
0,704202036562471
0,721924145789875
0,72163246397728
0,706915119339277
0,738515939896102
0,720631256213296
0,717189527763334
0,743019332140181
0,655710604649806
0,681837560764387
0,692613561252607
0,695458666419468
0,786052379879182
0,752550471022861
0,697170898698995
0,708409366271322
0,720869830342211
0,717311305420899
0,773317671759303
0,80557218483373
0,808388098349761
0,76381032431334
0,736332933991332
0,738821568474846
0,787651595362905
0,75368456759844
0,830571365309999
0,921785175766133
0,934550133036811
0,97892341025738
0,806879071830027
0,883352711665495
0,981016677034721
0,88549053000807
1,03765505945886
1,10564912388529
0,972599611693535
0,888385276260569
0,896771384009294
0,960429918607606
0,907045874134657
0,904677625842177
0,954379482274701
0,986736136638066
0,958510766732154
0,977650363835319
0,927999561495055
0,97021455583377
0,800978716778168
0,886540180689502
1,23306194065023
1,08380633502422
0,939100649179739
0,922490179993645
0,89632547733762
0,942760496381314
0,876537540665078
0,845500302057984
0,897867256629932
0,985471979109137
1,26711493904618
1,17695523939598
0,933979467830689
0,835027668949757
0,797580343999649
1,1818910444769
1,05120801378899
1,28396067239001
1,28787195544146
1,0592157751817
1,06127013879605
0,959086346215332
0,719320389816399
0,844431071409938
0,806929911452405
1,3178463486161
5
1,31539570016217
1,21174190716127
0,995575051273609
1,13507461827583
1,6569163521323
1,30101785590872
0,757167454093348
0,981860679818117
1,19412008978962
0,815402250740643
0,911498405149223
0,71400627193952
5
1,36945997463038
0,813921048997229
0,749968451302948
0,608027942657078
5
5
