3596
4000,36533379555
650,420452594757
1
2
2
0,0466338817122782
0,0486335956532797
0,0361219149639242
0,0480517241647201
0,0449793593459819
0,0409942605998408
0,0332924364320105
0,0438442356030103
0,0292739072158602
0,0461095793233333
0,0394011757077654
0,0424433313160478
0,0361720645038489
0,0465488353155264
0,0327402855959399
0,0457477702450595
0,0446552224194549
0,0531508315326574
0,0336335441225679
0,0458512130528234
0,0391494828975031
0,0407232421644389
0,0363855801059806
0,050383825413586
0,0446196023246567
0,0516663238170431
0,0259101991556038
0,0463219818946616
0,0440828905323609
0,0436492283352985
0,0398562468843818
0,0435730700403253
0,0345832857008836
0,0460033144451064
0,0377366607601376
0,0454142630433393
0,0433686848523777
0,0548761972313898
0,0407400351628002
0,0458500852234732
0,0367897941798805
0,0382537812526801
0,0350054729874779
0,0444420737042858
0,0358210627170061
0,0425678556689066
0,0386912914640801
0,0443207619848798
0,0342604002494942
0,0403663947598378
0,0375996428971554
0,0469962221165396
0,0356660773899256
0,0428539393883373
0,0481450757802642
0,0493019064097688
0,030767446953083
0,0417459758533662
0,0401672489187524
0,0550627144043146
0,051408128390015
0,0405252411869662
0,031688321236108
0,0411971105260675
0,0389315840115005
0,0422954960691883
0,0308878847096801
0,0390717081125366
0,0429426801239899
0,0477867347358321
0,0384705634912242
0,0565887331149366
0,0419372455847767
0,0388641385798502
0,039791858558932
0,0497911158366598
0,034998679864415
0,0375487171357085
0,0357798800626785
0,0433326613036092
0,0410832340169579
0,0449772382479699
0,0296782417755905
0,0404578535115559
0,0395140604746072
0,0394734878437348
0,0308349264301082
0,0490916976173329
0,0452047048865827
0,0430643026273853
0,0371598906117402
0,0413157934873072
0,0368899103258903
0,0427321980193725
0,034966224650262
0,0445011588761818
0,0334664382085379
0,0328325132352623
0,0374183455290565
0,0439780324381335
0,0416334537409497
0,0585239958811171
0,0426498429692753
0,056634921135951
0,0480998242683829
0,0398265423674868
0,0443244180693747
0,0404080317254346
0,0368333103883829
0,0345829067969924
0,0350425018389814
0,0463550548547931
0,0411864578779425
0,043929987007253
0,0468858409504411
0,0564016528505286
0,0362703596704716
0,0343729785244935
0,0317030544716797
0,0411632115054055
0,038831611442656
0,0547857017452889
0,0341922458719854
0,0446860364749157
0,0404218065646306
0,0421092551859037
0,0512415761860141
0,0654024271012018
0,0317127620926234
0,0435312399577871
0,0339553083367458
0,0333016271153927
0,0316571880066675
0,0490716043681059
0,0464553713950869
0,0367101122377019
0,0338576367053967
0,0534762551960082
0,0586611365192917
0,0510950293277342
0,0376067588335887
0,0394184420229873
0,0368614243107975
0,0534779566455086
0,050304871143891
0,0431049045573253
0,0376576575715643
0,0480087508230265
0,0309985278769903
0,0328818973345602
0,0327635634218721
0,0492558268251299
0,0445788972036966
0,0414477284473744
0,0461560782647694
0,0729766492942194
0,0462176505551187
0,0508876831472338
0,032474450605346
0,0413819539929041
0,0279507184212696
0,0325068180378959
0,0315465240298405
0,0406911004238719
0,0306289540070325
0,0424659970197781
0,0565240640763398
0,0459223314499087
0,0395440226285337
0,0537720871139041
0,0509275726828364
0,045864311011945
0,0550750044291947
0,0594339439102424
0,038580121269134
0,0558466777717607
0,0445254029588626
0,0369289824706712
0,0369283004428542
0,052451777764283
0,0325669905381124
0,0367127492850158
0,0398317036124632
0,0438768638438495
0,0463015690792226
0,0484880820543961
0,0345532878538643
0,0351864199413575
0,0335778468023385
0,0551577696172697
0,0587191674329007
0,0488272152872952
0,0417863994331123
0,0428273721495536
0,0339324491975796
0,0545972809381972
0,046662259309765
0,0365707315805127
0,0330272110428058
0,0333988417119349
0,0310388722559574
0,0376637774953639
0,0359662014718756
0,0392185632795152
0,0352003478241331
0,05581295535684
0,0458395655838759
0,041523931666645
0,0384722139398094
0,0435709182783418
0,0495214134980594
0,0561207599171228
0,0278491595049544
0,0379609130754355
0,0429502042578337
0,0373449450217605
0,0436480874577355
0,0510259891262813
0,0399799330271061
0,0396363310652971
0,0357169911044891
0,0415674392796902
0,0352016086059755
0,0405712166409562
0,0380256016369572
0,0400867289091687
0,0380276074851872
0,0425752175566658
0,0388267935069474
0,0394863145323165
0,0434692074387155
0,037371005471012
0,0356958249980361
0,0398041996585504
0,0433139148579603
0,0546636801455876
0,0364256819773026
0,0353184161896787
0,0379175454576244
0,0412987827504695
0,0326214766824055
0,0437109225163511
0,039031893241448
0,0390855012183247
0,0402424065249643
0,058521389150729
0,0425317686742719
0,0420725607510529
0,0397112237530371
0,049950725224584
0,0500052057424299
0,0457023711096116
0,0425178517787839
0,0395889063778955
0,0361824275860208
0,0416781253951738
0,0519876414468815
0,0536118002394822
0,0392452646371489
0,0497534524901713
0,0532692811172944
0,0407623093158016
0,0457250433072419
0,0489667241533762
0,0633985334439413
0,0581584320511454
0,050096073060796
0,0782883459676393
0,0486271724498201
0,0434685099664293
0,0486800503240172
0,0443109351405337
0,0660421833880713
0,0738732533519689
0,0518642404493842
0,0430048444953907
0,0509333969472939
0,040467142018118
0,044586057153992
0,0551215639585525
0,0549201394126307
0,0742326733717056
0,0670414531494156
0,0865067367260651
0,0366171134901122
0,0522465967569242
0,0719666906523733
0,0486186737689195
0,0459141764962598
0,0404631564414255
0,0411663128487642
0,0557614393285369
0,0482849605129151
0,0542974430796875
0,0568788217787559
0,0429751412337296
0,0655784505371469
0,0605678589756369
0,0466118485881164
0,0499194643978528
0,0546258174067697
0,0502213237731187
0,0529255495409642
0,0472249697100536
0,0547908346418566
0,0519357343850817
0,0544986416243443
0,07275008025554
0,0582044305381661
0,0471010321027094
0,0621915980935696
0,0489167523980918
0,042330763227737
0,0502112413959121
0,0579321132898046
0,0493611868110371
0,0505495342053651
0,0534978282973601
0,0708737147966502
0,0584812151354303
0,0460549195155897
0,0542376947987466
0,056022274960085
0,058949259364099
0,0627575443500676
0,0568869143276507
0,0523839310916992
0,0534573092773229
0,0548022191324533
0,0681252878579068
0,0730100568810505
0,0563750699530076
0,0783380285842517
0,0838298227786411
0,0494407624828914
0,0558468178798707
0,0618529568007792
0,0635204784792908
0,0605003248034243
0,0638031009349205
0,0597071136274008
0,0654029598847025
0,0808334185192617
0,0699079912033492
0,0595003500369163
0,0721570273501419
0,0902320902152813
0,0979491945330221
0,0652976724037592
0,0731837189473549
0,0689789499836105
0,0863045401038222
0,0943478952239919
0,0726995413236713
0,095724891194741
0,0723026397144346
0,0784260074056398
0,0705199433389108
0,0732436274871696
0,0781892940732582
0,0768501235904597
0,0719914531250286
0,0814453976421921
0,0793023040795296
0,086290126175762
0,083195329262175
0,0863314039845482
0,110405102760509
0,100996298755278
0,0886124422610322
0,0908446482157345
0,0883488116743436
0,110941568076377
0,121038703697826
0,118797529596453
0,118570839157042
0,10691024760289
0,129799231974392
0,110041943768997
0,108624946656765
0,103318467199657
0,099570430561005
0,104629636225546
0,107734031130711
0,106863416672313
0,111064873823184
0,113024591638655
0,116230359012255
0,116793928940306
0,12017956818488
0,111597317192374
0,127147225420141
0,132938236140958
0,11959670211331
0,117945040864415
0,138006161690016
0,156602465563362
0,165350689443735
0,134491097901146
0,125427465600885
0,140491848456797
0,124768305405314
0,141663320193459
0,134602122673546
0,140286497208111
0,142544091791176
0,166725242203084
0,16490489885778
0,156256350184403
0,159541170369225
0,14517987865761
0,158980842579411
0,163401410009613
0,160710167274654
0,184481574123523
0,169071065720962
0,156158754377065
0,173883051544962
0,186671197741398
0,167825951291027
0,189296563311864
0,166252162635193
0,176647851663637
0,168951066981305
0,190420883140407
0,181533725897412
0,179486497781766
0,18731344832604
0,190211323953516
0,194396827504596
0,202626016051234
0,193250379423891
0,214467600051356
0,212105515293244
0,212793111862228
0,216908011729922
0,210881582669254
0,212290957893683
0,205628295557
0,22566344674237
0,248181133082514
0,227342383486173
0,253338196947834
0,212933567641628
0,219101641259719
0,223636792062457
0,237954929835606
0,232787184207189
0,248654837074559
0,246669091404555
0,247949904055905
0,243486509794667
0,251275924919076
0,253788927960707
0,252727728435141
0,256551908247713
0,270085853000409
0,264381479271303
0,258919460956133
0,265194148770827
0,272855690806821
0,28066474590589
0,32007715077318
0,290073219866415
0,325695296581614
0,288490638894752
0,29431051043578
0,293221560942821
0,293122410868114
0,283024712173714
0,323409564385987
0,312224469168161
0,313077593955389
0,306240380370801
0,328968083083922
0,331233019283494
0,323543667314256
0,323910449783159
0,356922228141761
0,330506191804845
0,336044680859818
0,335237358145716
0,366972399007797
0,33901324928146
0,3622653814321
0,349941513004862
0,357925927169788
0,374774031455336
0,372915962345651
0,348866210569589
0,370687973423996
0,380600797176805
0,387400744641901
0,383353639070872
0,400904812180547
0,387790740549281
0,403601235301858
0,400931091573938
0,39954173752206
0,410690966043187
0,408018669481244
0,409858944654691
0,436013205540324
0,417036914601485
0,443281463671017
0,422869498424567
0,4403506367824
0,441954102388466
0,445730674930171
0,422402770625965
0,449334941441144
0,457325939711574
0,455630763983267
0,442780370483956
0,477667895531195
0,46097199875383
0,496273682675927
0,485287795803845
0,50070023989985
0,489072590180156
0,486142313725274
0,470345142779977
0,510571129762288
0,502659758534357
0,540987558945161
0,507104952712501
0,524166383038669
0,520223901331045
0,530350213345342
0,517790356999519
0,508808333052444
0,523110100880408
0,541725483359598
0,512495866478009
0,555466166517094
0,545322780512568
0,565547238660733
0,567463352166011
0,605076811872384
0,557945733750856
0,571123469643245
0,554653747692481
0,603312989447841
0,571464811870706
0,59096127133616
0,586231593389016
0,590366132001926
0,581096897629233
0,609181400225766
0,619331905675582
0,633218016362545
0,609821348944369
0,618777581656556
0,612013120866863
0,670814484751389
0,628317195122769
0,650569042560282
0,613999003973156
0,645087689203243
0,625959202155737
0,671001627964008
0,658263181750649
0,663721228864896
0,646075814522668
0,682839752015861
0,671200769425522
0,655024672545159
0,641391906428008
0,712522325660222
0,664666570167972
0,695209802687995
0,698224492272171
0,730331577919003
0,695542020407577
0,700477471701411
0,712751555022616
0,736632927141591
0,704392658395533
0,721471975175929
0,710588583572833
0,790948196479737
0,760033566222834
0,733722465451936
0,718329394264417
0,750018801544434
0,774338798362913
0,777565360066502
0,749792469535969
0,804116834591401
0,773157361619424
0,75128881500021
0,755113887690154
0,802574039556563
0,778930339171253
0,805659741182139
0,782547443768712
0,791664438952729
0,785689270839099
0,816880365986809
0,822724838778651
0,811753272595856
0,81048535319517
0,811657193395081
0,794778004222977
0,839226962077637
0,807628066662106
0,852820386417473
0,830275679784798
0,869668833361893
0,822504098037141
0,872241640670901
0,839839992081617
0,887088886805149
0,883359583310343
0,872186330242955
0,84955202146911
0,895389006691957
0,874440469898722
0,884514949170514
0,843582429504676
0,903224259039345
0,876857457690516
0,885746819957601
0,88820265687635
0,928297129872099
0,876596207202582
0,893823843666707
0,934303087147397
0,936968740581865
0,890887037474996
0,958075316333529
0,933871062522581
0,974623944618613
0,883719224540866
0,949740356050099
0,930471009539648
0,982676354274696
0,898678616405092
0,996965717083662
0,926895368427048
0,957129459247732
0,922355955607415
0,980179512302509
0,929003193821693
0,990898797328171
0,965601336774473
1,00116470625884
0,921467834227935
1,01118357256835
0,981153903254205
1,04190142176638
0,952098417351905
0,995108858293012
1,01793941390274
1,05383452682076
0,99404880575858
1,03294933069122
0,944614807205026
1,06089966514855
0,968789844362803
1,04920884304945
0,980072923523791
0,981332237991637
0,995796190569304
1,03504375633193
1,0284555861181
1,0239647080603
0,968744678144938
1,07389186805056
1,00091773118502
1,0803286465638
1,00523908068976
1,05579804913856
1,01375879183678
1,09998269032287
0,990609985788716
1,03598727791384
1,04252893285951
1,02841049759612
1,01771308374106
1,07619810708165
1,01923880264999
1,06337753332203
1,00923889959934
1,10953972659709
1,06497825109065
1,10704131470101
1,03687405997387
1,11440257665019
1,00626287099741
1,12185899417088
1,01142718093758
1,13151453107518
1,10128749668071
1,11318239973568
1,03957613036268
1,0916522995247
0,999727350972867
1,07298617632724
1,03364998218998
1,07626241486988
1,0367272118758
1,17740870170169
1,12084181352105
1,13492263739244
1,09570646494729
1,11580105585051
1,08029122662784
1,09414732982358
1,02501401640003
1,11169889655454
1,13671539064521
1,18643970218996
1,0450527316475
1,07669800695959
1,10535505031551
1,15532962787199
1,03753612469818
1,18935881222971
1,10563096102453
1,1277781487743
1,10290477704457
1,21835016269986
1,0489421655581
1,14281722154335
1,08309688070955
1,14070048184375
1,09578209816948
1,13016290216783
1,10296447014069
1,11896127137084
1,06039461463627
1,09807691324027
1,07298791627512
1,09516175200862
1,08466891625423
1,13785876186763
1,08966951041003
1,13743107191323
1,08943115976462
1,11921060545645
1,07011319943294
1,10848276260671
1,0874523502385
1,1262403136967
1,07908360645312
1,17965643617524
1,06668091604399
1,1742023399394
1,09175441190307
1,12564745326955
1,0630388611941
1,08155467052027
1,11276186709601
1,10046719775906
1,12814425658659
1,11688721190917
1,09168351847569
1,1508430180233
1,05176177350547
1,09488004457872
1,14549654810109
1,14050581566873
1,09745899473384
1,14095080657178
1,11443670337044
1,12522623771833
1,11207400161001
1,10057399508643
1,09972527639909
1,18239561533118
1,08273007361886
1,13971773423308
1,06247840149491
1,11099412529607
1,04860689611794
1,14728521141245
1,08052223274199
1,09069560277869
1,06004020194446
1,09398430906131
1,00828546249425
1,12264520496064
1,06209962028501
1,10227149536471
1,04798567865378
1,13197690678735
1,07485866407747
1,0869248978458
1,08149788029
1,11784517113416
1,10379980891766
1,10253376883905
1,09267273022994
1,10825567315425
1,07567169759622
1,08121706019597
1,0281898186539
1,14339337765908
1,05877669412116
1,09275748198128
1,08643955933287
1,11292352460454
1,0595843918592
1,08608891066831
1,04414593153967
1,05102649233168
1,04392062839322
1,10543147219942
1,04301333064773
1,08302079613261
1,08441414497954
1,09776209512922
1,0136953257623
1,06761912444707
1,05154557392144
1,07076866200439
0,980959481717631
1,07536476026148
1,07149160379498
1,02651457220733
1,00241953775695
1,03652056706593
1,02095743440555
1,03946919964143
1,02793742227978
1,05878154848028
0,974214791343706
1,06235464927521
1,02461178651878
1,02873061445746
0,976720980022025
1,03056304525763
0,986176851224793
1,04714698639034
0,992054550129035
1,00475554295106
0,966765038513218
1,02092448341536
0,985600813069285
0,978432891998076
0,972964543706024
1,02491913646892
0,940998716739697
0,984640338852543
0,945673941241242
1,00409771844782
0,973897236789362
0,971751732158206
0,946731008299325
0,995719336890475
0,977254206069492
0,98009137010778
0,919421017045672
0,951255123330437
0,965801341829833
0,946732326142814
0,93118482056548
0,951790926259579
0,920770818818038
0,955855240778595
0,894130328407954
0,949962796422597
0,911595728228109
0,940535850639375
0,919647660369955
0,931356579124967
0,921432099902742
0,941965953497687
0,912203342614246
0,907021392662215
0,878695431841425
0,896661667117172
0,884343154450265
0,93201258794297
0,879078903490083
0,908674896034462
0,875593847241341
0,920766632699043
0,856390523224953
0,92966933835881
0,848329044467792
0,870158980800851
0,850609298126363
0,87557121384503
0,835814217888064
0,86079263591889
0,858598804650777
0,864643042333536
0,823722175890789
0,828255543132788
0,821315612896874
0,827381727399838
0,828152305361167
0,847212272537842
0,803490428233652
0,803762658091419
0,80837022279012
0,807377759688463
0,793052459963596
0,82270791938694
0,790483521249346
0,800422032318809
0,768119835883314
0,793166613339147
0,769600267590068
0,782174248036726
0,758392247445342
0,768526952724968
0,743585562073429
0,782826048872733
0,768947068797035
0,786155695732469
0,753386408095697
0,754724577462854
0,751000742669753
0,752068917290639
0,736151871977895
0,749735805965679
0,708836702377836
0,740485898866101
0,71520983535047
0,725299468269058
0,707970788318968
0,739647114865773
0,710247702906747
0,709513383979168
0,677079584234419
0,71707477121408
0,687058663397636
0,709031920325768
0,692228236562693
0,700685004060827
0,660570134038871
0,69084514721387
0,655563499160115
0,690716697286581
0,679079098127845
0,672446908582793
0,648267256398801
0,682463641617395
0,657745583097615
0,658298670326551
0,647235047178912
0,676156618804359
0,634735133924454
0,644552817061903
0,629209110977489
0,64539168543407
0,611922790312079
0,647317105775139
0,621400138651754
0,628952061937443
0,615774346697471
0,61988066544621
0,611307796925478
0,622694050708541
0,602424061363495
0,620157072576647
0,602322142056985
0,606979084001483
0,587690967709989
0,60629292633028
0,582163718437871
0,600660104130907
0,585580637936928
0,57678172071934
0,566477725049378
0,570468009298571
0,570311402622074
0,577889278149914
0,565907700924249
0,580130947270684
0,55186819087474
0,579602924617915
0,545734402719032
0,557488241433346
0,547093570106481
0,561046632815416
0,527103707950514
0,558351684537327
0,540719503974906
0,542620996599521
0,530525775524828
0,538328197294965
0,521622087986129
0,531963247487397
0,519952796532867
0,527278903513277
0,518919326827403
0,523655512034876
0,510085884638212
0,510695080022839
0,503805427032087
0,515909872333188
0,503743278968735
0,508938482075596
0,495250634944181
0,502308793157235
0,490283243420142
0,506733691145628
0,490437540497168
0,501019742498539
0,474216973454039
0,490026174544669
0,483933729784661
0,479393717840346
0,468767328436981
0,475273723674925
0,460063307482931
0,478658500543446
0,462203039177267
0,462214253130931
0,453383662176575
0,467854570808194
0,453477216857583
0,458952542679555
0,441470608186104
0,453112210812431
0,441657259532713
0,457058133481867
0,436579707351845
0,445219616079127
0,430960600290238
0,4460225288322
0,434793422614333
0,439369677562006
0,436108486234582
0,441174445101072
0,434187196509555
0,435156240419249
0,422973027997457
0,427277918405936
0,417783681452296
0,427005007827194
0,412206826812291
0,420278117583111
0,412065217114296
0,425785103793811
0,39534367853231
0,40585330069771
0,392012528699014
0,403227113528733
0,394709749436515
0,407271845249939
0,392193294606968
0,404969356670181
0,392357476024296
0,399205684685425
0,38439796953769
0,392223820476389
0,374631850852908
0,392874510589012
0,373718814809102
0,384735211741751
0,375993433750271
0,391961930386953
0,380000720621129
0,378234422438695
0,372125550984619
0,377793935266956
0,37307463607749
0,383994685156715
0,365103356040013
0,373095637069279
0,363904324113078
0,374193301898339
0,364226468270064
0,372055648733322
0,359806926130803
0,367105906592393
0,355410801187465
0,369991548625782
0,361869076656933
0,36381049043428
0,362952663635079
0,361619598549818
0,354536346233134
0,36845797810487
0,351895476822793
0,368415925264492
0,356946832422728
0,364004736687041
0,360262292045489
0,37278088008232
0,357275391676032
0,368219491351916
0,36233701016698
0,369772923113887
0,356406300866606
0,366331618062454
0,364933017559103
0,378396679963748
0,369708478041545
0,369601796779037
0,361636614413115
0,373702647226122
0,368069795036367
0,377425543782048
0,36327379935774
0,372780897113406
0,373451713110901
0,382646834255874
0,376948972369346
0,389251249935346
0,370724625068561
0,383137430800939
0,378444222445718
0,390246460111802
0,383447191926818
0,390847653195949
0,387572667010044
0,392099209582421
0,385864843211235
0,39796268231122
0,394246944463702
0,405804919509816
0,386004853748894
0,407960339766925
0,396942700647684
0,408168990820679
0,401156170011157
0,413944191220898
0,41379048968333
0,422438255419092
0,415621834041254
0,425799295365167
0,41229592856081
0,428094783814424
0,41941712639565
0,43316141863297
0,43003559878035
0,4371842837859
0,437686230291524
0,446603907707394
0,436833856342807
0,457929859334092
0,445824136873955
0,458639405081565
0,445297373680163
0,45913499833835
0,455021871134211
0,47192383162868
0,45613643774987
0,468621577634682
0,462447216887382
0,477892666100435
0,456045624302203
0,47584949027585
0,47163658360657
0,476218198159306
0,457300692246112
0,478182341215854
0,46593213969213
0,475698529938996
0,471028038263029
0,479089991695612
0,467164436315152
0,478586684379874
0,468540839765424
0,479012548489829
0,472669027930745
0,478368761975257
0,4701686381993
0,472262733662954
0,472117093858481
0,476928451297743
0,467272656752784
0,474903898201087
0,483334834827618
0,480766754438484
0,475710550821627
0,476415767536709
0,469416319041014
0,480213075383235
0,470204394932382
0,483717317972693
0,460270828323545
0,47242552495711
0,474081992343411
0,485219166175443
0,469834552583327
0,473336203947135
0,476328629750727
0,481276117153389
0,476627503673824
0,481059292867185
0,487629321375564
0,48938054030412
0,465394356762903
0,49510115644752
0,476108303848036
0,489950467709131
0,475173569009019
0,476386053066706
0,473016972125588
0,484980261121902
0,476941144181569
0,485450907557533
0,470700314592398
0,479453683273041
0,47506831257835
0,493478331019792
0,469400947557005
0,47601342985902
0,463218184262836
0,4759630413185
0,466292373236298
0,459708033361407
0,454157113239434
0,46998593757783
0,47138618435101
0,461763732472635
0,451164198652548
0,460290893825758
0,448126688654234
0,454202432052642
0,441002999733202
0,441031471700769
0,436562237948122
0,444504891999461
0,423168014182782
0,438124773676561
0,424037412102472
0,426927456149892
0,418039179333713
0,427080601066233
0,420542779350333
0,42206226550272
0,405177490417437
0,418446244638715
0,404867543943552
0,408888044006808
0,403478803041787
0,400105422349973
0,386887258439958
0,392064053854114
0,38524459285195
0,40210239530661
0,386903903113937
0,387739363914594
0,379979785628705
0,382755071901869
0,371652547994659
0,375797703490752
0,368654345116477
0,379210699683051
0,365150050104076
0,373338079265476
0,355349878233746
0,365806599434167
0,358495350568559
0,366301033900526
0,356248846465619
0,357247928082224
0,353403686857469
0,356666637777104
0,349977100990012
0,354393660009342
0,353840954747606
0,348961190639491
0,339934704144768
0,350781611573352
0,339675079356972
0,345721653148414
0,336441955032838
0,34298327032881
0,334318433236795
0,344105301327782
0,335018029065241
0,341728940090705
0,329156248357801
0,33931548163199
0,325119950785388
0,334715401681486
0,3276418570328
0,330888724188098
0,329246264173913
0,325893483762707
0,324698552318609
0,324139815138426
0,325597283925465
0,328238206640734
0,323584497666058
0,328278934934014
0,307900625714538
0,322434668729845
0,312076625533316
0,315349873527729
0,309241385618218
0,318688303705168
0,30648122530685
0,316796327079569
0,308674538867649
0,317030534095169
0,306394381106462
0,311622802768462
0,302730054600895
0,311039460606892
0,300582728683773
0,308319115032806
0,298753863531941
0,306417278180482
0,300253284024914
0,310971458073022
0,301682880828618
0,30149309750369
0,295284576814654
0,30185067435149
0,294933750498177
0,301445656202247
0,290752191854398
0,302849693593961
0,293077373369611
0,296462948933364
0,291671915895276
0,30120215212127
0,292994545058548
0,298099961616525
0,288766082611338
0,296533788379972
0,285368941670232
0,290085630673564
0,285190895094469
0,291380914640623
0,283459120037605
0,289541477734704
0,278462716789586
0,288988944745649
0,279145882956558
0,288344230293136
0,283444386388481
0,28977714420996
0,282970936834326
0,279530691999453
0,279879531325641
0,287261259531024
0,281941330052012
0,285796462313174
0,274986004067167
0,287335817668224
0,281602773401592
0,279221768333445
0,272148826886914
0,278974898840433
0,279387853526003
0,281169790309821
0,274782747528541
0,27908797743666
0,269588967940457
0,278423983653765
0,272227181489666
0,281121593414921
0,275012363971129
0,278713479999513
0,270804598443729
0,272669348376734
0,268809969738263
0,276097337249301
0,268282156598574
0,278588023133882
0,272914605393292
0,275396791224503
0,272933685166086
0,272191382092141
0,271179359722857
0,272866850836253
0,266302307958335
0,273664111247706
0,264848514581214
0,277471258361805
0,266413613334473
0,270021038333802
0,266567352133943
0,272443215511339
0,268110973050531
0,269200291836832
0,268192789383164
0,269577638697983
0,261968763302162
0,268549917604147
0,262438882936799
0,271784083120538
0,264168867513578
0,267811760675294
0,259924860233061
0,266313932612101
0,257193606932293
0,26423018467072
0,2636291055507
0,266566081116002
0,257466800583183
0,262025383948985
0,257627572611727
0,266467589266308
0,253304449650786
0,254935218448868
0,253186069907544
0,262156240646135
0,253031039566528
0,26310265130894
0,252874456786499
0,257974524758485
0,254439736294424
0,258762241711727
0,251946036941897
0,257050044452468
0,249377072714364
0,257006022482089
0,247772419837277
0,256958394586084
0,245618571446525
0,254426104570544
0,247886795305648
0,248171146286288
0,243988478503413
0,249805590972184
0,247735479723304
0,246879961483673
0,244514593255721
0,250757750922213
0,241877300279277
0,247751684717093
0,242535831525551
0,246067244992104
0,241863789978828
0,245071247244139
0,237545136237346
0,244778449364946
0,236055831546293
0,240207901485487
0,236310378689593
0,242615903669147
0,232698352812339
0,23916924877675
0,232387226660779
0,237379246518428
0,233337820127054
0,236379991893312
0,230485876778865
0,234602468548019
0,227762355650918
0,233621332431544
0,22854190595196
0,229948713464918
0,226594613783336
0,232938139622139
0,223039955426425
0,227836779908337
0,220835536117623
0,22439320436309
0,223101780393138
0,225300126670495
0,220821886998535
0,221918624339287
0,220410510018951
0,223259843862962
0,219633031354964
0,219908408542474
0,216334702282568
0,217176124888323
0,212094064411621
0,214613142784675
0,20968960231763
0,216361919527148
0,209585124031161
0,211880606210627
0,206830078227397
0,213718961715466
0,210944421732724
0,212735276258468
0,207659626959851
0,210753207294413
0,202109280745516
0,213279330633718
0,207657731339583
0,207326862367073
0,203145768456428
0,207045380991665
0,205235572507683
0,205774711428493
0,200855445184804
0,20597084100187
0,198870334466377
0,205244751642148
0,199404207392449
0,200299549217385
0,196184251468209
0,204105876866433
0,195188098306081
0,203786484430825
0,192256240332795
0,198975203766448
0,19263964016361
0,197223095169581
0,193355612945836
0,19536444073439
0,194111742256025
0,195080051035058
0,190348914943636
0,194313256758021
0,187816258578324
0,194173246708274
0,185137036313274
0,194239011976514
0,189786719748061
0,191145605661329
0,186560875951775
0,190388029467979
0,183679790357953
0,190025456734402
0,188603368968658
0,185814987812817
0,185749991887847
0,188412872604971
0,182443677400002
0,185266670146254
0,184278315905839
0,185669399745297
0,182522008600267
0,185080269712226
0,178435177345289
0,184978988520286
0,175922604680886
0,180428276356529
0,181203421894373
0,184004682008191
0,177233340362558
0,18405104005532
0,175270811953033
0,18316388769528
0,176089791237095
0,181837570909886
0,172950387784292
0,179430582295368
0,173272954199453
0,178103065331873
0,170229934687966
0,177269984004854
0,174364467828784
0,178204248703051
0,170120213486729
0,177679263118416
0,171902934529328
0,17910931899918
0,170328482141385
0,176192953823373
0,173277272974264
0,170365672046541
0,173584257784047
0,175404219376985
0,168967485841888
0,17258208629669
0,1698040932113
0,173765872188955
0,166550208151633
0,171123584084567
0,168341313329089
0,172342712620148
0,166286281477064
0,169822338583303
0,165994508200925
0,169959397480345
0,167817521451467
0,169990886850421
0,166408104198374
0,166222692089882
0,163968017864931
0,168195599866223
0,164079612727385
0,166792052190661
0,164849188122683
0,167931897208001
0,161752547763138
0,167353136033594
0,162610951723312
0,167825888856926
0,161210558453757
0,164647181841838
0,161588936864136
0,165232862236434
0,156703925610907
0,163039658238736
0,160014991972949
0,163944479277184
0,158165655113883
0,164400045151516
0,156135477777744
0,158346680337379
0,153222303705957
0,158497762631629
0,152157778371104
0,158610221244095
0,159942930943766
0,155385733426039
0,15429321379998
0,160163117230015
0,155511924853977
0,156845596557054
0,152650823004815
0,158084951407904
0,153736317134389
0,157086286842922
0,151892086232758
0,157164963447491
0,15056784286569
0,156532835398264
0,151253010095314
0,156887502968925
0,15386303745323
0,154713360723419
0,149771587514199
0,152468928427089
0,149476190664781
0,152980324641936
0,149756990001262
0,152433151484782
0,147292523401696
0,15210938160124
0,148989127766807
0,148870085566459
0,143777280667505
0,149245293497187
0,146736268732248
0,14824487066557
0,145106951145592
0,145758283339536
0,143436603950658
0,146280454707384
0,140146322815001
0,145008002103955
0,138655410343167
0,14461951786961
0,138929801365126
0,141264043262836
0,14080345507913
0,144186112507312
0,137462282289184
0,143988543928434
0,139539236768794
0,141142146753061
0,138843614622113
0,141335112428245
0,131514432344781
0,137089107252848
0,134561851533423
0,139210326771017
0,13262361426156
0,136125669531865
0,131163158737186
0,134939461661906
0,133096712738728
0,137235733377081
0,12884564551513
0,134848852436803
0,128717350780381
0,125965102263499
0,127643343232106
0,132478732616052
0,130081519808518
0,129168000904452
0,123697592028408
0,129200319657928
0,125487697229248
0,126809535079791
0,12506421342622
0,126123271431951
0,125642381363753
0,127827625580554
0,121014668421563
0,126377274760658
0,121584824994053
0,124855524884764
0,121866350409834
0,12284800585316
0,119888495944138
0,122439024199185
0,118019090300427
0,122917395124366
0,119541521035282
0,123244966546206
0,115839764495566
0,12028865430641
0,113020259987296
0,119276261662172
0,116802129464767
0,116584375125877
0,111835121170228
0,116119306705247
0,111254716313284
0,116433577741292
0,112161777471566
0,117061662427141
0,109929247360523
0,115321304910001
0,110103832550603
0,114065467605925
0,111227744434178
0,11561092826857
0,110230095585622
0,112940527095527
0,108226515544251
0,110801997659778
0,105072311401085
0,109175008241999
0,106055702736275
0,107718754930786
0,104761132610603
0,109356586545014
0,104640506094436
0,107231450989825
0,0999146988054012
0,105914486113022
0,102017697498314
0,107848317896571
0,101160779029573
0,106181383841311
0,102003509298968
0,103982035290317
0,101264341065789
0,107312738061585
0,100790227941691
0,103583502063365
0,0999221752598802
0,103941384482666
0,0998276379840147
0,10344076965676
0,0975961700844154
0,102789110763072
0,0970970496686246
0,100156212709562
0,0984405198013113
0,100652843117859
0,094309782460967
0,101022399144819
0,0969812280001554
0,0997279370430623
0,0956038916359002
0,104171824976382
0,0968951871625919
0,100469635159835
0,0948315299834617
0,100758087988636
0,0960874343922212
0,101481632581969
0,0921935672305976
0,0976604912667444
0,0913644953083049
0,0978124738394934
0,0853243216316116
0,0999511560628218
0,09563051514063
0,103814730674008
0,0889964127157739
0,0926002502457093
0,0911942435756125
0,100548390177181
0,0858808381938789
0,0963953829099394
0,0871819937005031
0,0977610038938598
0,0840469852135162
0,0914689632421282
0,0839718142034401
0,102247121604397
0,0844241790803468
0,0943646323151158
0,0781147131120271
0,0973566347074643
0,0850394174695592
0,0933815434715587
0,0843647092639199
0,0997627840841973
0,0882912959900749
0,0966102219812212
0,0878076844739006
0,101959778504752
0,0796130793785483
0,102511425488415
0,0761263115186834
0,103444868238431
0,0791129506969048
0,101221148841796
0,0716614160088368
0,0996942640596499
0,0633279718991575
0,105147109792782
0,0643948905688261
0,109340201443747
0,0726811945473406
0,114445490595918
0,0629695740936777
0,104699049838039
0,0539571983937862
0,116588054724509
0,0656389055518033
0,11230616786824
0,0482192395635142
0,111150621825325
0,0644453044197772
0,113737894645094
0,0535388527364605
0,100541778801831
0,0721937405744204
0,0974695481118809
0,0748438369829997
0,0843503911860142
0,0905333948862182
0,0760246854507639
0,0931655790583444
0,0714990833890168
0,0966477250751828
0,0701694162949537
0,0973635273443017
0,0695110655562404
0,0940450955797539
0,077501100900855
0,0836548016798253
0,0810406814686235
0,0811766074064852
0,082755047486918
0,0791450483352597
0,0816312272387294
0,079908714265475
0,0803878389157037
0,0819878671213529
0,0762514433011744
0,0801776317238669
0,0770501566087055
0,0817304882023969
0,0783152488591042
0,08351434930311
0,0790539438410019
0,0795606997669475
0,0807854295583865
0,0821574545800584
0,0804168833823249
0,0792722716894752
0,0785643677200343
0,0792441495040081
0,0782721337003773
0,077794958374887
0,0780914662921039
0,0795461590772039
0,0799087714461592
0,0796976703118696
0,0786701082894917
0,0780829398872677
0,0764475401227597
0,0797016762979027
0,07865800851543
0,0761465331622056
0,0782144883833927
0,0797721460889399
0,0792965368300083
0,0788141063141571
0,0808367237176014
0,0810406282616384
0,0779145481277578
0,0791499342006746
0,0764977611125373
0,0778374712750325
0,0780935144362325
0,0788895482480804
0,0794747407875703
0,079456584855501
0,0787274613497299
0,0773730120488484
0,0792046299128447
0,0771196488881654
0,0782187675068539
0,0786300832696542
0,0782307910811209
0,079563025897358
0,0778287084318908
0,0798810996160655
0,0778035939338486
0,0771115913840421
0,0752377639796454
0,0792145556789539
0,0793214772401776
0,0797812252330234
0,0773070518612552
0,0779184460712439
0,0790120700842411
0,0784840115580252
0,0764507545634156
0,0754675808326023
0,0794434380224559
0,0781646688068833
0,0796749913706966
0,0790547710119924
0,0777959150719001
0,0757323528784758
0,0777437162847011
0,0768812994923003
0,0770659522655836
0,0788200812015547
0,0797980800801638
0,0786875656377302
0,0764691912166834
0,0783832629325293
0,0804533786253826
0,0778999343609477
0,0761913674038112
0,078734084620499
0,0780659911789472
0,0791133110998763
0,0759651035215121
0,0789455393025274
0,079598705014829
0,0801036200043943
0,0796312144489257
0,0788330992063641
0,0808433536496843
0,0778101468719604
0,0791234696313947
0,0777520436249953
0,0778732291674309
0,0794992684537188
0,077683736517093
0,0791255918526035
0,0807754034692482
0,0805896606788022
0,0841321551455127
0,0813852009243478
0,0813105338320288
0,0771631289177493
0,0808250245037373
0,0796867536180824
0,0793261274871045
0,0783408417058913
0,0805703582816859
0,0789382686997019
0,0810111495055637
0,0817391821230934
0,0793094467390895
0,0781489128970821
0,081389898112358
0,0800140080470759
0,0800223553608504
0,0799063273081991
0,0806068847081505
0,078931668690807
0,0819567368554382
0,0787876660121863
0,079484874056922
0,0820664877523264
0,0809748013634401
0,0805587719162282
0,0796771019327197
0,079746829062523
0,0828546684447511
0,0788560507253507
0,0799409753569518
0,0814349351526413
0,08111830990287
0,0815639410532606
0,0819534106553614
0,0829729048316352
0,0813891602619681
0,0813292055899955
0,0828831163215312
0,0811864574360875
0,0808212230698989
0,0826580006185206
0,0818196854869765
0,0824345866988519
0,0825796987852264
0,0824875425049098
0,083841443100633
0,0825731046021053
0,0840617527096907
0,0828683854709601
0,0831268984086247
0,081421778521194
0,0825707291040316
0,0832333280535337
0,0823756074934389
0,0829679362880791
0,0827177577914334
0,0838835144583031
0,0838038711485811
0,0830779370962917
0,0847765681350193
0,0860941175372894
0,082986235893852
0,082919249899006
0,0852648830874916
0,0831641460959715
0,0811655498454515
0,0797796243065057
0,0823335631845737
0,0828569315579548
0,0832067386116842
0,0825339729216379
0,0830906706825474
0,0816675017119383
0,0810672238098282
0,0819886840126034
0,0826046799901161
0,0804776266693197
0,08108771907421
0,0812350835915631
0,0821315448091023
0,0799019174627857
0,0815141918893681
0,0784374657981239
0,0801873163210167
0,0819725600937551
0,0795607542752296
0,0780440503042461
0,0815979090911139
0,0819479331312559
0,0791334494110978
0,0766277155737795
0,0790703615186802
0,0789700611050826
0,0765001913090293
0,078949166667261
0,0784314502483569
0,0785666839222583
0,0793960189443745
0,0800992787712228
0,0786532168236161
0,0787145603216411
0,080434252208572
0,0765707305592551
0,0787074446275125
0,0777215196974534
0,0761456320750047
0,0784997122432123
0,07710769532316
0,0763382803245096
0,0783610462554894
0,0754527236113489
0,0770734803497773
0,076747632245995
0,0745873420717953
0,0757863798342449
0,0774162972584914
0,0759555892122834
0,0747274966158946
0,0755298974752028
0,0762017491251388
0,0743740847497161
0,0759242600705528
0,0739641323218781
0,0750018423383959
0,0764274259450254
0,0751676006000621
0,0754460081663664
0,0761126068240187
0,0747397891955673
0,0748630253183317
0,0727626597661751
0,0749687871581519
0,0728609697745407
0,0749293159552192
0,0762144920545816
0,074382379558834
0,0741926783266242
0,0730323692336861
0,0741605657296055
0,0722749158801556
0,0711296866455729
0,0742142296419228
0,0735535805781184
0,0731642276861031
0,0741634465983557
0,0732738821805022
0,0755290185052636
0,0746126033538231
0,0710304447521889
0,0729916527468997
0,0742176701791638
0,0745154504676564
0,0726170009386449
0,0733551886343433
0,0713239369295442
0,0739778818281859
0,0709426144746787
0,0753424395062782
0,0720587180080121
0,0714618871432344
0,0701778220117909
0,0736243621310362
0,071787498843185
0,0718262465561025
0,071195719828835
0,0712305542285936
0,0694000692841786
0,0719776640032404
0,071155238476585
0,0708408093428114
0,0724421855856304
0,0731611404294713
0,0716027161594785
0,0724400466071929
0,0718721764095876
0,0701095257437715
0,0723436047908765
0,0708787282272741
0,068332083734473
0,0662972948456965
0,0704326017556736
0,0704085547464523
0,0700660599357325
0,0686698627297329
0,0694664933938181
0,0661600147435063
0,0693662792685781
0,0696146327786037
0,068020576014611
0,0696899257141081
0,0681250907047722
0,0666559165776124
0,0665859159433049
0,0669461511229663
0,0677027519083035
0,0657835862789801
0,0668051801759596
0,0643470460575555
0,066233825637502
0,0633941026391735
0,0658750582609747
0,0634691992186685
0,0689443681653647
0,0662300035736288
0,0651990136309161
0,0661214221124903
0,0618276716548703
0,0631192906767984
0,0641288838186247
0,0621899805386133
0,0609989265932212
0,0643800092208609
0,06264405309471
0,0613426004013085
0,0604092295723004
0,0617557368785292
0,0622854818063007
0,0606445317819632
0,0607994019241427
0,0610199574272823
0,060225805010408
0,0603449073972554
0,0593437313110602
0,0614305205498265
0,058581346958333
0,0600870532701535
0,0594470085400716
0,0586247988339471
0,0552554798523052
0,0713710882951558
0,0619503541770554
0,0609881389241799
0,0580103405541717
0,0620645832123332
0,0580815805431171
0,062041702623889
0,0583644287054396
0,0587691086021519
0,0562299576330773
0,0605573605093062
0,0580500643159745
0,0590544769702872
0,0572865466610047
0,0571982538122802
0,0556420622423312
0,0571382705729539
0,0565992901615658
0,0580166681554567
0,0581515815212684
0,0571968421844704
0,0588604080944428
0,0591866750450421
0,0581836198462773
0,0614393065212554
0,0555674662721106
0,0601860229846543
0,0590612690773103
0,0602090539521966
0,0593026235237349
0,0571446231477852
0,0572901179898562
0,0539006292719432
0,0551751347861886
0,0578068683518063
0,0559891828353209
0,0535446210187105
0,055694900548641
0,0541582536022761
0,0558833351862151
0,0568884521205734
0,0548050822436341
0,0556733845885812
0,0538866796389934
0,0555912040658796
0,0568152828027975
0,057492939568693
0,0554351627815496
0,0530808317792077
0,0556424611985232
0,0542649484947816
0,0552417051570624
0,0503605899735285
0,0656030512042433
0,0502525954198504
0,0620729297033596
0,0533913265619518
0,0554162433396545
0,0523634239064681
0,0549912059595942
0,0532669734596806
0,053514196588236
0,0505183333257659
0,0555415275925705
0,0535381297364569
0,0540246420003285
0,0510491055540187
0,0541879951165658
0,0525383700720527
0,0526451706675216
0,0518289842725327
0,0525319882118995
0,0536427672413155
0,0521042651473266
0,0591879953516449
0,0584017908007682
0,0524688831099162
0,0585446048078501
0,0451366910300818
0,0633917317831791
0,0573545354609383
0,0493075276953675
0,055381449012111
0,0486951791050928
0,0559715504230213
0,0484604530821563
0,0577490531004644
0,0477503919750152
0,0612119228531125
0,0495937659357468
0,059032748208458
0,0518323007142318
0,0540395319000651
0,0499139276828068
0,0548942348723693
0,0522372770178609
0,0532814675332195
0,0514198561756861
0,0534641700558041
0,0523482774614859
0,0526496234726648
0,0529766981030073
0,0541783311206808
0,0511803229277679
0,0609685698726802
0,0514859279553498
0,055824187831847
0,0501964374720941
0,0553329744434202
0,047344409605618
0,0635808243692003
0,0449036185816903
0,0594694879394938
0,0508630691108178
0,0525509492976786
0,0495277696901819
0,0519859284360929
0,049766979890954
0,0541181596953664
0,0516602099713657
0,053197093292228
0,0521856570866912
0,0517884331549217
0,0516946190633218
0,0500063102565088
0,0544798195981968
0,0504236901215786
0,0537928813794012
0,0489799760047966
0,0542711258292759
0,0487548203881766
0,0574652108949883
0,065880292286575
0,0526498907959092
0,0695720612510767
0,0501698544212349
0,0560629887374556
0,0497148825572475
0,0553559183900081
0,0487419283805406
0,0579504113218324
0,0470728495344973
0,0555810294720812
0,0489893305617184
0,0564008864384367
0,0489578012095511
0,0559195606629462
0,0476731234341168
0,0561939747899112
0,0491574784259008
0,056621575585429
0,0473882074503535
0,0562799993053878
0,0477437020928896
0,057098564073035
0,0540330428105901
0,0570374775077351
0,050681409610454
0,0554829137177232
0,0818528017581166
0,0395220381107371
0,0701889354146168
0,0440165375328228
0,0586158297556807
0,0516746098922507
0,0542778754464894
0,0545176389845881
0,0567050049852568
0,0496977620723433
0,0560059805576703
0,0493276354325888
0,0581589759421033
0,0495860363966832
0,056518624623616
0,070445235731511
0,0632766162020757
0,0561925195395359
0,0594933743868882
0,0457771780270927
0,0811262857346028
0,052068796539963
0,0576177034187979
0,058257787316564
0,0533480053422798
0,0576272829997796
0,0516877431661214
0,0571047712690757
0,0554185430076491
0,0613326550624988
0,051199506136674
0,0597326054996587
0,0545609162111252
0,0586198844193021
0,0573291113313258
0,0581568046188891
0,0657951310742752
0,0568492243143427
0,0578178431333895
0,0641146564484734
0,0573923399086443
0,0602409849149375
0,0571027629136864
0,0595717313681229
0,0562699784645127
0,0697956603306709
0,0586236477606217
0,0666867864359502
0,0700783778310106
0,0592303998166349
0,0594257360006278
0,062444430294945
0,0628024243161537
0,0667419369196539
0,0500191680808261
0,0994764885726158
0,040509667345306
0,0955601013617247
0,0560274783176847
0,0713329339851992
0,0565275274248295
0,068472713288597
0,0552050182908808
0,0731522744611547
0,0727942597150895
0,0573087048821567
0,0688458166017578
0,0523241138723968
0,0851657913700467
0,0585692274891847
0,0699460357977285
0,0621703789461763
0,0663001399706957
0,0660692736577888
0,0842956850703645
0,052990699060211
0,087920462885775
0,0647039245217368
0,083177134784632
0,0910966195614809
0,0573482792669941
0,0829234405570508
0,0726354170152173
0,0678436692464978
0,0732535171502826
0,0640884246800511
0,0767778562726045
0,0597550517831975
0,0960894952032494
0,0753119650365029
0,0666129644349797
0,0797154532255929
0,065899701720638
0,0803852397890704
0,0815578291564577
0,0681895952385026
0,0767834988949903
0,0713300551664455
0,0738773565483448
0,0797114426506314
0,126645183761071
0,0512404052076364
0,121589053790805
0,0653966754140983
0,102431811775773
0,0735851175916589
0,0918050911589395
0,0696169180202943
0,105304536603029
0,0797073145808952
0,0890101590607097
0,0787336900240023
0,123139201291979
0,0667108746386083
0,0987558263741653
0,0830482948862298
0,0865229994911347
0,099881589276117
0,130620522463951
0,0959897488475807
0,109064066421299
0,086824294277675
0,111682499385117
0,108203212750168
0,0969599963798285
0,103159585120896
0,0979051046265361
0,103794604188774
0,100619097435843
0,104531412875194
0,10766088103761
0,0981614519592649
0,115104524027807
0,0964785579269139
0,123896947320204
0,114582664285758
0,160237982804243
0,103113048941101
0,127447894971362
0,131317572616909
0,120415070068338
0,126187014955583
0,111231246611882
0,120600520528614
0,124035903707975
0,123359948723318
0,122560077352216
0,126216096225134
0,154569153428339
0,117575819637361
0,165371215547279
0,118254094017483
0,14442135369704
0,132653996497299
0,1843288481186
0,188844827642053
0,129336146027525
0,167955648608844
0,140494926166079
0,217693764783663
0,140776930456858
0,165356495553765
0,166121903365094
0,168089371870609
0,165931698866818
0,183122102803789
0,175527975233525
0,191318718228042
0,195360913623375
0,191873868965201
0,200464409647231
0,238959086624446
0,232643456741451
0,250516833275782
0,212378994181759
0,224208320755517
0,231840118750226
0,234115582812867
0,229689814052171
0,248466051934127
0,224783485443493
0,30332074498442
0,238506678397684
0,26838684398269
0,259262365444853
0,281312014533728
0,283376675481858
0,273942531135253
0,344831265480023
0,272278437170884
0,321838011423524
0,288277487881378
0,322452374071031
0,299751480781187
0,331566709293349
0,332587683246944
0,333268244893542
0,340676395623639
0,336954071955118
0,339155873377433
0,343484151167163
0,35342481886853
0,350433419070429
0,363575254098907
0,397921861907686
0,373790093371281
0,536934987516983
0,343758431403409
0,388027079478899
0,356467831379666
0,395079360309609
0,386436641756237
0,378721161576843
0,42059317724503
0,371533786471172
0,390160690587127
0,383223749564446
0,392990279371105
0,382209531038831
0,393970453592418
0,392960645421243
0,375467383807284
0,424403916805505
0,368881704934778
0,501951246210019
0,363730119937672
0,401281580725553
0,387057165840103
0,397825217231384
0,382128510528802
0,399310816203558
0,370988465905301
0,415886535092725
0,387547818251229
0,394355993118731
0,386287139977464
0,380611315196357
0,413365696166281
0,386293260573684
0,383845916505234
0,373869335894099
0,359424868442183
0,374934434858887
0,352445280675153
0,424398658815618
0,355079760568739
0,368611613592931
0,360185492444557
0,36132597312263
0,355591986298576
0,357163805838565
0,347260225407968
0,360348820539968
0,348969367182447
0,355795310238243
0,353054988777648
0,347145715711584
0,351323716292691
0,345927081299528
0,35232641525288
0,345903677628711
0,351226203290743
0,345798989652866
0,34339053127818
0,34678211364738
0,347617453019126
0,346872536920473
0,345813905054537
0,342776583517254
0,350009332055185
0,343309952712657
0,347397461396873
0,336957790972054
0,342235401325534
0,347437010008846
0,347057075304027
0,341251064522599
0,347392540988245
0,339400153141773
0,341684016094721
0,342277990906173
0,342539291191343
0,337494662560279
0,338702546401704
0,33234315035633
0,340504076199206
0,337192443888278
0,344923805386017
0,403258913930012
0,314331941774636
0,340335061790118
0,315700419158506
0,336100494218919
0,31990126791305
0,32519398229536
0,358906483755279
0,313167019063646
0,31781248228338
0,308271823564877
0,305854438827015
0,334600846772026
0,295278759022973
0,305948975253096
0,303106213211242
0,297235916733599
0,368482933926425
0,264731736839878
0,413212793838446
0,298585225668918
0,300363160039471
0,279463694529982
0,321672894130775
0,283159344040942
0,28142013538306
0,286858277207351
0,268822524425042
0,323666154973264
0,265122475685839
0,28222471087568
0,265689654142247
0,272611952755241
0,299945655293334
0,280710945893011
0,268867509290452
0,301908142373976
0,260965458380092
0,271701302849811
0,302735549265418
0,28604661990894
0,25347521187954
0,239632459931933
0,256159629723834
0,238990543091031
0,262115523951159
0,281104062301248
0,23144088080383
0,259842678623003
0,219179203669749
0,25193450195448
0,232607319318815
0,260353666774417
0,222253178698258
0,255819421431144
0,251418980252532
0,213443658576365
0,265183118090531
0,227226360047009
0,281412229665834
0,237548517883991
0,22852911479531
0,21513502526493
0,28034641503705
0,226458370352099
0,224593596677671
0,232160303530809
0,204402761766765
0,232325069497381
0,218762146909591
0,203987756449276
0,243261579620774
0,211593201461899
0,246648248864279
0,244371027402046
0,249475112529861
0,229174791504421
0,207418946059886
0,206869738217731
0,206532331722243
0,206343292962968
0,217727906986971
0,193654861954013
0,264804310703898
0,187983735170734
0,229577105894181
0,230695506970678
0,213998394650194
0,219335389214673
0,220696827776447
0,21507274139029
0,226315114651758
0,23134562276784
0,257225871274326
0,215159552462653
0,26049315674061
0,238733186965035
0,237129123182118
0,236867053838467
0,245175769690049
0,243468257132076
0,247015975199989
0,267439596491272
0,251862510562045
0,26248660715105
0,272677629682715
0,261504945753961
0,314194535523491
0,28049849615672
0,280663898026539
0,340072111695112
0,282050567163599
0,370209688711579
0,294337939888191
0,324753683230794
0,315375639815202
0,324061812901513
0,335236837373435
0,327074902510838
0,361461955584422
0,358982340454259
0,338459240942135
0,357181726369405
0,347189804849668
0,367001054860507
0,354012680505816
0,404604341473187
0,346476742043291
0,476192995120412
0,35126518970217
0,405345322478392
0,378578633861134
0,377387265204445
0,395551814317371
0,380726387354983
0,390485077094566
0,38792028333125
0,393546332624142
0,413408418611313
0,381509023664137
0,404411761512422
0,39306229722784
0,403949267520532
0,399201693080983
0,413681890412528
0,409678212026795
0,41509851197368
0,416280924928676
0,421521847118531
0,421566718284789
0,481381636675949
0,413817254375889
0,448262183783306
0,422217947647743
0,450601649782642
0,435719171775901
0,449609085600448
0,466997020235755
0,451200699823184
0,455889460821832
0,463721432645704
0,459969206366202
0,467203596905105
0,465724494957498
0,495550147204087
0,454563802421352
0,502431130724168
0,454725969870108
0,559172338618611
0,479600912824992
0,502369703085248
0,500106052513509
0,499236017895505
0,495619021435156
0,496119625163029
0,492602174541209
0,493303611531239
0,498660978893394
0,500294447487095
0,502588414005789
0,495099494717261
0,50282202332755
0,50146519439261
0,503118282294181
0,521858048006926
0,491603203559153
0,50637626375372
0,499060179277069
0,503139376894498
0,493988524665577
0,530927068878969
0,498689581173176
0,50432945576182
0,50214050481543
0,520368335767258
0,513270481029614
0,498994977319677
0,49626568957682
0,512432705486412
0,491650966216921
0,521961264977662
0,490087013303721
0,52210358749825
0,532352790444726
0,514547832153245
0,513645928202136
0,513456183868605
0,515841494753793
0,521402740441276
0,517413610188876
0,528494358122396
0,523029531384454
0,528604101071826
0,5389793186634
0,532085289953408
0,532745996281775
0,537247558569839
0,549564892958638
0,546477297268565
0,525435382507746
0,541397245202179
0,528390487665988
0,534386118857201
0,532927650362846
0,52461384215978
0,519162696539363
0,526967482791156
0,510182647223954
0,508584963921587
0,534615704114536
0,495808478641135
0,517883309265735
0,490584098717679
0,492533519705095
0,490578696610399
0,486947725645281
0,486687598062995
0,479272718175819
0,483063008765428
0,476121887562393
0,475942012280368
0,463172879804208
0,472839948248935
0,467688387956762
0,465631339935779
0,465763027102467
0,471071745980982
0,467662080769248
0,465886755434402
0,465291170476308
0,461341675382448
0,460449352020708
0,45369778374541
0,480763747220151
0,465580139494229
0,47882478508933
0,461642986559897
0,47442946614624
0,462586407061109
0,457153673570514
0,464891989239194
0,455651248556369
0,468328287574932
0,454178061800994
0,463027298270405
0,452076763822061
0,460751946273471
0,456655147188496
0,462120496168052
0,455610897429661
0,453817452196309
0,451227398284866
0,463514629921496
0,454451117847109
0,457725269484656
0,449092718539145
0,464947440808898
0,448549794919541
0,458656826147473
0,457026196590681
0,452169523664394
0,457255301958121
0,456938024641767
0,458134476154756
0,45619861686717
0,453485450267695
0,453109985475024
0,453454008845356
0,458680205573303
0,454541720692728
0,452676834748912
0,452115276671558
0,453471124091947
0,443544499947404
0,448402814847771
0,44381953519631
0,439609802619774
0,43725588949426
0,435623883272583
0,428401939274236
0,429675738158948
0,425786700997247
0,420930848318727
0,415064011520762
0,413641005993144
0,409591676512568
0,407548308393833
0,404986631443065
0,401577474599569
0,402588661838925
0,40305801132866
0,396932652221138
0,396748138087916
0,395648237700588
0,394443256891489
0,393373578137139
0,391809963183715
0,388518045255067
0,392012355692767
0,389129116535805
0,393948950844908
0,39284479677569
0,396279505340384
0,39572908974648
0,393646406150664
0,395305302972458
0,394850622453344
0,397921329525288
0,398113968721342
0,40356422484487
0,400792044234433
0,406163672433891
0,405680072829763
0,407514898159361
0,411798958175303
0,410113934577081
0,412406557210212
0,412089649723443
0,414069863586338
0,415684571391893
0,417618058465835
0,415283331501716
0,414538643423746
0,416037081107133
0,416666432368122
0,414669654071623
0,413989890351586
0,415156216906465
0,409541197334071
0,410897921920448
0,411380087367905
0,408662660183656
0,407942690969902
0,406784450884044
0,404098707670301
0,401741390287806
0,404966769722214
0,40506192107434
0,401818534495867
0,394488695367436
0,39819469464011
0,395479620448137
0,398647058559951
0,392409242969448
0,392485010006131
0,390017437824779
0,390231112729405
0,38842860911719
0,387620823249373
0,385304252660477
0,384626919031932
0,382445475070316
0,383663050865006
0,380607984708256
0,378846708365356
0,379044464667958
0,377593855089107
0,376471858820043
0,376103351467348
0,371642764651785
0,375180172462673
0,370297019096714
0,370186016747172
0,36844129165548
0,365219075193209
0,365328645634658
0,362004899364972
0,358699975830262
0,359507010778386
0,35353543915138
0,351350088654904
0,349877415055384
0,347065478441294
0,342530717951937
0,34058322540134
0,339852681520494
0,336525473095026
0,335163216562301
0,332119686996041
0,331836009188226
0,331919303769277
0,33029416000945
0,331497969205071
0,332216679757815
0,329184634474693
0,324336909484159
0,326414423550728
0,325012560060047
0,321763374695298
0,317654337029976
0,313304062239905
0,312272533748027
0,305366287280072
0,303132761298162
0,297976979015173
0,292855243164008
0,293777316668795
0,287520205187616
0,287716149314439
0,285849021479089
0,286973805304772
0,288771170345937
0,291462444715455
0,296235103653154
0,303468232757503
0,306929932616912
0,31406310227658
0,326911087209726
0,336157291886136
0,347832635886614
0,360443501150165
0,374008367627762
0,38712801903451
0,402404681480308
0,417398547064149
0,427026478358972
0,445286999229858
0,456815607296166
0,475453475244483
0,485190881115459
0,499400084669653
0,510836232429994
0,525374251884373
0,536483783547172
0,551414870822876
0,561712760620862
0,569033337425387
0,580172033474948
0,589340518183947
0,60107669243787
0,608320376265897
0,614293354424366
0,627625636265376
0,632773376285109
0,637502767033797
0,644484772190788
0,646278678757796
0,652717014145966
0,652097500771761
0,649534068190442
0,652680117701348
0,657386936392423
0,657623125524857
0,656119105460264
0,658557744188156
0,657649510849435
0,663738060871546
0,660481073911285
0,661950631839237
0,66906822924214
0,668215304496968
0,674757840541112
0,676262377560367
0,678031911945086
0,679339012525733
0,688759397916723
0,691660123365557
0,698667058591665
0,701599023860463
0,713483617544194
0,717120811973523
0,721820196087264
0,736865853943558
0,741157955099126
0,752996178675974
0,764474303508839
0,776568543483715
0,792333214477898
0,802301043229885
0,806339567671483
0,814254043589721
0,822238155204024
0,830581698729776
0,838407109224901
0,840064237013079
0,843931617546079
0,845471850103466
0,84113293145651
0,844595183876267
0,837247689248961
0,839335865889035
0,836205186532108
0,832989545842236
0,820941665970046
0,833182355191524
0,822497419581543
0,828070579599108
0,836310447382569
0,841887304670096
0,853899041201634
0,865981207846303
0,871835267388952
0,886063256195357
0,900908665993589
0,916635136744591
0,924898814984694
0,936795203875826
0,96480051087654
0,972531068004814
0,975672096452446
0,991941122664125
1,01033887936063
1,02347646848635
1,03547990748238
1,04439675583933
1,06717386356806
1,08354526183342
1,10924503826222
1,11773410463382
1,12978457349892
1,16663929807234
1,19815194927603
1,21355449782053
1,22464476573188
1,22400587741761
1,25619262479394
1,27064518011663
1,30230968960649
1,31848156929823
1,33278241123658
1,34465789437357
1,37127614424548
1,37152022362532
1,38181090136296
1,3857728403138
1,42289980856632
1,41578886736926
1,41100798025903
1,4107712180566
1,4332007168546
1,43216703582344
1,43129210363474
1,41891836506731
1,42870014220553
1,42456393431658
1,43565861201082
1,41963153028861
1,42743193742075
1,40349491024168
1,39901465465265
1,43132804038799
1,43590582538077
1,43357230974899
1,46994484755548
1,49638424536051
1,46838743720918
1,50515506254097
1,51997454247216
1,56288198792421
1,53283313435248
1,56830516995212
1,58484412492838
1,55476702883582
1,57945231798625
1,59508600286021
1,67994198870036
1,63258961873513
1,70331312613317
1,67675513792515
1,70035750801774
1,66216680561783
1,70211977652975
1,71795645723351
1,65514220243013
1,65766527238196
1,70112204361161
1,75157791381013
1,76107457861073
1,70019376556613
1,82705783872677
1,81925341797895
1,82460628549718
1,8299962505892
1,81076269475191
1,79879204152107
1,84715261086492
1,69799218749277
1,75138209953992
1,79765540029892
1,80785910582751
1,75230237601579
1,76961135026337
1,77644479512795
1,73565033427849
1,7324572006497
1,68674184699987
1,6866370695479
1,66182693082179
1,61689319611468
1,6139167397344
1,52401958905588
1,52539874881029
1,48853751393845
1,45178738622614
1,39434511553182
1,35558596726757
1,34225416973064
1,31104672860784
1,28462868322046
1,27423357571179
1,2803457931477
1,26374805970616
1,25367979644491
1,24736000572054
1,22434752465922
1,2344270335393
1,20496525904248
1,20604601151972
1,18610463219862
1,17105055526548
1,15155340079398
1,15740480643634
1,14096628675576
1,12831179662046
1,10968146505615
1,08674338624388
1,06045449120807
1,04490961890909
1,00704389388466
0,96607209866934
0,949079655728561
0,927067560456745
0,882332735672571
0,844181273145253
0,811650370839663
0,780585440521242
0,739498462581578
0,712066701094057
0,67821995954399
0,650532290861666
0,620848104806266
0,597986112980015
0,571151714237418
0,553399577426784
0,536242221230802
0,521365006607611
0,506410010929886
0,48800158618592
0,476636150754713
0,466611697633288
0,456410098377572
0,448827613004213
0,442995975207763
0,438649601178703
0,434075814666799
0,433616954144149
0,42814539772541
0,425978925960527
0,4167054699626
0,423359903573323
0,42179940570036
0,42696896109029
0,42503269399123
0,423089045896134
0,429051849894115
0,429805240970166
0,426217917879148
0,43110522731086
0,427875696334694
0,421780775840571
0,416198858396713
0,419812847512262
0,415235823026791
0,406032998161877
0,400853333374192
0,396036329264306
0,3987275130521
0,39691981244053
0,39325391706635
0,392875450613121
0,386922768747559
0,389036082410653
0,390392941663559
0,389511329404272
0,392932472267586
0,394600837500177
0,393560931275862
0,396223619714445
0,399715782104531
0,401521578260902
0,399552695968943
0,407517309473329
0,408542340061084
0,407010713230555
0,410596080993736
0,413616570876758
0,406741159391278
0,413784806414034
0,423787956844174
0,426460120022261
0,419179715935064
0,419317207684278
0,416144946504956
0,419546248914565
0,420928284151775
0,422242445256073
0,426888313833565
0,429670340701906
0,43081247828209
0,435386411679934
0,434359727535751
0,439362080974214
0,449946128255673
0,461360205130391
0,47245534021214
0,481533103520303
0,491546874416036
0,503021175285425
0,515423351228604
0,537847427956917
0,546064937551788
0,555642503678339
0,56098086077275
0,566969896996902
0,559771750079815
0,569375264540503
0,567650853014126
0,55055833705291
0,542483710299695
0,550652673876475
0,537114039803411
0,52635491397089
0,520064144771219
0,516243523474452
0,511259257203456
0,504474098861377
0,497655314212255
0,507461282502835
0,51469403757401
0,51558071261601
0,513102805284428
0,508132171391295
0,507412204871028
0,510413192736653
0,511799729594014
0,504834062579067
0,488654060750881
0,495828931092173
0,491953548977336
0,485458470703646
0,485336297431923
0,467457340101148
0,460703768089849
0,462374678219164
0,457475353658208
0,456326383825336
0,446843566903961
0,449511635406884
0,450627873080473
0,443515491337198
0,434667086466834
0,448013852076413
0,440111255373921
0,429825340190973
0,430523935451018
0,436910249477591
0,435029751501309
0,422425898032733
0,421847895123075
0,427202231368098
0,412262159678488
0,419329608111094
0,413477294088814
0,421922493751628
0,426482625943814
0,41225660764694
0,413104452167822
0,404911284160128
0,400645217585297
0,408630102156459
0,392776522750239
0,401446400989035
0,394491832108081
0,39598359441117
0,392365334765648
0,382549139932374
0,376317528408033
0,387639903026082
0,38138099974217
0,377130358405244
0,37945007741589
0,38351401780648
0,384129981083738
0,380305806381019
0,369984800639316
0,378987048773927
0,380384431713392
0,384929773337709
0,382604270657056
0,38933149367179
0,392534941232703
0,386188748611271
0,377055125876344
0,389030170516125
0,391798731705624
0,400297413578189
0,399024930502687
0,395069525743133
0,395425111710529
0,394909949901137
0,396536748522062
0,406982089692321
0,397938980219964
0,40989172137243
0,417703843413053
0,42361096854328
0,432701902938459
0,429814866656743
0,422592427660262
0,432721968240439
0,438170808628592
0,4421652412886
0,4486335570813
0,465521441766028
0,47946390243147
0,481704156181893
0,479219499709701
0,497094556969071
0,511002162445639
0,529765745487208
0,539713287464186
0,571147460564309
0,574031396284864
0,601285836219585
0,597913533065151
0,614946195165628
0,640915174952016
0,625361370675792
0,634937628432249
0,647677730703558
0,660768678352259
0,658902087402335
0,644536940589283
0,656989931007313
0,655032010213143
0,689747351451722
0,640182929452464
0,637154299088134
0,643633036944322
0,649404535294974
0,657116156310178
0,669220682130243
0,678566873427929
0,66083288995902
0,649027119881334
0,656997627400934
0,638140110779632
0,653430368891603
0,641668052922421
0,642379271562007
0,62954372314643
0,619963521213814
0,633904905467214
0,61959646816957
0,595149592275343
0,621668832404347
0,573763457304437
0,568761823517129
0,605100082308879
0,590272149648934
0,594474386915179
0,583841669904803
0,594476887509752
0,606766081178779
0,584102000406024
0,586466839565641
0,565326138458006
0,606021913053627
0,57189953252042
0,540503147731296
0,577569198360565
0,600890430109958
0,602168994648305
0,601053859260655
0,57448382189695
0,625738193968925
0,577074933756093
0,575081960264635
0,567699329369684
0,556833595783405
0,593599232108741
0,573222236696482
0,598813154804644
0,613717784491342
0,579578628445928
0,595021194682845
0,586722193475622
0,567011027754315
0,585442790273046
0,623335876032748
0,664536179548416
0,651746786495103
0,596046340101017
0,613417475189939
0,621802372437901
0,657714528703088
0,66684200484719
0,600794721266125
0,606819707723385
0,678023237167683
0,653970013367861
0,660307019980092
0,699639657440459
0,6714297754011
0,716092132890102
0,811787495299742
0,777004128666705
0,712696796005256
0,751343369299988
0,75801889739598
0,76116705123829
0,781628193357702
0,760387846052075
0,757439322019766
0,834406614709799
0,828794750897927
0,757682451552134
0,77630067291516
0,820238275356963
0,852660090671847
0,849341405402084
0,91365128588704
0,756848944827948
0,679110394966426
0,826732308807663
0,800915213592317
0,778207368293546
0,801499487266844
0,891359972582346
0,788117695545346
0,842521736288625
0,792128537575155
0,684231142530667
0,628283435116367
0,647721990971028
0,776212542625598
0,706789323405303
0,850178986042797
0,821430289039988
0,697449103471737
0,776543329756159
0,857395565298093
0,801199561160496
0,872567163432584
0,951708660337617
0,938363045492483
0,979079411248174
0,68866181565841
0,666869469336939
1,09609871344612
1,06251313316058
0,70476169268845
0,661861031366178
0,741709935894465
0,710912872201116
0,625804178539296
0,888352342907916
0,768762728275507
0,792742002456805
0,957286305954699
0,881835362862816
0,744741893729673
0,848077431526178
0,728885048152858
5
0,681403306249935
0,527653515299057
0,793898001446018
0,710352184473906
0,865604452520599
0,863969992594068
0,786817715921084
1,39392835507087
1,53236669058819
5
