3596
4000,36533379555
650,420452594757
1
2
2
0,0596422056186466
0,0648794052923053
0,0481804050907502
0,0635400712187383
0,0595780131124446
0,0621356473013016
0,0561311197411823
0,0706571244110025
0,0443609421562909
0,064273861451578
0,053537110720746
0,0596838358358285
0,0435474778978048
0,0605526983938
0,0513108892524667
0,0658131883885443
0,0560597914419251
0,063085692766428
0,0509548623193633
0,0652917624896966
0,0501574085641082
0,0589012211128754
0,0540014291255312
0,0681908059988964
0,0561917232668296
0,063821035640862
0,0428040543034273
0,0634763752577062
0,0601051931566281
0,0586668455598019
0,050449863261348
0,0630704969846256
0,0479366929406944
0,0531050441772765
0,0447260702120869
0,0596117264477173
0,0518262509490227
0,0647629356450333
0,0573517054134387
0,0651815757425377
0,0548955216537675
0,060862998666069
0,0519515089870514
0,0598749706348454
0,057799704318066
0,0614937753063457
0,0537855053009876
0,0663163280955876
0,0537639643361269
0,0664369277514969
0,053294158637578
0,0556234393306694
0,0565641208107801
0,0655890814383555
0,0613269810603986
0,0732891719121427
0,0496540240363755
0,059676070083252
0,0481961327089498
0,0627429922077982
0,0618939809847391
0,0567934483835134
0,0469105178543519
0,0590405950361721
0,0557269804381544
0,0619310704338146
0,0483982454174989
0,0554740304157818
0,0475244556878765
0,0608784847440321
0,0487446492768343
0,0667670992295471
0,0555282354005707
0,0680534902379104
0,0622542537304253
0,0634400259428512
0,0478243489919632
0,0554569512612519
0,0506573210236451
0,066471596311683
0,0587033680956438
0,0636720041484575
0,0520500391319514
0,0599315690542074
0,0525127794159938
0,0575380683164244
0,0491248837825368
0,0664060964512609
0,055348190854028
0,0597552545043715
0,0535738800391762
0,060132065748698
0,0492393416097797
0,0570595933358526
0,0468436829532433
0,0547560173363144
0,0503601204822662
0,0580402962811019
0,0504804612445492
0,064912611558204
0,0597713192307733
0,0734104975529942
0,0582625010693806
0,0719563058629565
0,0646003653265462
0,0482158804877035
0,0622483837045802
0,0581914556397744
0,0442942061113415
0,0579454259560076
0,0525763740345216
0,0645169403482295
0,0445202899854075
0,053654518973936
0,0590699072380078
0,076042361271236
0,0537615573891931
0,0515165226151246
0,0489013933995649
0,0581056695811462
0,0534272963831228
0,0774924105283265
0,0447319680953016
0,0603209593103961
0,059338408805484
0,0552071454195281
0,0637646718881729
0,0814428999521013
0,0539546262784504
0,0507543175536096
0,0461248512695201
0,0502106559143114
0,0482916354005645
0,0722783252732601
0,0624551343835576
0,0509900207591393
0,0601271108045139
0,0771194250757675
0,0819420155199744
0,0641138928119181
0,0440328507616702
0,0571982798934457
0,0554674363660323
0,0714117016569427
0,0577741995925143
0,0594595889724996
0,0627383239247113
0,0635079184326642
0,039196858089057
0,048003230681286
0,0475270537555748
0,0619718598587579
0,0585349903658193
0,0503812694276992
0,0659258568398723
0,101284804550003
0,0571151246981612
0,0735775298589071
0,0507386755646954
0,0529062124169832
0,0515966544546497
0,0467977220946921
0,0483832769655813
0,0442669354180673
0,0413798809152212
0,0619107366433406
0,0695938972057929
0,0604254018765926
0,049566797376648
0,0706271997722492
0,0650112767652914
0,0654578984484622
0,0718810006819925
0,0736533967210861
0,0436227008980894
0,065577981971125
0,0714556536637432
0,0494084022340811
0,0514380906985796
0,0651435478778659
0,0485054287567755
0,0569359979132445
0,0569479995200201
0,0573798600323863
0,0569888404970245
0,0605764671719142
0,0545488080773805
0,0590775140837699
0,0461473545632611
0,0630280396655727
0,0795042427155863
0,0637711096807647
0,0513002906592813
0,0557784992592785
0,0416358900659326
0,0629587256939895
0,0746797114301692
0,0576053420793272
0,0520275106770569
0,0479647639636908
0,0435439860717583
0,0501122252508132
0,0481728291031268
0,0492603939194937
0,0494099575999926
0,0648247615968324
0,0595345579901186
0,0473170742968273
0,0445488444574633
0,0559510874544569
0,0634620920326253
0,0752403826309084
0,060320304960134
0,0498792599539626
0,0441360607887963
0,0490234561457333
0,0539249749049927
0,0673186018761074
0,0501697301704966
0,0515683823107656
0,0484815558376874
0,0533512857093531
0,0462031720524761
0,0511680456955726
0,0484641351999727
0,0439306607234677
0,0466993841723633
0,0519311728296854
0,0483793776283028
0,0498136492401914
0,0533323679210241
0,0482271625166132
0,0465321671667174
0,0503706221466474
0,0478945853452918
0,0673547139107622
0,0433466842769435
0,0438075205825946
0,0473563741117575
0,0443263834456745
0,0432384676858504
0,0515128980330272
0,0460718884681831
0,0476490551796171
0,0524101413902163
0,0698294126744981
0,0517755914326798
0,050827542217787
0,0491756590991285
0,0573893724433008
0,0598068697590659
0,0519726609087472
0,0486664941531138
0,0509939806074081
0,0444103112798963
0,0478977513243552
0,0610706506650197
0,0618776219257936
0,0433012408006027
0,0573429114911429
0,0568205410714243
0,0496334872910991
0,0465110504376591
0,0536141628900693
0,0652681897054593
0,063314297992566
0,0602396869785419
0,082377725952512
0,0450657057200401
0,0471769278910557
0,0508553229217372
0,0525835298856536
0,0750465470732716
0,0820011284548917
0,0495173146454958
0,0530780728105099
0,0536611280793125
0,0533152820314787
0,0510744155475655
0,0542096654360371
0,0586534113344152
0,0715345955521721
0,0804360999801483
0,0931574836965488
0,0482576077278029
0,0573180261923153
0,0695739246195705
0,0530182411903878
0,0483148025051865
0,0508141821792214
0,0478708782723282
0,0602149676457291
0,0584838599256111
0,056111306207791
0,053838507347316
0,0491354455534344
0,0614757940657902
0,0586435665816706
0,0487149919753587
0,0571999176339283
0,0579209732587041
0,0570697594235519
0,054950081634941
0,050359873222365
0,0480726929866049
0,0564062583188917
0,0588531700620656
0,0764400482232206
0,0639704929100097
0,0493327213947375
0,0585250429001621
0,052423102707181
0,0470735809201717
0,0543888615646023
0,0570008622057396
0,058154205230878
0,0540458445827307
0,0569574042609141
0,0674671583872072
0,0602479582705761
0,051007480341132
0,0570258391704143
0,0559255784336669
0,0611634492981538
0,0623225272042369
0,0585868082716166
0,0615316300872061
0,0595897036035918
0,0517080824129423
0,0651873835665561
0,0722987708915941
0,0620029092822755
0,0718862157851333
0,0842889582094614
0,0576024166221555
0,062698607596847
0,0600852008495418
0,061105505950926
0,0642630216106516
0,0673494962356059
0,0653496896724713
0,0725136715510065
0,0777872331276711
0,0777282446119343
0,0765283551888789
0,0786487066840071
0,0915369173264829
0,113876328405573
0,0835190330195325
0,0711610020950701
0,0683125909272731
0,0867811581522501
0,0957848984729413
0,0862413736668579
0,0944586627445305
0,0818251758982621
0,0832581430802262
0,0828622278873289
0,0845457429871722
0,0873159169259798
0,0838935731843868
0,0847743630155084
0,0906750590403575
0,0922026823766711
0,0980301651756094
0,0979295377775527
0,0941103591635512
0,115041817752146
0,109643674065088
0,0981238014638632
0,102817262958988
0,103932932794557
0,11677751896502
0,128519494287176
0,132575253701015
0,132346784340529
0,126049509949342
0,128247053324758
0,116252221828254
0,122507953285325
0,114331410442738
0,116182463538344
0,127149049897114
0,126976880658683
0,121838939169902
0,128226686041268
0,133242646716852
0,134686822906395
0,133044766614753
0,138346113445605
0,141615475701036
0,160111690960156
0,155464248790612
0,145521742560885
0,149719281327992
0,160512937484463
0,196200362656694
0,211730361371892
0,166595288260389
0,157606840992746
0,152742667826807
0,152029335065279
0,164360730112806
0,161891328070577
0,170060798002773
0,175877043883359
0,193318006687858
0,187908482030119
0,185151214068979
0,197813735236921
0,179159509995139
0,193018903138631
0,204665633790224
0,204210340269397
0,210701040801459
0,206190664357615
0,20096986941543
0,212515088877224
0,224494278270043
0,211628584001491
0,227940324967177
0,203012468177932
0,207199492831953
0,217010856524214
0,222885958760272
0,220811778475705
0,228487409021686
0,232348307583706
0,229850206268684
0,234127525147842
0,247885381764139
0,246850480485084
0,263627472606708
0,2638683805641
0,256202516886441
0,266770943583663
0,258371140447152
0,260007115543421
0,262685759206217
0,280259660551096
0,297627442999206
0,286549386803366
0,30018414553728
0,284939480732432
0,28156966960645
0,278820026898884
0,290908358517229
0,286012813748798
0,298283193265311
0,302009170771683
0,307195782463694
0,30424021693311
0,312160301044598
0,318446727645352
0,32083042699165
0,314900204557016
0,325703096991212
0,334781145364282
0,330292810462565
0,340085924039203
0,344460496510439
0,360463598254119
0,373162105902304
0,359318389540334
0,399264922995895
0,372272140254107
0,367734073426557
0,357341657740332
0,364397709980621
0,371803567063643
0,407530696994522
0,387319391880364
0,388513818251036
0,392478792150053
0,412692561260565
0,394253857409278
0,408582381595992
0,42194009584582
0,416598256194111
0,417609796795714
0,437693309956996
0,416468237940265
0,443545884410226
0,435318742955518
0,434797162399625
0,448516542311918
0,448488622189127
0,45028782420834
0,465008559465258
0,438915974143072
0,478692688644554
0,49019629506199
0,47417030753897
0,471142214656454
0,496977852664609
0,481062071137225
0,50840242637669
0,504753837291833
0,501300204819901
0,510669522603807
0,522677156268449
0,52298117680948
0,547130433335421
0,534349265864969
0,537774595303427
0,533157710048045
0,538304628155178
0,548474591077196
0,575013540164646
0,54176044671794
0,555620628502823
0,579893709559942
0,576603534954318
0,569064844171172
0,589446550379991
0,556488360008922
0,585565120248856
0,566964520390823
0,600887774928401
0,599104522056669
0,584165507910175
0,615482315958267
0,633690266144131
0,617113180171981
0,640525590470847
0,622232774241839
0,65543686019353
0,636295821663848
0,658407381564413
0,64678269823342
0,657713129874714
0,641825002373171
0,692777111663658
0,708451362205302
0,686711099073861
0,690653701233236
0,706231667348349
0,658622089380718
0,710759572418462
0,699239106114227
0,725118737148101
0,676264207858855
0,715151891185756
0,7271405921511
0,747226081572787
0,735308304191456
0,745038985534357
0,706896654988167
0,721658650033721
0,727408414884932
0,740034336820332
0,737622808831328
0,817156824234866
0,781780525796005
0,794067498922966
0,75533964917689
0,762997980959706
0,758989435710232
0,805701518530215
0,791711073017793
0,834926887156381
0,840718459503295
0,830803531132185
0,784633057760684
0,827918801822171
0,815514353181878
0,824342912153344
0,85470936222191
0,835627956312042
0,833337422886413
0,883237235609357
0,849943118422125
0,904900923820409
0,854330689301834
0,890618742414003
0,854467377421596
0,897868076896664
0,881627151525969
0,924684209553173
0,907802102257388
0,927155792765687
0,94654146036176
0,952368828915164
0,927101157403867
0,890760413538893
0,86633973635026
0,9630744140723
0,944041258372494
0,941649599606974
0,953781629870141
0,961481253010785
0,933817047100461
1,00837117262498
0,933198120712182
1,02694014271305
0,926572763336284
0,981142056887346
0,986605914362118
0,954501193170044
0,969568430484156
1,00192554716336
0,979266605534325
1,00809658720078
0,979162566463801
1,0132070811235
0,983268847831488
1,05447930730881
1,00787781567194
1,09142177803593
1,04444541577754
1,03547161655596
1,02721912179137
1,1303619732704
1,07499409966976
1,09485703293644
1,08114880075564
1,12735153533277
1,05809594955583
1,22791917166667
1,07915220418256
1,10508206646402
1,09724111036687
1,11332736734597
1,06173079205023
1,19737602636596
1,11233437346793
1,12396747859889
1,0800183795302
1,14278191810098
1,12046813075682
1,21224814167476
1,09693985462843
1,11915221971464
1,10979467221297
1,25050342576975
1,25858604833636
1,18469982516539
1,12133838051343
1,17269387677243
1,16501803530712
1,21427913502997
1,1920875701299
1,25262328712475
1,14056878033592
1,28165549915926
1,18523696386406
1,21611840398803
1,14617917317601
1,18163045812044
1,19801854203534
1,27136024899145
1,24371204242452
1,26474714558289
1,21334979046036
1,23208161019333
1,23161551506196
1,26847709183276
1,22737325879583
1,37218328375376
1,15709016791823
1,2731517181834
1,26222686372248
1,24309772712132
1,21464847951416
1,32331804810893
1,23868494885277
1,35310502428639
1,25550915134994
1,29026940745549
1,23553878761618
1,28589481249399
1,21270534962753
1,22822365046965
1,20952959277056
1,21193014979655
1,22894391469156
1,30144263058148
1,20511969692501
1,2937470908672
1,2687685987139
1,3564384164883
1,3007073379504
1,4388611359973
1,27452414256338
1,24623811505637
1,33403908305377
1,32190293364845
1,30312191977701
1,45957474890447
1,31880892891897
1,42842105745223
1,32687924974435
1,48951607344922
1,31643022672943
1,30629936105661
1,21205280426441
1,3075191472241
1,30425330594118
1,39800883889612
1,36905671288328
1,42151106969052
1,38523127425384
1,29198463232992
1,21217658520446
1,3797616056234
1,36529930333995
1,32524930786258
1,37224690673441
1,31608791649013
1,25797777393301
1,40404199265737
1,36821688686902
1,40698444071519
1,37739967407585
1,41962901030074
1,33246395336399
1,38293074007851
1,41803954338415
1,48324039840673
1,34790842345623
1,40349758233232
1,4115490872604
1,34343730839729
1,26803888153558
1,40347308551835
1,38307001229485
1,48752752663058
1,37834672875399
1,4640592486834
1,39940685608775
1,39660836804777
1,32070265848596
1,43371242142495
1,29017134085489
1,318609996887
1,37639396404552
1,37388196737779
1,4046112148541
1,33978276353919
1,3124460013572
1,41931862757212
1,2748831721879
1,37966225909493
1,45978886092737
1,36612653225593
1,32425191674045
1,34613656161485
1,37947137964587
1,45825171566727
1,42373823438652
1,54103403078053
1,40147228860213
1,39023440411621
1,28174186809182
1,37981254358112
1,40788470817674
1,50744550089252
1,41391465518382
1,39992239117547
1,40215207460537
1,41097550443793
1,29998302064961
1,42585579773791
1,34380976203317
1,38622882931071
1,41583090135355
1,34014879911352
1,34516745228782
1,36396937742504
1,3520727868331
1,43343463591337
1,37704017318021
1,42631557935773
1,36927780525439
1,38997037445398
1,32868493895972
1,42776821614909
1,36533125415558
1,43499474634848
1,31067093405392
1,40827091679956
1,33263377729118
1,29127059270558
1,27864766106343
1,41584275007749
1,28540485017376
1,39220306719998
1,31116466171467
1,46364975182659
1,23887446432309
1,42327578177705
1,53610910472392
1,4814376953704
1,30926452112719
1,46622729047219
1,27553163963997
1,38612185624174
1,23252904750481
1,34150788404943
1,346943307611
1,32190479863275
1,37043139280133
1,39405486060443
1,31869732359999
1,32651542646332
1,30927498938002
1,30913730122796
1,31860079565719
1,34055579647285
1,26017381760692
1,31722477124736
1,27779379699735
1,28973178759033
1,33221781605167
1,32324981312534
1,22475829058561
1,33351581648315
1,31538478809658
1,3272560485677
1,2448926756319
1,31762859849467
1,29051086701798
1,27619945053473
1,30998168290071
1,26777274323732
1,22353403437792
1,27692517668107
1,25009042850928
1,28968081527494
1,28119714850742
1,31409858977379
1,1789421420633
1,22845894591586
1,2834531568188
1,3209860248705
1,21333927568076
1,28419137619699
1,18397517885641
1,37314926271548
1,28230476881357
1,28415326606064
1,21152327903598
1,217940158171
1,14998193103344
1,21931770862828
1,18962918311463
1,22094192847778
1,22872136852885
1,22419222047824
1,16274559669275
1,17333231118723
1,18382274215626
1,1988833512384
1,12294528830286
1,18772275097858
1,13311251552145
1,18541655356151
1,13093880158015
1,15928741294878
1,13775343006346
1,23387481896282
1,16531138449246
1,18662804327961
1,16913923513493
1,16788614150346
1,10200377971594
1,1489177300065
1,1206253268557
1,14067470869673
1,11506497677138
1,17591668941891
1,08764351503222
1,14866471669182
1,07423337807297
1,10947996690937
1,0515547961211
1,12659635239425
1,10130583156569
1,12806415339068
1,08471114657799
1,1020332261471
1,0933473021175
1,10915053290733
1,03322436273874
1,0861957672318
1,05142733635805
1,09220566968221
1,03550238854759
1,10481658482279
0,981920047543176
1,0419189225773
1,00977127324893
1,03828402701455
1,01091964979588
1,07849804521975
1,03429142470784
0,992868730561148
0,98536488221149
0,986996212440987
0,990885021292517
1,02596980905093
0,983211021314026
0,97398426482951
0,951616026753044
0,984340217579975
0,955979220630997
0,938402921757486
0,931892811138894
0,958603415175195
0,950733744399347
0,975627062569912
0,892384922261658
0,932144778189827
0,895741155555728
0,909822127917133
0,906667065000127
0,928618616242481
0,909660067185467
0,910650018786983
0,916881055569638
0,916470564032456
0,873380636144951
0,879996514349276
0,893490869316712
0,902239348712428
0,879196224598586
0,868737929997929
0,86870019131099
0,892222098498299
0,839395383017266
0,870926152489326
0,859564171745735
0,830819802010335
0,79980581388535
0,837768180957072
0,808276237364936
0,841895731337954
0,813397821852233
0,845208015555545
0,823853094512305
0,822180182566928
0,820687106608566
0,813092384332934
0,779641102580694
0,817136303032001
0,795601008880705
0,808747599051081
0,756623068714118
0,799864315479709
0,763817264284625
0,790468808447251
0,765885437922771
0,792288355476185
0,753406138656908
0,775741492305201
0,755590282786029
0,789269997849609
0,759376524279292
0,761114941084778
0,719197690780998
0,739096253592244
0,718895297331568
0,743374013512879
0,723842880498615
0,720473786216765
0,706849114621423
0,725428555184421
0,714064102358904
0,724813073332474
0,682412714998415
0,72109057660335
0,697347749283568
0,698664930199525
0,692178842634209
0,704264367724527
0,677831648743956
0,673917210281786
0,667764756422636
0,681886529240783
0,665342076363687
0,691014498595006
0,659433474858156
0,674414257699661
0,641406685072081
0,674941436487393
0,647761643161409
0,65759067299867
0,642361449839732
0,649708827424149
0,641237611824024
0,640569894274181
0,632947203164303
0,638033508926644
0,62639289311822
0,626793853924584
0,621175002674603
0,618090367413385
0,605199249795299
0,626722744953126
0,60321270997101
0,603657234504517
0,592536901030094
0,615618500522453
0,596963954208982
0,605069330662084
0,588508236859679
0,593637153975613
0,591882972282513
0,592336547033266
0,567360518411944
0,583008784736612
0,563696696010809
0,580008583714084
0,562121524121368
0,574647852416484
0,554145216620176
0,569771539284316
0,553608567050713
0,543815279583036
0,551509396956353
0,565917438474442
0,525236980294789
0,552152519109004
0,523532974278121
0,538429110528442
0,526317012255226
0,54603678233223
0,519662866885358
0,536805218052522
0,523096801030924
0,533060892634641
0,50352408545711
0,525342185869847
0,512118001597942
0,522703962969794
0,504342984548012
0,519748546325398
0,500636508163572
0,508459401932372
0,50384738915373
0,505917390925333
0,488289773985419
0,496613832376559
0,482535099038554
0,495233830828798
0,47614816116312
0,484473799338523
0,469616170358928
0,482404694533707
0,46788677568146
0,469290259137306
0,469440773073455
0,477667305027215
0,465920379626494
0,474907565524829
0,453075746649491
0,472003792382273
0,454126125584405
0,459002888069148
0,449611576953841
0,463905756752836
0,44747262772961
0,462196038852169
0,452872527525663
0,458979391463089
0,44785750279448
0,455052161814438
0,439886771262993
0,450401222767184
0,443140940703325
0,442065766920561
0,433768617317959
0,454866152917308
0,433524875605797
0,439241008300782
0,43356349122496
0,442377623129476
0,432945718591433
0,442524048651994
0,430407658905543
0,443806956842541
0,432161252268536
0,43973672534884
0,425691013508539
0,44258896585952
0,430404236414072
0,436873930991779
0,431956760781396
0,439393367862417
0,430532273509245
0,436724143596491
0,443878314163403
0,448031076198852
0,444108801984997
0,45537862297427
0,442199337316687
0,455148302043208
0,443907386608375
0,451905255801531
0,450482684386849
0,461269703394894
0,447936980075766
0,461878379931465
0,456812768388235
0,46887797584926
0,447229396182785
0,462374230451176
0,460490351382249
0,475510624783031
0,465944101336186
0,480093539322429
0,468683693499305
0,490326226342906
0,470533503253297
0,489710148075411
0,48259413567107
0,493057206504124
0,478467941973833
0,491526833567553
0,493610002359328
0,497654949046199
0,488804139052517
0,500891752510543
0,493119325355552
0,513327878576079
0,501957857026811
0,51836135345805
0,496545379378744
0,519772804414224
0,519718779447032
0,526381549983618
0,523716671900743
0,529781272929089
0,5327573696414
0,548657360504588
0,539171600180727
0,549888360343768
0,544643741198522
0,555917891034072
0,560753199243567
0,569913483965735
0,559361689617077
0,557682052540331
0,555422745131672
0,577225177773365
0,555351497616112
0,587986503997469
0,567569814399047
0,585425685452914
0,567967328995353
0,581632896277464
0,577312809296604
0,582293543550447
0,580563461136818
0,577017718573113
0,567194847873775
0,586591973182374
0,573889364842257
0,580883782279025
0,567975736543615
0,57134311340547
0,57433285886616
0,578764439634358
0,572233778099042
0,582242552217874
0,575651696556388
0,573420990889305
0,576590291293649
0,576741030387853
0,563816213411934
0,582018145932292
0,571946004057286
0,575329588431227
0,558926796465728
0,585030455847474
0,564317180052916
0,584459761723675
0,574263827283405
0,585904767579177
0,568573604512375
0,588706729903971
0,567691817245386
0,588098586491021
0,572740022193963
0,576922447859309
0,580152079753094
0,579954498791889
0,590774918570638
0,597387840837366
0,568625552853383
0,584175246720546
0,578484087845074
0,588003088165836
0,577834003238944
0,595629975747658
0,575820917245023
0,575122894214877
0,562305428332247
0,588927862343301
0,56696375720953
0,58108730226079
0,562780518447725
0,583214512616093
0,564869803611249
0,579129267932235
0,566727287122715
0,571395294704548
0,553499678949762
0,563594275833387
0,558431505416333
0,571744530533744
0,551768201389124
0,558581147046386
0,554447896367024
0,556033621188924
0,552529376417655
0,559153642213715
0,530431242383819
0,54221844114337
0,531498892391039
0,5402836886547
0,517020637873721
0,538401649191427
0,506838254585572
0,520523898820052
0,506490615365797
0,506591635882847
0,499314101823349
0,507414025143251
0,496596530382792
0,500985934487337
0,488837324559849
0,485810923063138
0,474604128480125
0,491091100054678
0,475254099094058
0,473013729992377
0,471929623363512
0,471927708829896
0,4641451094807
0,467712471624615
0,448001328754451
0,45429462643022
0,444480791193194
0,454851066397601
0,447481757029997
0,45094171243136
0,429204147008792
0,443922638428377
0,425511011151982
0,44265770794382
0,432888496991091
0,439336013599526
0,421441287745886
0,431022085527504
0,417388549929457
0,4309133494149
0,41886683514753
0,420372104264296
0,407206922660995
0,419835675364666
0,4113988136336
0,417093701896052
0,407225452719428
0,404020325171578
0,406606131752685
0,414055718454654
0,393067180750031
0,399975750023269
0,387066889738077
0,397988466396002
0,388676307203534
0,3998224796905
0,384086455992115
0,396686373212279
0,395535507610887
0,395230688005356
0,380183154518526
0,388498544430718
0,377483548816427
0,384918423273244
0,377114189127999
0,386469312548831
0,368741379960866
0,376728903375336
0,368620338511427
0,377394123060568
0,370925185010341
0,371120309165132
0,364968443649994
0,373337923552123
0,358713052039859
0,371860529903688
0,359305347490081
0,369216584703017
0,36002893029265
0,364043385752792
0,355655121402592
0,362535820611121
0,358368842845523
0,363260599208737
0,349948438052779
0,353601357313093
0,352045818996518
0,365017127104107
0,346833722749587
0,349745205074032
0,34558147832413
0,355526090089591
0,344378766879679
0,35371184757142
0,344982804817179
0,35091308064687
0,340250793586407
0,351780041733992
0,337279620575524
0,347296048681709
0,33557242635291
0,342118156053155
0,33785640020132
0,34261056596659
0,331563713929026
0,337250338557426
0,335661400905169
0,335196440116983
0,335332234927558
0,339549247456455
0,330388073010236
0,335292442666369
0,323613459227412
0,337418958005502
0,327347240274848
0,338227121632192
0,321202254671027
0,333427271260048
0,324857613550961
0,331526565893568
0,32826902003164
0,329069753621283
0,319988601708255
0,329195430654283
0,327704812936389
0,327532413631875
0,322152266606252
0,327774523821796
0,317500012801484
0,327826299166161
0,3204317390098
0,325812096872762
0,314206296149006
0,322867379603691
0,316576602161938
0,32763120758724
0,311856716911262
0,321435064719173
0,323691074877719
0,319928319973501
0,31193490862935
0,319932462329388
0,313286897648622
0,319675469491808
0,310651307345475
0,316421616597664
0,307445227583124
0,320918603773454
0,309354964423099
0,31768552336179
0,310142858969352
0,311960981465606
0,304387075802608
0,319435775674127
0,309602505781075
0,310318155797377
0,309199201083882
0,313756079598923
0,309105713878975
0,317420137079992
0,306941198536843
0,309972960032319
0,306108998274757
0,309487167274337
0,30434545770167
0,311971134185444
0,303700874999532
0,312094363644685
0,302095118038976
0,30963294889304
0,299225015367929
0,304204136594644
0,297554199159484
0,302145744139181
0,296764721241625
0,300153657996656
0,298484827666923
0,302140865371751
0,2928220004372
0,300332090710085
0,28976754972887
0,295202616400441
0,289922672534572
0,29947237051714
0,290369062281869
0,295055607992418
0,290978163225271
0,29104410583958
0,289172943274859
0,300950808297523
0,288339923167934
0,297846896644174
0,286284638849705
0,295392315437256
0,291352780115011
0,294827183946041
0,285539359004669
0,286679535461408
0,279526913778152
0,287448587752336
0,283691343582333
0,284991671386936
0,283611932989119
0,280350422249004
0,279136198071126
0,284297802389424
0,279421270720031
0,282446220114342
0,275665422564935
0,275695460598391
0,27260485345121
0,278008111005655
0,271241177972065
0,275359832928574
0,27420909854196
0,279751696390085
0,266690262434584
0,270355128014998
0,27017222053357
0,268346882374178
0,267168848119515
0,276723732821693
0,263083065697478
0,271233183456618
0,264706404351808
0,269335933830045
0,264037776022162
0,266225821518794
0,255624792899009
0,264822508512811
0,258272588393629
0,261872793987163
0,256308900877803
0,257740721502317
0,251218522334045
0,257574437976055
0,255521456750345
0,254490804883445
0,250250519768703
0,253213423724485
0,248529266261387
0,252603526578393
0,248012190648927
0,251300956899613
0,245487352122368
0,248222253406891
0,244523658343616
0,247804024400051
0,237603488685612
0,246790782540833
0,236433797939098
0,244243499738305
0,239869405541652
0,247082758080994
0,239139045013553
0,245849695413712
0,235120483412802
0,242775132478141
0,232971965805752
0,238630780531392
0,234410537918279
0,235485819028
0,232939497259348
0,236217330676564
0,229698818278666
0,233517762655237
0,225285493487092
0,237174848083434
0,225528451093483
0,229836653975299
0,229502604751098
0,232497843994125
0,226837828362225
0,23210409229686
0,22611244192918
0,231188599111801
0,220937238360205
0,225346922602372
0,222791832385112
0,223178717105614
0,217122448085672
0,221239634723044
0,218726728637493
0,223607665362108
0,218012994397733
0,218438252542549
0,217576362625786
0,218320521419859
0,213319093847679
0,221581175328385
0,213371296692868
0,217654986867777
0,214522754127064
0,221892126254398
0,213867569635895
0,213201460808502
0,210337435044336
0,215047443403219
0,210232601729984
0,209606069185792
0,211280648753295
0,214142466563243
0,206605580725248
0,212434393155404
0,205448128028149
0,212285559070048
0,204186731364464
0,206714631040822
0,205273797193321
0,210516924864533
0,203921130932391
0,209121120463246
0,205746455141058
0,209241445917432
0,205232390354748
0,209288878767657
0,201229661891285
0,208226065916157
0,20063839419199
0,205095151216217
0,197679932180701
0,203875240865997
0,201114960573267
0,203873131886901
0,196239711786238
0,206655559232953
0,197156706959207
0,204665396924302
0,196734762679664
0,199326804786039
0,199327549602269
0,201292094692313
0,197424506172922
0,200136271767876
0,194646549677105
0,198170453812525
0,193693368997034
0,199038069090573
0,194029728984473
0,198878043383897
0,193837232064373
0,201582377780539
0,193003577881177
0,198542766213489
0,191170298592822
0,197969587205598
0,191897546623311
0,197706515864226
0,194172273581441
0,193664233070115
0,193953191257233
0,191537785058298
0,188820059009735
0,193509988672572
0,186541057192883
0,193883532868137
0,188344326385951
0,1921919258822
0,1910435513974
0,190803634082276
0,185705822143935
0,189171011969873
0,185849902214966
0,189784031325539
0,185005440875985
0,191498350924853
0,184013779368063
0,187697329207251
0,182471892923076
0,186263894622097
0,182167613967848
0,186076166841841
0,181651318074486
0,186910350974208
0,180060397187529
0,184647515298254
0,181998471133859
0,185407465122143
0,17967976794817
0,181210818025169
0,181759775941007
0,184823512724921
0,176601786544054
0,181044402853673
0,179582605627787
0,185292144724207
0,177998357256961
0,182885089425933
0,17576062341722
0,180744593499216
0,179533737534612
0,179585161898724
0,179062398465163
0,181132291539613
0,175459071112834
0,177657733364873
0,17688216308586
0,180892426094557
0,175043625899059
0,175026329591836
0,171599843794127
0,17871189337788
0,175632927098227
0,174396684685831
0,169393190387215
0,175081479758328
0,170823049314248
0,17484085937294
0,169847928067673
0,170153059875665
0,165344906577877
0,174175808415907
0,165979691012058
0,169229518709009
0,162589981425155
0,166989313285272
0,163944122571117
0,167230795387136
0,162418472796756
0,169219135014224
0,16213669832889
0,167586927595261
0,161319615257429
0,165487587110003
0,162185714028916
0,166037022107462
0,158282079070369
0,162654065319335
0,159236475256879
0,163438030638668
0,159098512808255
0,162166030935536
0,155741198324735
0,160457077727605
0,154371512276002
0,160834547712295
0,153029281515978
0,159818451334676
0,15621955831988
0,154980896596255
0,152238174831709
0,154517912152899
0,152045001458813
0,157550828469117
0,151195049567519
0,153037983304928
0,151792201304772
0,153258199912585
0,147287412111378
0,152541770478151
0,14993952941298
0,149836174387648
0,144007023980065
0,153942462628214
0,148711440218728
0,151990010777518
0,1459744703649
0,145626106678575
0,144944608617094
0,149263383829592
0,14542270209411
0,147487686699512
0,142382702651618
0,146719623391256
0,140793667467145
0,146464291221486
0,140863965071643
0,145368658260744
0,141223338002158
0,142863905191107
0,136010035421905
0,144620280412322
0,137392139462192
0,140644000753392
0,137455288091489
0,141738910379931
0,1359686946805
0,140672818845774
0,137126109279998
0,138780662842922
0,134513306157068
0,137707744431953
0,134575455793808
0,139250254579147
0,135353377461676
0,135711159737504
0,132171798402356
0,136999053065481
0,12811596269256
0,133535690721337
0,132036356590008
0,132579803499163
0,128555332006805
0,134510181376494
0,12766294853974
0,133943726118742
0,128828647021884
0,134919001058976
0,127849039414417
0,131914678525571
0,127557509321791
0,131376053183651
0,127314522511328
0,130531893316942
0,126875926859035
0,130201009783261
0,125464023697374
0,127632575112056
0,123670540330746
0,128478977875767
0,12509525376928
0,130428180538727
0,12396466963489
0,128082591539757
0,126231953176354
0,129103046984113
0,122607702735757
0,126539928477164
0,123600931960875
0,123978366266127
0,120975706569546
0,131885467589323
0,123349263597481
0,12723721179423
0,122051118833613
0,126274833911478
0,123413336215012
0,128633013087301
0,119882438890198
0,126632041098743
0,120459128366669
0,119563106262626
0,112626680357365
0,125976646831069
0,121177772100915
0,129071833762511
0,112826914393712
0,12017868083918
0,120019873802974
0,125280725623265
0,11111668788277
0,124384061477493
0,117316176312633
0,120988490713675
0,113849672692208
0,122426357488827
0,107658454558596
0,127285121147168
0,110554407794247
0,122797601990349
0,109952594702954
0,124601562668061
0,115612482980994
0,121138391825548
0,11346579348692
0,126309813837311
0,113236607664978
0,122313190007584
0,116679113676808
0,130562647192511
0,109083391685381
0,129795312451857
0,109863472801998
0,131100714861498
0,108227224432166
0,127812146430718
0,101453995210955
0,128650478569672
0,0934745192414245
0,129799870664464
0,0923674866951935
0,135991997678184
0,102541648643082
0,138255870357131
0,0909610931765889
0,130819753222559
0,0813487135714275
0,142442015149833
0,0936633426858079
0,14370007297976
0,0796701472687825
0,140743958634207
0,0918972363984445
0,144440248365267
0,0829472588001496
0,133862719950945
0,100604012590816
0,130069281134001
0,0994554471885248
0,11554325560861
0,115735692839475
0,110641299423222
0,119285815123021
0,102400473357385
0,123986949479794
0,103427440856125
0,126187529953575
0,0980960321907454
0,121910674021451
0,106337330780895
0,115397527425707
0,111737379971649
0,109295801497677
0,115137987651542
0,108960661908162
0,113251464227139
0,110811475141484
0,110241165164942
0,11144061481123
0,10584395363784
0,109443776782433
0,106859559248857
0,109600802575286
0,110335014674929
0,11200006538605
0,108315767936984
0,109116907436068
0,110982393982034
0,10879420009572
0,109060462447316
0,10958655526738
0,108664314465962
0,106711699013695
0,109019454799801
0,109409597630083
0,109242710699336
0,107656044493427
0,108149908180258
0,111287151991076
0,110238330689493
0,108483475947102
0,111001834966631
0,1126213200553
0,11067689889751
0,107857800381888
0,108944031079833
0,110183392915099
0,110177283135689
0,109257398702076
0,109668587865267
0,110138054235453
0,110061817227198
0,108379975811057
0,107524068843659
0,109608957912337
0,109886826403167
0,108177998896909
0,110537838979464
0,109237035938356
0,108719864557686
0,109737204412563
0,112123461512399
0,10988954693314
0,10922201376571
0,110281747210884
0,111601329530163
0,109302417068338
0,108795658309663
0,111565621613946
0,110713626715055
0,109536254911334
0,109707558784506
0,108442909830157
0,10892552173653
0,11103073226225
0,108704508827008
0,110519064167016
0,11055258947826
0,108285772744253
0,108850048846615
0,107963705176285
0,11082029301387
0,109528828628701
0,112470688191825
0,109134272986081
0,108905326333423
0,10964202436489
0,109972287866062
0,109239096868087
0,111016305880594
0,110257770207624
0,11262427306817
0,111636466358933
0,109959327736393
0,111163762011392
0,113079442389271
0,112044861563126
0,110408983740475
0,11065139543058
0,109492950979304
0,112395174971527
0,108973394684702
0,110244884573763
0,112107603461664
0,112181506987856
0,113664177078463
0,112762286533529
0,11444554470173
0,110564437390638
0,110843501567112
0,110703752106336
0,113186167028983
0,112853929898996
0,111306264015072
0,113836193877045
0,113784248982142
0,113136395144075
0,117368272296651
0,113681106762267
0,115067750949689
0,112659615304756
0,114998177316661
0,113441105606999
0,115648944445721
0,113288691452227
0,113207541659409
0,114753074239555
0,117427147238714
0,113210028618104
0,114723175945979
0,11315506051619
0,114986217484814
0,113984690268766
0,113294467194545
0,112762456369299
0,115809080502375
0,112742109900882
0,115823175619355
0,113509300135904
0,114978126627672
0,11491874959116
0,11462471954392
0,114500402733455
0,114943782306218
0,114106259108083
0,117304566415291
0,115453040443451
0,115583431034929
0,115572299323927
0,116889673083841
0,115591759859905
0,117238637695618
0,118261677741429
0,115852438124703
0,114642455398616
0,116515128021916
0,115373850023384
0,117459588123466
0,116810183129099
0,117193032683573
0,119139636582061
0,115897115752691
0,115871571277737
0,116505296087921
0,116235859301209
0,119289004082252
0,118518921511873
0,119969556155475
0,117506127577488
0,118293481029298
0,121005494635373
0,119313822834112
0,118024811807471
0,119586096574334
0,119545697751779
0,119895113202124
0,119975240226898
0,117669098426164
0,118940425974844
0,119646724088781
0,11784493588106
0,118433826587693
0,118360235857726
0,119364811884398
0,118419737126494
0,117212442537962
0,115806290585992
0,118963657299644
0,118228410069531
0,118194704317409
0,11780693160295
0,119849725558459
0,117700996030078
0,117803129215486
0,116461261067218
0,117965059064986
0,115830175893678
0,116069843568816
0,115128964683639
0,116013925055053
0,114737066973158
0,11682595191324
0,116720843465561
0,116150550633216
0,113765481637046
0,115584613761924
0,11474186080998
0,114067184068301
0,111406631377963
0,111730345044663
0,114937047297325
0,113064266195291
0,112056582663559
0,111399755088093
0,113158247901358
0,11324519724697
0,114924892854349
0,115040986999275
0,112323747865774
0,11312160208126
0,110885076353985
0,11403892560802
0,113235691771896
0,110757494113708
0,112266245296438
0,112847443388263
0,11019203424395
0,112190531820681
0,111373991013453
0,11253720030773
0,109036380263698
0,108998237977158
0,10930912688228
0,110713553155099
0,110117866871542
0,111283073179826
0,111128415469445
0,109838389674411
0,109095940237669
0,109404727267084
0,108522749425288
0,108694578603076
0,107776706931905
0,109777756459451
0,110167220636226
0,10913991036693
0,108695202579606
0,109600090778028
0,108210779224353
0,108917864464399
0,106670852277241
0,107289600691373
0,106599573720706
0,109599990805259
0,107927001146475
0,106437635754742
0,109436678444867
0,107494796986825
0,107764518273333
0,107587709743403
0,107409639492118
0,107664886043041
0,107217963391457
0,106048472830609
0,106454992238698
0,108344008481107
0,10513895108091
0,104957623332873
0,106469254711495
0,106361168124905
0,103975517485788
0,108160375181322
0,104856333209351
0,106585111894435
0,103871475145182
0,106514646527022
0,105944037217154
0,105539641645576
0,101813741110967
0,104493905079142
0,103626233504005
0,105135251786796
0,102925938475274
0,103467125448745
0,101823596693262
0,104029052217453
0,105116421629979
0,104879504904949
0,103010918534714
0,103654644556414
0,103318577304082
0,10212731817816
0,102970850400556
0,100271035819364
0,102742876805465
0,10391767715638
0,100986122007908
0,0978980294218965
0,101394803377515
0,100781117503484
0,100107022698754
0,100300834868788
0,0992775905763514
0,0980584584719072
0,0997105510018636
0,0987094298447691
0,0972390972766903
0,0996373270554507
0,0981323530855919
0,0963250078964877
0,0939467228322512
0,0951682908657275
0,0970142855688687
0,095844484251837
0,0962728636968384
0,094766253679716
0,0962635405290992
0,0931743738769715
0,0943532286096221
0,0928439581118986
0,0960379468837166
0,0940082260505301
0,0929805048345719
0,092087424337167
0,0910056305356607
0,0919743041309394
0,0939086669098336
0,0896742560990524
0,0898965707699507
0,0919776832739838
0,0891060780667273
0,0862617507873073
0,0873025239457883
0,0910664566711006
0,088184878511013
0,0872015978503065
0,0863889919128948
0,0872354615938862
0,0860291216767256
0,0870447675681068
0,0860281324459313
0,0852643176960522
0,0843293502180319
0,0852939815877345
0,0852039892325946
0,0858082231207171
0,0831607974984699
0,0941604901127384
0,0878272436324016
0,085677849125551
0,0810167116067594
0,0868717847021605
0,0841488787693178
0,0862999594223217
0,0798840946229688
0,0840372449093387
0,0817807184360636
0,0827653033757616
0,0802381910884481
0,0829813756489505
0,0817697441002164
0,0816940096223402
0,0796441587210442
0,0815750278375475
0,0809813649748931
0,081095991152851
0,079700925204329
0,080037440377385
0,0814224663642223
0,0826865312547494
0,0793243067583515
0,0813309587328652
0,0764933529837393
0,0847147940609391
0,0821827497236412
0,0819039539125391
0,0808016132365183
0,0768414405441637
0,0791386809469543
0,0777994372594649
0,0767290847900341
0,0787711465097804
0,0772564529802405
0,0767070152281156
0,077541356943784
0,0765862301101652
0,0785899449894028
0,0795357831908273
0,0762952465255565
0,0757345389544432
0,0750509665215851
0,0750870992396945
0,0729185438717844
0,0758401093678744
0,0751810264194855
0,0725191735828886
0,0746697882231502
0,0744392658280216
0,0754447303520224
0,0704963714705832
0,0861866604780163
0,0701931880219063
0,0805835314851737
0,0713079586510097
0,0743942733752759
0,0709400066131383
0,0737945510262289
0,0715493364154399
0,0733163423095452
0,0688918155199366
0,073648449673427
0,0715584133924435
0,0708757806726463
0,0691500467842523
0,073017106234173
0,0698134315484951
0,0705046316828524
0,0694999947159662
0,0718379965461679
0,0689338408699942
0,0692645897506268
0,0768288335073948
0,0779463759771953
0,0698166647932162
0,0765824888146643
0,064993030651189
0,0824419829796356
0,0739864251605981
0,0687635725322879
0,0732104237711387
0,0653284866074856
0,0718913938430115
0,0656973702775362
0,0745124800880901
0,0665943729540681
0,0785323610870247
0,0672518141050764
0,0759305428916174
0,0682209318524214
0,0704003447850789
0,067400540972481
0,0702343285492062
0,0690734878025277
0,0686549947778957
0,0682519568589789
0,0699659142720091
0,0678695253955598
0,0660769854344635
0,0672733024421892
0,0698780351579169
0,0659161986576041
0,07594374439882
0,067818529875415
0,0723841651203889
0,066880636368143
0,0683330619912913
0,0616552293143254
0,081857450482027
0,0604308519943703
0,0754586795803068
0,0669308656063268
0,0692817080440676
0,0661830630100104
0,06890658356749
0,066578684786052
0,0680698257114923
0,0664872686682128
0,068938563926538
0,0681527738173065
0,0671063471664387
0,0674244708654431
0,0672359452490254
0,0678043888662447
0,0659769516417464
0,0676895016976912
0,0634673378794315
0,070656300911673
0,062195633960175
0,071227206719851
0,0812967502702923
0,0688795828296953
0,0829051724197739
0,0640261785529169
0,0708461878595697
0,0632491752934894
0,0710304619212764
0,0618667511429626
0,0706121943122765
0,0629045704508287
0,069357760794334
0,0635318370689647
0,0711284365691055
0,0619968118984253
0,0717759035082662
0,0632959975051818
0,0709615603386356
0,0617688207493804
0,0716105825853043
0,0621221855863827
0,0730789966379762
0,0611620072955955
0,0695028192090305
0,0691037366587744
0,0742390443958912
0,0636891941487295
0,0727617768224371
0,0940435005143026
0,0582278513510087
0,0844613017764309
0,0600564875431413
0,0734749208250378
0,0653860410347377
0,0674044540432089
0,0689189975437671
0,0720476272445912
0,0633982915539054
0,0705794738523134
0,0638037487468901
0,0700471200645873
0,0638642513999748
0,0701770218095072
0,0869354936726101
0,0808842064746035
0,0726162337421442
0,0726452981313901
0,0611452273233578
0,094527685194605
0,0675824414743578
0,0712287753727104
0,0719253429343158
0,0712922046137355
0,0723657996730919
0,066282939696014
0,0711626230076437
0,0699661785809546
0,0767980773108483
0,0658429755020981
0,0752703255199002
0,0668946623953085
0,0723082755416203
0,0716699434849321
0,0719703036938825
0,0824988185218991
0,0719383067003586
0,0723528602392717
0,0782842090156119
0,0703976555123112
0,0742641831845298
0,0722390569188362
0,0734046924588518
0,0700442432509298
0,0831402312594391
0,0733960003088337
0,0850726317385022
0,083486207178551
0,0742455225807635
0,0736005426378646
0,0769887275623739
0,079086649408638
0,0806311472550799
0,065216198919813
0,113327021637448
0,0603285534830343
0,112435838976527
0,0701354335288777
0,0855548172092769
0,0699228198216805
0,0854564535911765
0,0674497070786337
0,086681501811743
0,0869562313310933
0,0739284949504317
0,0828930235004297
0,0694192362152559
0,100399548511645
0,0754793180601408
0,0855265354005355
0,0761938381122846
0,0820687407357026
0,0808944225273951
0,10075353280087
0,0690409044666982
0,102387499515454
0,0796040323529227
0,10241363947159
0,101822844169772
0,0707680478921643
0,10242216270041
0,0863964445495864
0,0839942389981346
0,0892633202078361
0,0779158508888467
0,091007257922122
0,0744649977112676
0,111384979587442
0,0906923763892169
0,0839080587911967
0,0934817724882595
0,079534187690085
0,0971569263978056
0,100930251242439
0,0854323341699171
0,09133249769187
0,0915468428814772
0,0901276640828083
0,0969908368577088
0,142774572189612
0,072169198878128
0,13691171718839
0,0839448294498644
0,122324708103497
0,092090078213912
0,111927343605841
0,0887968267065175
0,125419675305598
0,10090739691005
0,108194892012087
0,0981647414590781
0,142595138496185
0,0895227982562339
0,11774285053109
0,102098112822698
0,107998970767748
0,120940785802655
0,153920404851719
0,116060681270104
0,130852650244918
0,109632061266458
0,13237731132765
0,131272333401766
0,119214947793043
0,124442049042471
0,118079203963729
0,126084459915136
0,122806872470932
0,12671319759799
0,129177880512099
0,126734789508321
0,139241135855079
0,120651163760655
0,150067167967772
0,139752206369675
0,186064441584788
0,132685331458985
0,153444489247978
0,158048923184431
0,146783220668767
0,155060399310842
0,139818382050586
0,147296753521159
0,149446882091961
0,154967009800496
0,151653955431304
0,153588497065133
0,182305912331228
0,150948244133709
0,197393848081734
0,149936254706145
0,181152552356696
0,163884777004732
0,215832457082799
0,218858116649089
0,175558464546207
0,209105987944089
0,186250482744058
0,261498164085845
0,187893921601596
0,21635148918042
0,215157034924271
0,218844609609211
0,220976907530872
0,238113097676881
0,233460254026787
0,253387044918859
0,261757244811332
0,255321589138474
0,267087816335311
0,300266253353546
0,302262502242105
0,330961225454027
0,284607578368789
0,302091755057828
0,317041812006789
0,318214750709279
0,314803090418961
0,334925354892494
0,311317913385446
0,390962992083192
0,340538943932417
0,366285918470842
0,35693767233303
0,380211937534024
0,388794583077782
0,383410749905244
0,44872076013423
0,387627937006221
0,433589000840003
0,403826655418845
0,443915545503326
0,417406017866047
0,452169584083051
0,458831983249377
0,458844413142195
0,464440588476708
0,471442585644201
0,480517123154082
0,478768037715616
0,488223807731211
0,490188443207459
0,497001520943173
0,531943263986001
0,531007027339605
0,74147053052811
0,493118523169206
0,535727954673156
0,491847112147191
0,546069676377743
0,536554812054561
0,537864596460948
0,570122251493309
0,531972154254961
0,532552473164836
0,526200922366172
0,529036333122397
0,53294939058802
0,532085578899204
0,540025641803389
0,520434309521833
0,562107952762025
0,514924413215392
0,637368715960524
0,528467746656041
0,545766506626199
0,524113510615165
0,541584193873866
0,523466901072487
0,546200653762956
0,512709108480186
0,559185759525609
0,530452304043059
0,537059736170144
0,527817815674674
0,510027287239868
0,537426157300576
0,521146755554215
0,508288301511778
0,501156157290061
0,481671801869586
0,495706527465239
0,471526730163276
0,552235900505201
0,489713246529369
0,485511166164916
0,471555476382282
0,475650579583291
0,471113285614274
0,467677344908964
0,457341513815571
0,468591630697719
0,44945360835864
0,453059222639007
0,455320718787437
0,447697376690049
0,450981730685186
0,450186574412736
0,448563966061294
0,437315401884272
0,448128931384509
0,444910864530595
0,44214602857088
0,440798123794934
0,442727061056135
0,442348831712906
0,436011862601617
0,443526028023099
0,439109704371312
0,434772414910399
0,438595769665552
0,433128627508936
0,443414406901708
0,440697229559487
0,440976964232606
0,432168361359571
0,432919830790195
0,436755018629302
0,430190176816679
0,439517059295054
0,438122813403684
0,438607108412772
0,430986245233767
0,432536496622212
0,431647398856768
0,436774091245097
0,433840824778555
0,500515379218296
0,414323576802749
0,444654666306767
0,414438300449813
0,432551843815206
0,416528116090923
0,420651133219945
0,46453502243818
0,415344330219318
0,419033477176461
0,408518143697333
0,402863684927048
0,440965881169091
0,407141817372863
0,401982488111513
0,402645851709306
0,395204441773271
0,46111013922865
0,359365851924274
0,524502681545866
0,393530898959574
0,41265959977436
0,375889129756802
0,426138280277503
0,39639889200552
0,390059575616176
0,3919375028921
0,371877448407673
0,435929234062797
0,376990150384278
0,386340046302538
0,374896401110284
0,375941920675018
0,407655854679653
0,39236034777437
0,379259161041039
0,407060547441629
0,379987615704463
0,381784901802818
0,411133306838832
0,422612453656695
0,368392422566065
0,351684985985473
0,356031848666591
0,344396386068521
0,362581049609361
0,387044075327973
0,338666186726093
0,359804508421145
0,318753440186667
0,347483360591162
0,326705161986037
0,35815090984922
0,317286668163118
0,349874821260583
0,346924258918381
0,308686433202347
0,352770666010273
0,316939126294089
0,380001606643616
0,331629562280579
0,318396692357505
0,297142458497784
0,360657172828812
0,319462415875522
0,31638354532702
0,321187495248482
0,289548811348717
0,313181272164104
0,303293861753736
0,284905593789567
0,322929914726548
0,293305947636445
0,32493528798798
0,31494512568346
0,337740127848239
0,317148729678061
0,281174857710126
0,277643608819966
0,277494830941018
0,276826547901372
0,284875363099657
0,263587117000017
0,332836772409754
0,254619616766732
0,296139942877167
0,299169989937777
0,278337317653209
0,282013924927168
0,285362559968725
0,28130571533772
0,288403716541703
0,296241665143276
0,331132022931184
0,285187151176222
0,327184645902301
0,305644823837183
0,307808569114103
0,307875241894076
0,310371757618713
0,308114678932281
0,318517133780272
0,339276132684988
0,321970345045746
0,334089052902888
0,34473389521837
0,340035075862014
0,380346538278492
0,363377316167007
0,357620798138684
0,410927750671353
0,366062309905005
0,458113452082845
0,388484555424649
0,409270400769298
0,406774101340474
0,41197929478162
0,419380418000528
0,414703248887426
0,445305192902737
0,448913241718275
0,425832318502962
0,454703089663084
0,444496185423268
0,460791902565985
0,45196162669962
0,513274090560826
0,445502876443452
0,564494945126201
0,477647462737506
0,511909484931077
0,479546403216345
0,483791926268764
0,496434361447551
0,493661303630486
0,490617972588881
0,491407665657753
0,503730201638461
0,529351052810017
0,491376411422867
0,511652003711079
0,491083146394594
0,516203065983613
0,506099983829978
0,51912875812926
0,521000271319849
0,521642689089569
0,523992624678763
0,524071129143983
0,527415200114026
0,606658082953526
0,526248561884891
0,562096444144074
0,534351481784112
0,562159457756624
0,54660083860855
0,561462403393728
0,580416051800104
0,570509187292209
0,567747117749929
0,57452704721558
0,568594164253816
0,577072941273894
0,583933640663677
0,620637743196687
0,576038553757399
0,615719486655896
0,567948015070159
0,659044781365898
0,596529044046606
0,6354574188327
0,624506213215019
0,617759395589441
0,613446353311428
0,619274158463006
0,622795638633936
0,620130583563478
0,623060135284744
0,621855397674394
0,623849131738226
0,625055936206008
0,627722110466804
0,617479453544685
0,623324960059103
0,649994067003907
0,626311485148338
0,631732210575382
0,618692706093263
0,634891711298581
0,61119999088451
0,65956702113853
0,630088971719313
0,636294468569971
0,63326886398507
0,64314664261832
0,633998793609109
0,631887472368526
0,618818570121688
0,62990760718083
0,618286387951907
0,634382470754212
0,616901595681899
0,637579130786913
0,668290549627329
0,640675942629784
0,64371813793266
0,638074691148788
0,641016071532474
0,641366566373882
0,649471385838132
0,651461778671276
0,661323506721798
0,657404826529271
0,66261834803059
0,656496572710041
0,659731931590173
0,670140725540722
0,67463013510203
0,676988753045309
0,65827943657421
0,674227784186778
0,65268802606651
0,659474494216648
0,652992796315704
0,654558423763535
0,64245473444806
0,643061828117631
0,636892498615125
0,632853479366765
0,658859619721452
0,613909900713769
0,64221603310072
0,609718054404442
0,612909618229216
0,61408428869303
0,605120557097366
0,595485619723063
0,603166628052743
0,59423578937021
0,591191905664978
0,592524885684695
0,586253907849264
0,586997954526897
0,583026769850513
0,588800679591661
0,584393504759866
0,580597062794793
0,577882137007927
0,579962449125339
0,578265292108385
0,573981890117036
0,577958336766716
0,573717947480993
0,591545308516606
0,579942657501977
0,591361215163869
0,575663297241342
0,581805829059986
0,57396543430569
0,574482352160607
0,578845413905052
0,566630633143965
0,578613552819196
0,578680520878209
0,571675030837889
0,56973719358137
0,574641335577799
0,567470692959569
0,567118207032161
0,571505780798546
0,571590118330663
0,562995229541709
0,57102426518324
0,560128022564993
0,579572507992209
0,563456818825662
0,576537747092235
0,573515606361761
0,570007177490372
0,565126044316934
0,567791526357082
0,575293496223198
0,568199369725674
0,575746561697629
0,570857064629285
0,57035200709377
0,575524952627913
0,569255788018128
0,574467349773296
0,56923126422622
0,56688622376589
0,561748018764528
0,56486494773028
0,559732325218087
0,563674904575626
0,555031430336502
0,553160460187075
0,548812273091927
0,545671676906393
0,538446907769419
0,536569327161028
0,53086690618076
0,530805006333577
0,519729448633549
0,519773691549953
0,513930452088608
0,51159674710139
0,50483523121799
0,506958176601711
0,502968689339999
0,502602287235551
0,499892663037869
0,500808598211376
0,496805289701563
0,494519364057903
0,494268281355815
0,494320342599473
0,492614356211847
0,494600776391798
0,494989495051537
0,497001052220916
0,495422769329015
0,496439949221895
0,493645290204519
0,49822710839083
0,499333591961592
0,498293583673411
0,501638590994154
0,502696956981368
0,502091723359596
0,502506624275261
0,509547274037566
0,513480291270572
0,508841523690655
0,512160633270962
0,517336503910117
0,516225049114556
0,519948278885681
0,518263936624291
0,522470457184751
0,519091199975164
0,520249645118192
0,520659422475689
0,522862340224739
0,523465311606815
0,521876985923859
0,523722270908864
0,521792548555174
0,519631596954203
0,516348065598039
0,515485276756427
0,516538411920999
0,51424099500697
0,513953807812551
0,517417445468813
0,507439372029597
0,510029315588254
0,508783602951515
0,506873992666864
0,504113988925262
0,505017891412539
0,501528429701854
0,503214252573276
0,497582506835285
0,496777203362214
0,494735623074502
0,494149102509634
0,489819387695701
0,490036792653126
0,488227120539367
0,485347059358496
0,480931172439089
0,480936969851062
0,479731558992945
0,479116924446306
0,4783952996024
0,478451740671176
0,478083705910408
0,474512737942712
0,477251348002611
0,473490272068269
0,46964811111168
0,46628907268184
0,466469298376466
0,463324787866844
0,461907044969045
0,457149021848017
0,456187507297601
0,452993750273248
0,448803077252742
0,444329619644785
0,443263246362106
0,438406661278242
0,43428125366584
0,428706636767665
0,425479623201596
0,423188386391054
0,422497886290225
0,424744940367951
0,420892119768681
0,419744677149462
0,418947139177934
0,416940135545601
0,415721994888525
0,414957675844232
0,411175452660589
0,408986395035059
0,408996754912949
0,403692816222621
0,400019545336143
0,401771122270931
0,396303172563388
0,386189985435864
0,383039571095074
0,380683527226184
0,373297693285976
0,368957815407982
0,365707560614619
0,365676980280168
0,363347803599953
0,365624283195756
0,366758905572993
0,368171865294384
0,37456104622449
0,38094951372723
0,38866645246349
0,398814423872568
0,409310444486307
0,423711858278126
0,437387545685395
0,452103537464418
0,471252453235008
0,484921586044265
0,499009219242056
0,518249807514514
0,534442874894492
0,553988242253071
0,570154377884311
0,59076172840133
0,602688880103207
0,621363324971017
0,635651652337072
0,65125465858266
0,666611804692051
0,68406774327949
0,696906084273075
0,709569177372863
0,722186033372158
0,73246087441974
0,740723799622394
0,755354888673506
0,770363059235798
0,773565696989648
0,778787463579326
0,789704767940385
0,795638022457
0,801002603475208
0,802054197333122
0,803206067339668
0,809270138632532
0,8140800205858
0,810792292237676
0,815900484226949
0,811854165494394
0,814043515257086
0,815185525631157
0,817213734361539
0,820087487203079
0,81901068351549
0,81697174084547
0,822745591769644
0,824776436622642
0,831216649970127
0,840818056527164
0,840575151863495
0,841972105611112
0,854116703597703
0,863461353895261
0,861845262535463
0,87267970001963
0,879867917365877
0,894776275703368
0,898979656358305
0,908463557498829
0,926120560463306
0,941737516807279
0,948158046818373
0,953688306597756
0,976165981354582
0,988311102165803
0,999612064420387
1,00231914814196
1,00710538713715
1,02547168121209
1,01619456535516
1,03729996933219
1,03909174479571
1,03263118507837
1,03335660866452
1,02479012911699
1,01739118778249
1,04006334170418
1,0144945413034
1,02186643477893
1,02017751088021
1,01433194635764
1,02237692630266
1,02832967613216
1,02399433593846
1,03339760878961
1,06253473148772
1,084464521376
1,08605854679622
1,09084759580316
1,10622832536806
1,1230678360096
1,15743228251801
1,16587425704768
1,16007754360714
1,20256491970158
1,19945862314817
1,22274832152208
1,24107085747129
1,27766806660789
1,27627627585631
1,29366329183429
1,3010150259903
1,35984340252342
1,34880918116524
1,37472353537522
1,38407067281941
1,41447685043126
1,41214751238842
1,42951036098993
1,51913378249679
1,53295253336645
1,52864148941178
1,57336893269594
1,56407258776928
1,61164221663793
1,58832947308172
1,56967899596538
1,62958174239125
1,68492853211929
1,64953209164664
1,68086875930822
1,68623585618203
1,74434949899567
1,71277179508041
1,64910348836267
1,63098662247833
1,67726035625247
1,69460936694333
1,70141783457839
1,71408259664373
1,69897704569776
1,67854295248869
1,66635721877445
1,61267568865245
1,60855619045121
1,63893952462757
1,68264463241097
1,72105825114154
1,72870522027075
1,63239168527508
1,71967931412215
1,72344071854641
1,80680515905667
1,85197785099999
1,9089474266279
1,84712565674165
1,95028893791189
1,79467022042305
1,85690357693436
1,82062154626212
1,85355211718351
1,87038157404107
1,95478511088878
1,77984369688542
1,82761616903116
1,89521961952559
1,9041964893117
1,84942217547417
1,92267508861555
2,03139823955114
2,0101965299744
2,00870520770089
1,9620506607067
2,00538868685004
2,18924218839144
1,96228903049372
2,07099971097318
2,03304098461887
1,98075981821512
1,99184304311267
2,05538798628317
2,09373784360514
2,12756212181421
1,97395380477226
2,27352354573153
2,07692737564436
2,01120404076787
2,00293537090144
1,9229460612787
2,03130959005806
2,10194818325744
1,89038074404124
1,88870667445384
1,90859479173505
1,72709084794045
1,73915254726132
1,84009110655795
1,66000568816789
1,61037143747988
1,51892902434295
1,5421863821252
1,50362369569424
1,47488957243051
1,47089205425153
1,44598900001217
1,44626612590845
1,4724443204027
1,41806122127246
1,4490355337023
1,42813040796
1,42771167536156
1,38741436613727
1,35482053981985
1,37606184057453
1,43088534492521
1,38679726959479
1,34221685027647
1,29530923187426
1,30545570236291
1,25179958154979
1,25441434613373
1,25184872136247
1,23332149081907
1,19147745792022
1,15818603966775
1,14354357850554
1,11981510859467
1,07617433317201
1,02804338108484
0,985740177198804
0,962352771311845
0,93082073239743
0,884546386490479
0,83327154083553
0,806903416939214
0,775188884339688
0,754711159451075
0,727599627173439
0,689156143059986
0,680960419729665
0,657193708158588
0,626908080266463
0,614137849353857
0,595402606168267
0,59252601261205
0,587165356343392
0,569879471182056
0,554238746920417
0,550939099282381
0,547147109888078
0,546996420583104
0,541342927690213
0,537502857878822
0,537902065407026
0,54002302451098
0,53901903622968
0,545078244012529
0,544490838980292
0,543440086988495
0,542083047868061
0,541601389521713
0,541068384575734
0,542943753519933
0,539538690530286
0,53912548758567
0,538559006494304
0,530763677932743
0,526102961095064
0,519502238040277
0,513995630731217
0,51011595561625
0,512106143087341
0,504775465295251
0,498444856651173
0,503398738032323
0,494442300075724
0,490424565903366
0,499643349967448
0,504713880069849
0,497617547950065
0,501673167427376
0,503987419210741
0,505347764236527
0,503773883642954
0,516386026287825
0,517071909219032
0,516132507629247
0,524725324583736
0,528946809959228
0,527671268992289
0,538238360923386
0,529541058410078
0,527096142779815
0,532705748026763
0,533227580556574
0,538869190220238
0,541268342716275
0,534608826105065
0,532394307021002
0,534903415032941
0,54192261067714
0,543892656231957
0,544739571060448
0,543566794207893
0,545869536023782
0,549740530268541
0,568180101158471
0,572752568527126
0,573829126089542
0,584116095236777
0,605752646139945
0,622942454300805
0,630516896486004
0,639130438765104
0,665933896938235
0,674779782120146
0,698121341877773
0,704846136975372
0,71274233630805
0,704538235634067
0,696143537929611
0,696372932155901
0,701377167416042
0,687378834762628
0,682749980923847
0,665457288466613
0,658358649493616
0,647369661479069
0,651251595633961
0,646444937703843
0,630430329960342
0,638500155480169
0,651885503070583
0,644572274553968
0,624704590216721
0,627579219252051
0,654595993014654
0,659940441935118
0,657296971662946
0,640999605071067
0,647672502402574
0,634187942146118
0,618571168680406
0,609757891770009
0,621078140922696
0,616706622788196
0,607811783304735
0,589251392322534
0,597025114915045
0,591113479207153
0,579163079501776
0,57110208708516
0,586523441526692
0,56911568179946
0,566402199302961
0,579954362965222
0,563696484768128
0,552710295237488
0,559050058576669
0,562264084659859
0,552878135558316
0,546543780195831
0,554862390476565
0,549056614603662
0,541605660958464
0,533915220772683
0,531278845368857
0,538919121223255
0,542756313951989
0,537914724002978
0,540508712739824
0,522952328061367
0,521465775399796
0,515370239834998
0,526030589404615
0,525160757290686
0,521605938308842
0,502361972915155
0,516115197682727
0,516516930885723
0,507466552344973
0,496088964763237
0,501763323507595
0,511879696681061
0,50578275491241
0,505203636273547
0,497306374286729
0,494233106055266
0,505426348418896
0,501772284759869
0,509396882976984
0,492307232341806
0,505581136321394
0,501296695489166
0,492643853965239
0,501551885692992
0,518645768411265
0,504079264757507
0,501291491347093
0,505056144805473
0,507685576405947
0,505869205314981
0,519320419821401
0,517493271725157
0,525325779084455
0,513342316648039
0,533881100638151
0,539355510615092
0,531488549902011
0,525273913395663
0,531773037893924
0,545026002497055
0,561837625765634
0,560246238296909
0,555387251986896
0,56772777524499
0,568999349961746
0,584903199974682
0,597471616710662
0,605229105909045
0,614577891082437
0,608481516061585
0,654410664117984
0,651202783893703
0,651231426342347
0,676464802675377
0,709579729812336
0,721364206958046
0,743939604584555
0,73501116210482
0,734089226392206
0,75373058417965
0,788295993960144
0,787985201837583
0,835460590143497
0,846174943343884
0,818276314305021
0,844261134862493
0,818170698973173
0,791982467705154
0,870615424252087
0,854975256000349
0,808289197653776
0,8177613197157
0,845996697459849
0,819082369101138
0,841692786332895
0,835346056974421
0,840860304779255
0,870473200763193
0,854819249742185
0,850482768311774
0,8091854206207
0,770349292713102
0,813201164992413
0,833779773147608
0,802892306230381
0,799775643834068
0,795140633101375
0,747840315478429
0,78868428921444
0,753258041304585
0,764811910643656
0,734404696661977
0,759084222800494
0,773377651647332
0,749026887924768
0,762585699437823
0,795338571085137
0,798004620965129
0,738099944541598
0,723638975139836
0,737053355216299
0,724444319568586
0,741597611537174
0,757901848347185
0,748900630782979
0,769442078900666
0,790683140953613
0,724455416962241
0,769448843044826
0,746924939307308
0,748160946670582
0,773686358079518
0,755617684584668
0,7257419132612
0,740112463523239
0,75546171327082
0,848813566886302
0,853475397829051
0,697762353864642
0,74359497769665
0,783840056816644
0,815784798705081
0,823834430807284
0,766151302588655
0,790852467066241
0,774389814820196
0,792566824908142
0,783556881368603
0,856985886728543
0,865165568228847
0,795460324150456
0,79613312513649
0,837099804097627
0,834717685348936
0,806682754650252
0,85181015502369
0,85563289953941
0,858599134449152
0,89952786475273
0,987069231933688
0,93709566656172
0,85683194389483
1,02408237686559
0,982870228449135
1,00638752922455
1,00909784722245
1,11732487978301
1,17090104145713
0,984281235941456
0,931025587222474
1,04469301104094
1,17881262051948
0,971439906760835
1,14486400138319
1,0026295030245
0,945347575615609
1,05724270892693
1,07799979396371
0,981700158875351
0,838830846895385
0,981737209177042
1,06428308209441
0,94589886340298
0,949605809541424
0,973754509930992
0,929101071103382
0,912377160112602
0,879103950025616
0,978378910095056
1,15301528508348
1,03555822850736
0,998259587392146
0,807562528938655
0,988676833901039
1,31417120155111
1,19143549038635
0,930157512940082
0,982966549308778
0,893295607997278
1,03942448644455
1,02314955075334
0,848080375970673
1,10860166992585
0,842505319895822
0,919809865332429
1,50189773827989
1,4964518340295
5
1,55605270654347
0,880667596672227
0,715423912069048
0,828676310517034
1,10027699817428
1,14413036213742
0,924393344221021
0,683329867665474
0,766529613712787
5
1,44347535693114
5
1,05201294451798
0,49806263681215
0,804314789875857
5
0,87905068607179
0,606623445100434
1,29857514437252
0,732824160990818
