3596
4000,36533379555
650,420452594757
1
2
2
0,0970082319455333
0,1007382721692
0,0935341967376724
0,106858213329115
0,109130112918535
0,0999396472093511
0,100228266088344
0,0980232536712137
0,102115427701449
0,0994998687202674
0,10288716900048
0,100655985132775
0,0963185571593113
0,10168705112634
0,100183533958318
0,102043111957145
0,0905460802930054
0,0944243714140008
0,101443401164729
0,0985574696736806
0,105962087948509
0,101555319441226
0,105143644812697
0,10238091034656
0,10636464043112
0,113397601396595
0,0981487733243277
0,104241111185744
0,0970976478819295
0,100765274247299
0,0931944182264907
0,0991495925729982
0,105474566982695
0,105613734523891
0,0996227149631657
0,102705005048279
0,0942292693627763
0,103576308918732
0,102414645918384
0,103835119916732
0,113611433113539
0,0918520855383693
0,104432398458043
0,101763650922365
0,0988469008370548
0,099027039313062
0,0964491412052071
0,0982878071219254
0,104876596266189
0,103106744983638
0,105251413725401
0,103848445248553
0,115049343110736
0,112529756620737
0,103132061458977
0,112010956127583
0,104889925579834
0,0975977504066936
0,0993991969034325
0,100815188869347
0,121503729191896
0,118907214927199
0,0934116241711543
0,109578424199033
0,0865787892078471
0,107993830220697
0,0921111833318637
0,106409554739603
0,0920172831002776
0,103836937772318
0,0988726027062996
0,120645244080347
0,111957868599889
0,0985719486373483
0,110505395432113
0,103708381701916
0,0923800326896085
0,0958731523403658
0,0899674895025874
0,116352128128789
0,116570401477522
0,105009916996733
0,0932637309210679
0,0897103503100452
0,101450083132351
0,119159148866691
0,0941361427362726
0,0996684449767328
0,126126606185895
0,101087598697031
0,0934080284043807
0,107257090645224
0,0950910271358294
0,0913820047522449
0,084165985187929
0,0879196822290936
0,0896689735333226
0,0937431777777281
0,0907806360968858
0,110355037113165
0,111879062988909
0,0975776260749006
0,162767977397352
0,100741997646181
0,16249511175864
0,115266377466796
0,0978310195765639
0,152808636473987
0,103831513833027
0,101020449115595
0,0873588621151937
0,105442551231888
0,0957929914201135
0,107326267202309
0,0892090458270726
0,129975433557779
0,131094920851176
0,0845266342584418
0,0911273565064928
0,097939530723303
0,0805577614514658
0,12782032168408
0,147258850415459
0,0913230180382671
0,113341165196133
0,0903572827481453
0,103402055425524
0,13478992830898
0,129355330359578
0,0862661975197819
0,0949151553589459
0,0871496136456318
0,0998407125489311
0,0917265824040182
0,141742115588966
0,0998762796894872
0,097333308241006
0,101391052072401
0,130128177842173
0,164242373176699
0,104045405335541
0,0868564437506479
0,0893405625028343
0,0974877023538864
0,146641740355231
0,111390700719036
0,0978578232270676
0,118013683130308
0,106151985569027
0,0847417986031366
0,101395512226231
0,0892797724118112
0,124860859842657
0,099209996082506
0,0766033222887608
0,150389388098177
0,190481951519508
0,100593537596931
0,171130282184594
0,0853153837008793
0,116269132594185
0,0916919491011555
0,0886843799713815
0,0824964793760665
0,096549386556825
0,0792183137284986
0,102650289239916
0,13298150118275
0,0870253640391851
0,111204959744084
0,137302058290617
0,128286012762054
0,0956792815597708
0,165441576941999
0,114378338340148
0,0828623090283979
0,144265415750127
0,0999338908405928
0,0918171622810255
0,104699035864376
0,126168086682298
0,0775456892373957
0,0912520041970488
0,080666847432734
0,105368909241261
0,114379198996697
0,107765592760418
0,0891283186444218
0,108419229247072
0,0821082114663191
0,132926725876281
0,136458818616291
0,137683584776235
0,0996059958304797
0,106452182420236
0,0723764488121881
0,14120844847461
0,122904835341499
0,0912154382347057
0,0858322657005987
0,0799218862486104
0,0795577569762876
0,0892260785083279
0,0800479540068501
0,0937773729663388
0,0720851999838124
0,146122915520142
0,101709046202314
0,0885187099158713
0,0868403337016655
0,110759672198659
0,115419152999647
0,170732455138888
0,126480251687041
0,0920071271863704
0,0984427458896503
0,0854798931524431
0,103119147137878
0,111411837778691
0,0822151968171469
0,0940984141622822
0,0886031772487343
0,0867206759510145
0,0857087566919907
0,0867668364763463
0,0867698558587234
0,088343145938385
0,084844075317989
0,0933109272121429
0,0951360560888669
0,0994985425076933
0,0957800373976962
0,098171279292452
0,088900478509026
0,0887727379103534
0,107076942815754
0,120126562219409
0,0875818910624927
0,0975243185595888
0,0875844656405719
0,0977748110548503
0,0850949533999114
0,0915437375619289
0,0789660176767676
0,0954074714014649
0,0895664129870956
0,146107996624742
0,090938868116488
0,0934025507224911
0,087947331789187
0,129920152252921
0,108377611143152
0,0868199293979913
0,0984626867079724
0,0983528087457761
0,0883764468092876
0,0947616711032433
0,135303391644655
0,106199623695887
0,0981660286149192
0,113995215273128
0,100172579267259
0,0888768640692546
0,10302278634648
0,0899870116404627
0,16741071240138
0,127463654352288
0,104958626442918
0,176294642449961
0,121338160706211
0,108870313169291
0,110929272225147
0,0917338703071956
0,241251575647446
0,154512316537586
0,104539751952263
0,112488980503641
0,122679070971948
0,0997543522701354
0,106711611100638
0,125967725901741
0,124253759054803
0,157329188199493
0,170221924559254
0,177968464110866
0,0903917518435007
0,147747909314723
0,135497002471947
0,105263897662391
0,102860424189455
0,0918988188274507
0,106110189869592
0,123884918231599
0,124177267284751
0,119579855324661
0,115450485057104
0,105077400032251
0,153733933154697
0,107837767811695
0,101050629224916
0,118196640458248
0,119361724719074
0,0905909455781797
0,0975029673780017
0,0992066404570035
0,111221250029242
0,104954322354905
0,116407602269024
0,172985106018669
0,126488494339789
0,116158577082715
0,144070040762621
0,104146961684685
0,0976119203331624
0,0970656184607791
0,105946582628177
0,103674490857135
0,103094638946986
0,107226632657926
0,139870636529938
0,110452822144575
0,100664367596854
0,108355724113149
0,0952102898984623
0,108428988581843
0,108389371471548
0,10585511082994
0,104711906463026
0,105926869439994
0,112456079898678
0,157342022439447
0,141676436837303
0,103639830195873
0,154798400747802
0,154461158610548
0,111819271039291
0,110078240766336
0,10613135925754
0,114013405570613
0,107021714513309
0,116176078927745
0,103915340850674
0,120600141694511
0,141690794354306
0,128767419433028
0,11837327789427
0,143908218092011
0,196848110392963
0,20282470588081
0,139532655145071
0,13249475997654
0,117275013132
0,175304449275993
0,173349508244582
0,14209809897245
0,163158390889703
0,118926817312682
0,135647034209344
0,121048523070321
0,131094091999527
0,129716361326568
0,131072528328343
0,133806454092045
0,133547613595929
0,133666422384175
0,140805724577891
0,138403937049947
0,147871903296833
0,193691465515721
0,157886313267484
0,150487607244561
0,151054432281591
0,144367371467627
0,19759982207861
0,226117002856496
0,200484373705203
0,199909222629052
0,189001925410099
0,223597385338559
0,164304593579158
0,177454636618729
0,151527950803834
0,166942089990547
0,164086366456259
0,167050644904211
0,158069510138855
0,16647777334824
0,17115267801561
0,180788811460433
0,164950274149719
0,174206051815771
0,179006724579247
0,214708231428834
0,183481919769269
0,189218482137268
0,194308677978881
0,229369977277835
0,278897173453945
0,259298732458186
0,206333621474818
0,207313641991337
0,207097483862468
0,194473216405879
0,213625522019121
0,208772435905301
0,215538337432083
0,220312531089555
0,249506505533772
0,256562879941034
0,241210985287722
0,236326649611012
0,219325100963454
0,253512701635765
0,244725272676016
0,253390457227255
0,268947219079549
0,245770135531248
0,236575669952982
0,271865191186419
0,272125538241411
0,263101235553286
0,284700702967108
0,249798033672118
0,246778937219305
0,259110941502061
0,266026616625607
0,264107594499677
0,269945409018235
0,274792252249553
0,282973878654237
0,289979079412086
0,282714393184225
0,294140454903605
0,306768093173081
0,30969848757555
0,287786981951397
0,304738818718574
0,284832698315345
0,290113710498243
0,289972375174682
0,329986444218872
0,335554920875642
0,326982274071988
0,347350853509091
0,312347670648901
0,316613588449695
0,317922120867459
0,323872445367938
0,321622839151243
0,321626963041385
0,340676645097575
0,332989862876361
0,349908694050894
0,345780455500066
0,349859181918542
0,357161065824442
0,364880738022712
0,340460135532803
0,352773755929735
0,370025953219374
0,373622515663494
0,365153685638742
0,3990626917253
0,431557933330443
0,446875989227426
0,431219523733227
0,402061496024926
0,393248891528966
0,392574905235175
0,390480027007035
0,403460286878392
0,412856144190389
0,420559183411143
0,416600134329697
0,42286280820032
0,41856794211607
0,433363289265589
0,430317740279752
0,437456379499965
0,442080901714822
0,44782237276316
0,434082391892391
0,457858378223044
0,446632559859114
0,469586301712162
0,479328096350778
0,478832345725708
0,485004120216764
0,490462593497294
0,475355568074358
0,46781572247691
0,456858774768878
0,48265429590223
0,495805000216885
0,504589102614889
0,489598259970747
0,494461643204922
0,507813876953342
0,529277211187766
0,514963338685163
0,519224090119528
0,524796040089656
0,529244879954576
0,524158712964418
0,551902935136641
0,553168399071233
0,557572398293863
0,53532377645028
0,542826962197073
0,560302258901459
0,556060309513637
0,550086982757396
0,606271955844331
0,586154441279654
0,568281369642802
0,587981536800875
0,617727624733326
0,582737236990849
0,59074423538356
0,585238935347919
0,618175727424353
0,619991116606539
0,617292520033225
0,627039117188207
0,628018190422729
0,625808342183136
0,641953472433549
0,60918928762014
0,628759492782127
0,635402559743303
0,638819379091167
0,66033946154162
0,676620968904768
0,687444998278405
0,703414861263861
0,662554695072667
0,681445710557462
0,69132875192384
0,688651205471098
0,693863441934791
0,713473069164909
0,701823574678607
0,683917615723222
0,677746260457024
0,715017119498295
0,73161084481463
0,713932348926259
0,700181551274267
0,746420240251615
0,711688035794354
0,749980654159444
0,72665822527409
0,742229056321406
0,758610790823539
0,798991333545984
0,756096831045396
0,783473559230871
0,796999127147769
0,787768780008806
0,786237451800648
0,818595799140017
0,786012645658517
0,782161628921404
0,754824619585712
0,790832392009538
0,807130266081439
0,808858604040316
0,7935235537796
0,763001753034789
0,778840876091192
0,844507690962675
0,807234811283635
0,860548428549459
0,826503157481502
0,853348902724558
0,8700441964813
0,87591737702409
0,841244489722743
0,866727032091816
0,868048482587902
0,905478813392886
0,81092802440175
0,862333456332018
0,911151272511496
0,892476722091082
0,878471553943112
0,890210317544105
0,890972185739988
0,919777259348151
0,916076720749575
0,906659585529991
0,893217080799323
0,954166457743336
0,940662741394068
0,94772847136672
0,856054641971817
0,918673589097515
0,923554319708535
0,906942487723641
0,915818633135848
0,956020330757738
0,916255742504688
0,9237087982412
0,973690430915631
0,980825953059266
0,943583917642234
1,00642341240906
0,96691803171948
0,979168204933905
0,948194320875839
0,965235790417867
0,96399657618322
0,970455615304393
1,00383513863254
1,06283992276683
0,979497387223804
1,02297252029449
0,972199504995774
1,04198876675274
1,01604561456582
1,01837456507934
1,07020698727546
1,05749026546775
1,03080792451458
1,04652709514735
0,992921820106451
1,0454727567972
1,01451880586452
1,02334406597135
1,01533209014234
1,09211017327066
1,00826690622064
1,06572484503153
0,996756283340777
1,05708927883945
1,09777071184995
1,11654978357758
1,06257788513982
1,12177443689385
1,05329861130107
1,02961111847501
1,06149137564816
1,09798411974312
1,06208321776142
1,14451510969543
1,12019728281337
1,17117163775093
1,1258157145845
1,11985275810341
1,07532879131246
1,08333462531869
1,08920493883979
1,19604316235894
1,10918810212612
1,15077605532921
1,17364472208306
1,18961452788699
1,16315603634618
1,18996050410801
1,11585752916284
1,18265265112284
1,15286474411102
1,1978392842335
1,09048582540738
1,10389250633616
1,09646964260357
1,21645218004377
1,10589405825078
1,20993845124221
1,18436922196481
1,190823624432
1,19666230809912
1,20214009029483
1,19536919189647
1,1714070852618
1,10670155374566
1,21981649273964
1,17330825573085
1,14772708153585
1,14064022964251
1,1549943408737
1,19033478916906
1,22665052966147
1,13862552690844
1,17040908585613
1,19963237385932
1,26489656924917
1,18988433500335
1,1982406354662
1,18216941313064
1,26332688574195
1,20123857264064
1,25027524490663
1,24381089297669
1,24575485296516
1,24065929803445
1,26981246324862
1,19557203094101
1,266773241699
1,24002010271484
1,20476868538345
1,1642501732854
1,28769129183543
1,24815708584818
1,2911044529489
1,27298334318064
1,26266282266063
1,20870428130804
1,23052942208072
1,16308709722556
1,246343611316
1,26868200604206
1,27119788555346
1,23216315304822
1,30391713017946
1,23371646665456
1,25838791170082
1,24746034360839
1,19665972266733
1,19722322091744
1,22679937294805
1,23167992626441
1,24513992449818
1,24968585448314
1,29300763123009
1,21675916676082
1,2530559153706
1,21682328050074
1,28988489161922
1,19495679241333
1,30112576121887
1,23122796474661
1,32269835682156
1,23478519617254
1,27093534382267
1,25638391248462
1,31696769966915
1,33213562152516
1,30328851814523
1,23507074784535
1,1846666542664
1,2608994800515
1,23885044591538
1,299991473529
1,27917023991833
1,15311639101436
1,21121354411597
1,26577178916942
1,32920733281916
1,25831922745553
1,25780293680727
1,22982539124777
1,29598128052396
1,24091195251499
1,31628127887056
1,33097607149802
1,27478321952032
1,2240199235392
1,25447194860484
1,24375299503381
1,31497480328249
1,29432658958874
1,31258211543917
1,21896681628851
1,33850022169769
1,28637297708679
1,35914203884071
1,30113216095735
1,32447007414429
1,22389686266157
1,23287341440223
1,26256136338937
1,27074519307598
1,19598961849041
1,32026933610572
1,24156983415772
1,28795532026532
1,23314743137936
1,26266623976588
1,29816952816536
1,28918900767048
1,23643217982538
1,31501438006457
1,23514760838553
1,26279876310952
1,22687747079348
1,23400794497411
1,26078916879722
1,23335069197248
1,21421855314837
1,26443465297846
1,28544485171267
1,29875957900037
1,27650357500509
1,23222667271049
1,25957118451987
1,2282955038596
1,23679953349672
1,19280702131288
1,22443153084954
1,26758258816113
1,16318150094334
1,23923492377918
1,14672138232966
1,28009905827879
1,1941988238982
1,21090534216117
1,23915433058293
1,2739539331273
1,21889481645183
1,25614073278742
1,17992879754786
1,19870234636847
1,27260629625606
1,21587203345054
1,21745486985243
1,27429358930634
1,20568042251178
1,16802205296839
1,21685021228656
1,21465433560435
1,14772557240286
1,2236871872406
1,19499425165765
1,2509196740727
1,21809496456946
1,27619014020219
1,14090037250212
1,20758469991287
1,15258659553477
1,19104573092729
1,15686425457743
1,19369151998036
1,151927824272
1,16379067523207
1,13780686281576
1,17925182728039
1,1733661577599
1,15275456655208
1,13039890056621
1,12052390243227
1,0992190132895
1,16502722875431
1,17374020928338
1,16126034013863
1,09029937668391
1,15755957271574
1,12484764671944
1,13251268615977
1,09809204891089
1,13968345418509
1,11026064252541
1,11112703322341
1,12984088596132
1,11837079231301
1,05631625074231
1,08448694048941
1,04956174121708
1,08096689735552
1,10697431280272
1,11837815850129
1,020435314431
1,1077475906862
1,0684392715629
1,08582331712207
1,06041293546505
1,0885984778771
1,01178821141231
1,0581225568883
1,05511580777419
1,04730299363614
1,04451917966483
1,05734134330313
1,02705351685673
1,05654495706916
1,02176227955627
1,05392321814165
1,00243414111775
1,0348748293038
1,01250341549992
1,02992905852551
1,01492679581137
1,02227750341033
0,994966299099582
1,04027677503837
1,01666448914952
1,00388927833396
0,982878957233634
0,995070085323149
0,948359113758916
1,01692237496959
0,955157269045183
0,979772374144239
0,928503198054704
0,95596866953679
0,910854894559863
0,946448970533968
0,958330656518594
0,948670338729917
0,912160565663712
0,933550973519155
0,963715944071595
0,93885465688739
0,919601032065309
0,929204141778065
0,899539187405013
0,911278945433328
0,911280664317367
0,886585483371483
0,874549444734027
0,895757959995359
0,891595870213433
0,869637485993976
0,869208481090376
0,88215326371916
0,865651252542979
0,891702279458246
0,848786689873858
0,875499121835866
0,834156797748444
0,86185836071648
0,855015970468583
0,879985699576163
0,822309957946184
0,839899922849291
0,857879954499208
0,856790256379123
0,824295284343303
0,838512703896256
0,812594824795204
0,817054854407396
0,804794671572437
0,808419098610074
0,801084602588476
0,806289558449233
0,779760631773712
0,832039846779405
0,798073259488025
0,798950376089266
0,781755668095356
0,78379757044302
0,763410412358482
0,784171125697436
0,758633346391723
0,766695132870022
0,763502606298214
0,763973168331831
0,760166374963718
0,77259430556955
0,75669182573333
0,751631046525182
0,738442600777757
0,762156130106662
0,727752079717625
0,720469545168556
0,734733330759509
0,731015170558205
0,718338795420238
0,720554396599841
0,716644012977252
0,719176031639408
0,692985356662543
0,709948473976285
0,711810454110876
0,724309964065491
0,689455058535721
0,711475789951845
0,692756636933171
0,687257210815942
0,687445940446076
0,702617662716065
0,682201929278211
0,686527189156151
0,670603239539588
0,685171512035611
0,661980490050464
0,669601031798762
0,654985745650139
0,654777634147911
0,65150863339541
0,662982921079599
0,661705491282714
0,645645302158859
0,637753156757001
0,643349351966521
0,624548129659555
0,635038564003813
0,619818756920928
0,635053022755065
0,621262688660282
0,620001342858543
0,621953180978302
0,621188219593844
0,615018538678712
0,612857947257009
0,593017786639352
0,61867987016666
0,593844082411203
0,613650421091521
0,581764969528149
0,607037047668161
0,591848731256343
0,615295616480134
0,580263801663702
0,589694112207078
0,574161013446132
0,584851764457847
0,582056748682327
0,584789279479406
0,575012847406457
0,572393026848417
0,567210734672996
0,562098634428091
0,555396272477338
0,562136713391558
0,557966197400901
0,560718429275308
0,546884982759764
0,556392485001378
0,545116950409867
0,545405696295383
0,531424382595159
0,549280044752099
0,523716027944046
0,541775813537747
0,529704902023542
0,536830186639783
0,520188750958655
0,532906317734379
0,517781958814826
0,525908803402692
0,516918342464491
0,524077021569062
0,508176746170449
0,510325131629017
0,507080252538617
0,518483200866092
0,501405376104554
0,501148845161248
0,489488891361279
0,498838547580688
0,499889055930622
0,494332991797821
0,483472674775967
0,49472144320914
0,480135058221941
0,477149159377628
0,47057375313382
0,481817211136984
0,472309849845882
0,480870094995724
0,464379864979416
0,473139604797758
0,461104380252519
0,46126525400754
0,457644080257309
0,461607168947878
0,457154477054282
0,461740040189831
0,459738970141975
0,461334406624301
0,45749682747617
0,456807511281791
0,453928555813299
0,452528062153101
0,443123770233758
0,458283440204414
0,447522362879378
0,455049723324935
0,442765996719408
0,454041471951572
0,440985723927931
0,449011941487414
0,433805545818878
0,440172639868706
0,435496897300686
0,449056682510347
0,438089803655633
0,442483064880406
0,441030983280831
0,434620924998749
0,431298416547817
0,449177052306527
0,433296543479951
0,436197411014567
0,429570963086963
0,439052707753995
0,439880416617426
0,447094895453305
0,434606785518549
0,448960615223327
0,447128980905436
0,440964196649253
0,43974252994513
0,444207857440066
0,441342105520097
0,448738815332639
0,454608404134357
0,454458895529294
0,445703039962102
0,451767239941627
0,449505939141104
0,462480652936104
0,458350493302
0,466747351882721
0,468035618087788
0,464866326228643
0,462375158980592
0,467015338275452
0,460583198704294
0,470802057873339
0,461638054024325
0,473867438816567
0,466766403897891
0,477202617522433
0,461565181503407
0,481867915884612
0,482544015622248
0,489132094994726
0,483811135554168
0,498959760428846
0,488062241628035
0,498184729859762
0,482176089202787
0,504421356664115
0,492677629641038
0,501044876175508
0,501090842728392
0,514073034329158
0,495789876076513
0,513359925955373
0,514505920416956
0,525969788908794
0,510965093430905
0,531048234957383
0,52566678412712
0,529293623242596
0,526073410145087
0,541961699983628
0,530762095702016
0,542553497302898
0,533418072681547
0,541800577991947
0,551359419918108
0,555194504607052
0,539693914805152
0,543944731310621
0,548742579751925
0,556335575427721
0,55512259912077
0,559465786455347
0,552610838776064
0,565577043468446
0,550379359613431
0,568555315563449
0,546317053621792
0,569081972731254
0,555934275330388
0,565908175503376
0,560083068212538
0,556190433387983
0,550547761011331
0,551484445664572
0,553691326073818
0,552475321682639
0,537429413930073
0,552387617005623
0,546161467112708
0,548949553915905
0,544733743713817
0,548676742124203
0,54778872278369
0,56565731763824
0,545686879748241
0,55492815730335
0,544025842503759
0,548107229472428
0,545275115744246
0,558441037889336
0,544232115808757
0,547524544146172
0,54956893740796
0,560416875054471
0,548633995309963
0,55205708490812
0,552935792958917
0,550553683637079
0,552164131157852
0,556464281737714
0,545840774778307
0,553810119480741
0,552494316495036
0,555370422571645
0,548510826507961
0,55719657096584
0,551351543989827
0,556707201085255
0,546544017144359
0,563755379781487
0,545808118264823
0,54750924044048
0,542187334385027
0,560777779067121
0,543263153714201
0,549492055844596
0,544091784609368
0,544120060891684
0,528593394845232
0,551819130587291
0,527786363036506
0,535647209668562
0,523092700762895
0,534470003625746
0,531185459053706
0,532043736032499
0,521039748722844
0,528330937519234
0,517923416294355
0,523449530220033
0,512869887193015
0,518019295070497
0,508286936019805
0,505823324174218
0,489707947515685
0,490615337346153
0,490964471412789
0,499868492724164
0,480478342197368
0,482335053569696
0,473530719351868
0,482409778748029
0,463153504115402
0,476258019675512
0,467013949844684
0,46255239228667
0,463644921837654
0,457996674400111
0,452735982506699
0,45460719537506
0,453693553364682
0,448137078497628
0,446654995108819
0,451933631894684
0,439503789329909
0,441290770473664
0,428094364514034
0,440596416231452
0,429696768251986
0,43530076917786
0,42480639575238
0,427857065644488
0,416779379169907
0,426993742483104
0,416881147144376
0,417463740100687
0,416745701920046
0,415603451952599
0,416865693250951
0,417030549584429
0,407962254746297
0,411089227178284
0,40532619494444
0,402031567558833
0,405680658617856
0,401890529673272
0,398328681329359
0,40573766805924
0,397035133911633
0,397001712132007
0,389457307537776
0,399184109422869
0,391036225398379
0,387391248270909
0,386612109816572
0,38951069764062
0,383180449538534
0,386308196563685
0,376179791177213
0,391626085605445
0,378169698743594
0,380868137601423
0,375658986654804
0,376927396054488
0,37471044743284
0,375422434435876
0,367845757425485
0,372534121484403
0,367749281132195
0,373294694268175
0,360665394555931
0,367643730686753
0,360066463680705
0,365132703871462
0,362702276963229
0,362025960836091
0,360677270311137
0,362322253864174
0,354031193823627
0,360740178865675
0,352544081957726
0,360703731188607
0,356338109221019
0,35290071983408
0,349895515022065
0,354764707072593
0,351627746666948
0,351497973459382
0,348526378150265
0,358652680840595
0,349844793839833
0,352088359182565
0,346120409135801
0,352072397050546
0,340618179090494
0,352132728635998
0,34135572544751
0,343544849405354
0,345728757037206
0,346379413905893
0,336203899603048
0,343123670377728
0,343213789019451
0,337719855507801
0,331389114839556
0,342051778513911
0,3341443023708
0,343872256166797
0,336498935424561
0,337327296010966
0,333468252666266
0,338617840030576
0,332599300023883
0,33209202746494
0,327008700260768
0,332165752395167
0,327714146985493
0,332666033392093
0,327366905406943
0,332012799971511
0,326343251201458
0,327300853054206
0,322402472333093
0,328150970819575
0,3268606355354
0,326928602406807
0,322274041425451
0,331412432479695
0,319515046223743
0,323407653488483
0,319603040074787
0,327716595509622
0,31691718063578
0,329659449299946
0,317638954741984
0,319955221838
0,31746829022878
0,323144957595404
0,316884012261386
0,319367197792103
0,314257955059238
0,32177410104621
0,311764491599418
0,32264858191368
0,320664421114688
0,319414201489197
0,319071122847528
0,321546056240927
0,315726454271409
0,31620396271421
0,308399368559032
0,314267811881078
0,313959941621472
0,31630987666734
0,310802748408648
0,31689077927384
0,308412793787618
0,313539861391133
0,311536391600884
0,313648388703858
0,309402842892092
0,313021406448073
0,306593530345174
0,30707675035784
0,307099957110948
0,309475676057469
0,301940505162166
0,307538410363599
0,307217817854139
0,31151502353273
0,305185316252606
0,309896328604272
0,301154724944617
0,304119571126485
0,300001975298098
0,308292454207025
0,302756085555624
0,302913534105788
0,296406681760698
0,301543919564302
0,300754039235004
0,297027598644721
0,299107798748305
0,29923911956664
0,291381018050556
0,300871929525247
0,300605294854506
0,298117653132395
0,295857362353655
0,294835786299916
0,291089447731696
0,295599744142225
0,291076331654802
0,290954918161323
0,289268952505531
0,291684425632833
0,290960155242123
0,290417995676361
0,284609896479701
0,287997089273174
0,283134531786054
0,285348976326106
0,286366320455887
0,289238672947658
0,284301988795675
0,285150788958232
0,281100106456117
0,282200166655158
0,280864559070704
0,285099664880077
0,280898198567602
0,281451237551486
0,276724144831183
0,283329877057319
0,283912007561955
0,27624854882577
0,273007681891087
0,27989546608432
0,272696183431199
0,277461774157207
0,271507936217548
0,277802581214707
0,272280350458184
0,275949736595139
0,271734577387037
0,270824934279182
0,267392411714338
0,274106406790298
0,269393590795056
0,269297733420445
0,265267101245947
0,270985754404578
0,26471928481072
0,265618094348514
0,264168780484988
0,263190310531099
0,262352530438346
0,261157200728902
0,258248424966783
0,257476539026498
0,25806959754029
0,258487020261954
0,25336377081849
0,255270959291663
0,257262116590348
0,25842092000289
0,252895563789374
0,251812859462876
0,253197907658055
0,255100882115204
0,249338861315781
0,253243481292585
0,249850425929425
0,250607522611125
0,243943167121842
0,252099625358139
0,243841706321025
0,248051894430186
0,246102756389477
0,243245953659892
0,245248806240642
0,243858156093755
0,244035302180854
0,245611723236028
0,23824519379208
0,243379277640066
0,241538998291447
0,243324972957073
0,242955395248955
0,243928428265987
0,241061411913608
0,240075798626427
0,236755793913215
0,236011855435939
0,237568582568601
0,240141456344154
0,232208602136138
0,240254356064079
0,239393986657057
0,2363573697
0,234447221728308
0,23438504025468
0,234807771553347
0,236973248327656
0,230658320591067
0,233107608795341
0,236823306436678
0,235917435231957
0,231882263705821
0,23104394454585
0,228395181016382
0,231693744532926
0,232732781679082
0,230974608331974
0,227671696518158
0,227287201644104
0,230084915864197
0,228696978478023
0,224226095402943
0,227996728259236
0,221948239371827
0,223993989005124
0,219590915179342
0,222826044205393
0,223627830891515
0,227088956779758
0,222752929160275
0,221976945430484
0,219406038131042
0,224264275608744
0,21785532254234
0,21929961942245
0,21729795079815
0,224132488666332
0,218352939905605
0,221703176289192
0,220258086906162
0,219933548308669
0,217378911515743
0,220247595959802
0,221965634768468
0,222687315537363
0,215786814779492
0,217280285599788
0,217712890151879
0,215658241403276
0,215736239145645
0,216988504708679
0,215211629336887
0,217979596382653
0,212587130690825
0,218028042013909
0,216219788832885
0,218712794322899
0,217901152559686
0,215322280232404
0,212469364037242
0,217143280451909
0,216237166155918
0,211164027850417
0,215921729263339
0,212917851441081
0,210150566892742
0,212674196850426
0,210709752755882
0,213111662321515
0,21051765815585
0,20727857595244
0,211917316799678
0,209835187796004
0,210535351202941
0,210498939955681
0,208162063036032
0,208090029722706
0,207507949444811
0,208268630684862
0,20643474899002
0,207971873636851
0,204023708410284
0,204771576226971
0,203172966789297
0,203031266460559
0,204352359884766
0,204123121452883
0,204241736980992
0,203558563990711
0,201653861327974
0,204228443048884
0,202765369052941
0,202606068867901
0,197718584565366
0,203709201086221
0,204660365069844
0,200605953495339
0,199078383322987
0,197538478610037
0,197519017562505
0,202413587090669
0,200707133027492
0,201908676074878
0,200690570896002
0,199092374818939
0,198553836194396
0,196508642056602
0,196157157313259
0,19536889145761
0,194727982243816
0,198141102918338
0,195445572343373
0,196467892817117
0,197884614048905
0,196901645318702
0,195523917329949
0,195940295723868
0,19459419695944
0,196729658333283
0,191783984959772
0,194185235944022
0,194525165475502
0,195967975048666
0,195521432081752
0,195492974569004
0,194549614442893
0,194338407735419
0,193161124149737
0,18997660585852
0,188740405139419
0,190645599268194
0,187245705244535
0,190910462451214
0,188602512174194
0,188628537834512
0,188890961772278
0,187688270290038
0,183241213315009
0,188362367860979
0,186817921785425
0,184418293075535
0,181855303689983
0,184354651853989
0,182310994727355
0,180688927854906
0,182980785050523
0,181620430404184
0,182312128835201
0,18305868517681
0,1837734974178
0,181792624097826
0,177427196580951
0,175125206070426
0,176224068227034
0,180250212874332
0,175642706238343
0,175979328028451
0,174384990548379
0,175125805165609
0,174587351356883
0,176075727866464
0,177538182356155
0,176000571762113
0,175294439442977
0,17488003220557
0,173440019235607
0,172613971383525
0,170821639972103
0,177112447693792
0,173354669114605
0,169763076943839
0,17058205919782
0,173181643205855
0,170139857852503
0,168791113244139
0,168947848635236
0,169332940519783
0,168217589290553
0,168337582124805
0,166637236540758
0,167518674459381
0,1698143461358
0,170705307371045
0,168869045290687
0,168401579430647
0,164448760768075
0,16483058700064
0,168712755483351
0,164597576357862
0,161902797668899
0,162801100490806
0,163333506962741
0,16242243365133
0,161755600836071
0,165390416864575
0,164082575221488
0,161439787859214
0,159502979556501
0,160036336519729
0,159459556527118
0,159907144823019
0,157947581544038
0,158522964676451
0,159430958039435
0,160284105242434
0,157190479456802
0,157435012124222
0,154554274036471
0,156762495884185
0,155099945813552
0,15575009055194
0,153490872093268
0,153466992288015
0,152878240994395
0,153339087947213
0,151579166131359
0,152706799556984
0,150736800581775
0,151909577248233
0,153771897430058
0,150840939898243
0,150378729677444
0,149112779324031
0,151456480262675
0,153236749780144
0,151295964951316
0,151844995783226
0,148903018372406
0,150628816049201
0,150642036935211
0,146060536176973
0,147562015538306
0,148008783209346
0,149444014829004
0,149989282534772
0,147625140969049
0,148051121734733
0,150600951705257
0,149249435807147
0,150287127712403
0,147562594250773
0,149540617149785
0,149883417680974
0,153137446490459
0,151143924889769
0,149481073877026
0,147625239439324
0,150791675680867
0,148542923174572
0,148000311042026
0,145959662729384
0,145892205871797
0,139462641958194
0,14144743837003
0,140033771828109
0,145024932942383
0,151770117438932
0,143485346015451
0,13197559565684
0,141136228854007
0,14470191005793
0,144128185583271
0,134200073343753
0,136771891567511
0,131010616217737
0,134464428948208
0,1373819728404
0,137575352728658
0,138185664728628
0,135271673039655
0,137733005339835
0,141017445107748
0,136365476656576
0,142616407602361
0,139789652411019
0,142613696696447
0,137605654238517
0,142683525438814
0,133174404029564
0,144758484881758
0,136812950937505
0,142373370467591
0,133872113676038
0,13955451281717
0,133161667034438
0,136769708004476
0,12982254252068
0,143514017346433
0,12761788543845
0,129038620605199
0,120241685589957
0,13188692190326
0,129190118885432
0,144353220511135
0,134941993142708
0,144265011789329
0,126934249775118
0,131663653260776
0,131206020831272
0,146566959090988
0,135462657882179
0,135781136327389
0,132574093321482
0,141421903749613
0,143531610690023
0,130972054683086
0,138097863163905
0,136344897938798
0,147417245860003
0,129102657339687
0,146506430965294
0,131620256612581
0,146127619865198
0,128016848250079
0,151981030272326
0,129946840203474
0,141153305569239
0,13499013615142
0,139246786720796
0,136914733882291
0,136119564729322
0,134005012178797
0,132877551897184
0,134289669034843
0,133910390059582
0,131915807700373
0,135874601939724
0,133462139268973
0,133111393278282
0,130626679125533
0,135159318465507
0,131242900630994
0,133557819930406
0,130969489847645
0,129945629676564
0,129570131079674
0,130828074508976
0,129370439393689
0,132202251972638
0,130672544040983
0,133769190407308
0,129901883351126
0,1301122524003
0,127774565925488
0,131254260401815
0,130318109428382
0,125801247329361
0,127292420498052
0,12944333055463
0,128945946758648
0,129078958291428
0,129345260911006
0,129569384396464
0,128284664386394
0,131547619585418
0,129521624948516
0,13132083156356
0,130283871085447
0,130450160062016
0,130246656714157
0,130423661589314
0,128346085827928
0,129207640482368
0,128614529275172
0,13167761645501
0,131364126123567
0,130466252674387
0,130231209353767
0,131360513137842
0,130262705756282
0,12966860821925
0,126239587930301
0,128877823731575
0,129823587274815
0,12776179186609
0,128378138670612
0,129119302873059
0,129657383561808
0,131105062507151
0,130214081799583
0,128498986779586
0,127106777363123
0,129224444723309
0,128780470184493
0,128612709913334
0,12743478607212
0,128755980217296
0,128452701264724
0,128205336252399
0,128693636798679
0,12942295601085
0,127486954923509
0,129233661851926
0,128937662677279
0,128560056508831
0,129164765928128
0,125868187140532
0,126081249877786
0,129042266554941
0,12800322723445
0,127741824401583
0,127946879314945
0,127600964047441
0,127234300650683
0,128209267710798
0,128875218392607
0,129977173933554
0,1276468531836
0,130166445280374
0,129347773610855
0,127188939653393
0,13009889204761
0,12970124008005
0,129684172180568
0,129192341027511
0,129604227158541
0,130837539877834
0,130189912120974
0,131035025428126
0,128754200549433
0,129379098984486
0,13233817372779
0,130919639839847
0,13015623402682
0,129712357554063
0,130128211556669
0,129574942396729
0,13161189694554
0,131218141956614
0,130194531620672
0,131067074697767
0,12920032845208
0,130915436032429
0,131020421693771
0,129450043735885
0,13054558696663
0,130407703158305
0,130500286382535
0,128782151640664
0,130825747472012
0,132763437712325
0,131613469619987
0,131921429150061
0,132318759131842
0,131671238972554
0,132982023282483
0,133473325244043
0,130343514855655
0,129707498778862
0,131962076674113
0,13105962611744
0,129966069700504
0,12890910379278
0,129772168620787
0,130315156284383
0,131998365093425
0,132422758321691
0,131526703847683
0,130066462560836
0,129906562985715
0,130813051375277
0,129655155097208
0,129731292907884
0,13445838780904
0,13239787339631
0,130698693623589
0,129639101334478
0,129835610668227
0,131995231003321
0,133061316763046
0,130515663664576
0,133489688561755
0,134149977843269
0,131885365743022
0,134360424376981
0,135078826605244
0,133068007554167
0,133688427358563
0,131344760172165
0,135442922688677
0,135055441045668
0,132666983911107
0,132140168315744
0,134292397503631
0,133743076111683
0,132007380880672
0,134108346661182
0,135000372858881
0,133818121663837
0,133638446713752
0,134995469862373
0,133931094607879
0,131893869848316
0,13299770548544
0,132084347951911
0,133685834099125
0,130550684871875
0,132233486926169
0,132351939440912
0,131389308810715
0,131138866364975
0,131851716371621
0,130561030555746
0,131292161161546
0,132420704523133
0,1312392174209
0,12948823757645
0,131459046601575
0,132082125258642
0,129880647475486
0,128140825926324
0,13087099476742
0,128895627860772
0,127797598541194
0,128424777738972
0,129400027495139
0,128025885208862
0,128523421747317
0,126162609227501
0,127201227501824
0,127397245611051
0,128466352095027
0,127216244390178
0,126696926009079
0,125778353287131
0,126033385865982
0,127393761542779
0,128357661870825
0,127026262623514
0,124324031678444
0,12394144958796
0,129683366112839
0,125446200367701
0,123926527739185
0,125177506342881
0,126712705235923
0,125619472188038
0,125434762210964
0,126905374163504
0,124675976350586
0,122901996372307
0,125716853283274
0,124824374472631
0,124981404933823
0,125576702398184
0,126855682486717
0,126306638962016
0,125792845755804
0,124204131730264
0,124878622506004
0,124197781103006
0,122986370216655
0,121437557976248
0,125020754784619
0,122608033734913
0,124158062780483
0,122869213760075
0,125599876996887
0,123000568314927
0,123385416496292
0,12316773302275
0,120871633076337
0,121380782329873
0,123193042294821
0,121991427583442
0,121478134722292
0,119781452004282
0,11833641425317
0,120257626732706
0,121878511195856
0,119224989708534
0,122406541617327
0,120909803097231
0,121576512983893
0,120678768447783
0,121306426442672
0,118439617822852
0,120153987726464
0,119796404114004
0,119467034747432
0,12185062302772
0,121011800290042
0,118411015749964
0,120885401924434
0,119522155737551
0,121349356392738
0,117759772937551
0,119041539599857
0,118840915623518
0,119079611225701
0,118361625820271
0,117757142031717
0,118096069695099
0,119706943349706
0,118094728983093
0,116776173793562
0,115824234806095
0,118158232355305
0,115151797577578
0,11710849607313
0,116685287450797
0,116030934588826
0,116520267757557
0,118961481450181
0,114649639289486
0,116967999293994
0,119343874444838
0,116176500972673
0,11466143899737
0,11643587759984
0,11491861977265
0,11587480479086
0,112377750574296
0,113622321715875
0,114874217849364
0,117280743098366
0,114910932021028
0,115165640334715
0,112289520315675
0,113152747188914
0,11312172698403
0,112258348155862
0,109913247314052
0,114502972176395
0,111977450497512
0,112957394568424
0,110468689452393
0,111727948913798
0,1085745792319
0,111803186081946
0,111670748816536
0,114743658111879
0,115861631638941
0,109749543242277
0,105361792877475
0,108335980477456
0,107292397243635
0,107562441856144
0,10963023034033
0,108088157991425
0,106129283777675
0,108958721044587
0,106192829396227
0,104424066380877
0,104310470048865
0,103954621415078
0,103839235970886
0,105480340005303
0,10333519802219
0,103811088028237
0,103402805598256
0,103859940737587
0,104151856551098
0,103930126306596
0,102352590796335
0,104115928901728
0,103907905753186
0,102171129024814
0,117807615030306
0,114388309202597
0,103534828736444
0,104213661537113
0,105626127905793
0,104764943583161
0,100575881036687
0,101301895805147
0,103181138611691
0,101897722399905
0,102527496130056
0,104089446436805
0,100975245946686
0,100803269709936
0,100015195443723
0,10008849077339
0,0989829432817785
0,102741763753441
0,099663483029336
0,0993764557011801
0,0993122243823715
0,0985978469147783
0,0991386191605262
0,100006000642817
0,0991816331174428
0,0978038587013904
0,101657820262071
0,108727779003604
0,105495566314168
0,102858155116288
0,0975461368016693
0,0975903541019436
0,096010968518336
0,10038464917855
0,0969704210088955
0,0988831790856118
0,0947883467811885
0,0968845543690111
0,0980830792277458
0,0987344545671686
0,0941163844902207
0,0986717214404157
0,0985090612166282
0,0957934649598352
0,0925918087095305
0,095445921602245
0,0945228920641163
0,09530298066113
0,0931469445296325
0,0995001716303205
0,0953231343896359
0,0998769019581093
0,0911464878213029
0,111213928390647
0,109604420721637
0,102939533599145
0,0949443035548229
0,097602698910888
0,0925544031781214
0,0933449431171639
0,092074844656014
0,0943358282408737
0,0923107616736045
0,09475744065825
0,0937488016607122
0,093056454832526
0,0902835349124441
0,0948117140579168
0,0927165195903282
0,0937798367261537
0,0925890487672744
0,0921011962573657
0,0904360011987244
0,091140124369359
0,10133283900343
0,114160555497964
0,0988451359852194
0,0995110196478862
0,0855964749197547
0,0989292057992776
0,118097299139181
0,0965565408482099
0,0933227295814058
0,0917995675310235
0,0950696764449509
0,090239800407434
0,0937401070137546
0,0884194221464601
0,101334356223629
0,0968817762097681
0,0997071908934135
0,0962680461083041
0,0931300043586718
0,0906290599288086
0,0924959977507695
0,0903089126589087
0,0887039453265591
0,0923336801974876
0,0886826746224696
0,0901496778492958
0,0894751266037602
0,0893231764062485
0,0899646303205087
0,0883588283525164
0,101246879088842
0,096146092346393
0,0905107463701045
0,091261746718875
0,0911022936344059
0,0820773007590843
0,109333341629563
0,10583560119347
0,0953647754795866
0,0918788296842658
0,0896689700979476
0,0921469944694852
0,0903171873287021
0,0890903038982534
0,0877637005802518
0,0901901516681874
0,087782355937972
0,0910787530396779
0,0881320514148916
0,0890970003224405
0,0867300565878596
0,0891946249649292
0,0859440506585951
0,0897405908872813
0,0864085162083843
0,0922273027665089
0,0901891143786885
0,0969232072524139
0,115687649627576
0,115709611301958
0,114387158327474
0,101668947100979
0,0975756148537144
0,0902059798423307
0,0924573854603756
0,0861730974073751
0,0913542214876918
0,0895065284393451
0,0922681266319639
0,0879767981936053
0,0913039699203958
0,0882143323077883
0,0884671170962892
0,0842460522502124
0,0891499599725495
0,08636324005738
0,0878065553841107
0,0861648759908661
0,0892589769862537
0,0853662858937112
0,089758403222101
0,101696549369659
0,0968051022542502
0,0909552756158525
0,0892388514709876
0,136092634580785
0,103017550134427
0,109409723604867
0,0898207987510772
0,0933337835479579
0,0880207153564433
0,088309183118187
0,0916734421275789
0,0979863999070582
0,0850403631687295
0,0897987755171332
0,085553337154386
0,0958933364975787
0,0886118622239678
0,0869971408558897
0,112162234786418
0,130737864476572
0,101022601881613
0,0959364026539232
0,0805011848670257
0,119166922662879
0,117005336111853
0,0966635582256552
0,0951913160817259
0,0946083615882157
0,0913376306311366
0,0890902696007062
0,087060990862293
0,091806796251485
0,101561023043427
0,0883200194239041
0,0928910178796891
0,0883993760067997
0,089606521208907
0,0971371097922847
0,0954760031461017
0,108696683128649
0,10040017422174
0,0920708019245096
0,0990558373909797
0,093814468397047
0,0925008942734889
0,09190612335568
0,0927657890150411
0,0899598377803585
0,112931705142515
0,107422756864773
0,105329224729018
0,117894594715556
0,104027901349826
0,0933516489593646
0,0999893630134615
0,110913481652183
0,106638937740658
0,0828578628388434
0,136894637706597
0,107242466797441
0,138201770726429
0,109884928953569
0,103167265734966
0,0910823997183229
0,0989615792359851
0,0876371659188828
0,100610847702498
0,11812369924163
0,0946581306643316
0,101768538238602
0,0866628461126864
0,123454084980079
0,10371978804188
0,107816877031206
0,0959450748122453
0,0997987071169087
0,0945825475617501
0,127882441531942
0,0915226610240861
0,115824308475752
0,129145571512175
0,142472005578937
0,137719485417213
0,0947142151285715
0,114103444880598
0,136463430124369
0,107637635811545
0,1067110343039
0,0957287189693394
0,111681993938294
0,088913013571903
0,125598049523047
0,136672417535498
0,109789438645139
0,107673615369649
0,103089564290491
0,11128335912231
0,138822350046633
0,111726470632216
0,107831628905415
0,104925511267345
0,10829977859975
0,109117887667169
0,187764627929393
0,109165750010904
0,164820693592354
0,128556494502393
0,151654279761641
0,121019816298044
0,133759499632246
0,110563694801724
0,152191508533359
0,135616522482928
0,127316992478744
0,106421271988796
0,170494676163029
0,132440969203119
0,136164289450193
0,124953896440453
0,126121601927959
0,129165113199173
0,20253284267206
0,196416353218077
0,176790556881024
0,130402199955867
0,149320277156701
0,166335323129362
0,139193591494841
0,133358797768573
0,133607617000395
0,135807834842966
0,133374549087714
0,137030460249283
0,155284328865706
0,136631837263242
0,152555830374434
0,13081225616705
0,157472661115935
0,171201757277623
0,247619968286026
0,174847654424348
0,18241639390009
0,198777809704415
0,186180621532849
0,175897090164932
0,157264535147423
0,157857507248953
0,167650880574507
0,166556310182939
0,166549439750844
0,170512741263186
0,217943593868087
0,173190866007061
0,223956215225891
0,18650343608492
0,196406236927613
0,179363662792791
0,236543153652799
0,357436978560488
0,22558743989862
0,23309510982324
0,204335151057194
0,27417506743429
0,285074378872861
0,247345430039243
0,231883090959073
0,232604687868439
0,228144238686595
0,25449052847955
0,263464904667415
0,275050884254355
0,286739186883527
0,271254975498944
0,276122192321725
0,330323771920587
0,392501699242577
0,39510713825549
0,32614731741637
0,324144498267204
0,346371854644244
0,351838143754166
0,334708918835471
0,348628743158715
0,326511619025749
0,402466248170823
0,398258201538582
0,398980383375699
0,372430470503026
0,402133515342652
0,418215556460888
0,395685428316145
0,501096082868499
0,437183894675168
0,452537677709302
0,418723042698486
0,452902445062324
0,437094784953316
0,465436632041674
0,497436165701728
0,498964786984431
0,480103569635373
0,4909062130703
0,497258551077615
0,505379957960303
0,511394023568662
0,51637146939217
0,517021015431025
0,596144953282373
0,615301356040558
0,912574551295186
0,567705690629376
0,573425248513123
0,521496567645617
0,557331558939097
0,59797309709585
0,597068372455925
0,622530255990898
0,578737382495591
0,565483368818228
0,560699450183912
0,569350943195063
0,561987104150118
0,564760214820833
0,564655612912753
0,554388093492162
0,614138388791249
0,543257095603201
0,697128423452767
0,649232107166982
0,607322025497016
0,555493854168155
0,575774226501428
0,547477255194577
0,582350518570223
0,538949974090382
0,607014411260919
0,575392294418367
0,573775492628921
0,554840459650692
0,542486692833306
0,584771252889584
0,566623127352555
0,519639397976879
0,520097519043559
0,507746482603307
0,511056428535177
0,473313533820913
0,548194761393046
0,536584493092442
0,501281874074188
0,475066555317153
0,477884773644016
0,467415142917758
0,473501272273769
0,457553081369104
0,476170626539756
0,45441602068206
0,461121015472968
0,452193024929284
0,44768267022831
0,440429337913533
0,442889130362402
0,449475836032979
0,439344181255339
0,436756675904901
0,43748042376796
0,435169277681682
0,433713683171358
0,428657580862619
0,433978647048889
0,43148643809347
0,441617710963867
0,431877154406426
0,432578020282578
0,432005212589259
0,426418155240042
0,43628031437287
0,434372240818059
0,429746623402774
0,427391238351979
0,429075631301277
0,431379067120697
0,428972913224375
0,430503614057807
0,429734364172308
0,427357886465333
0,43019077487411
0,420406458446679
0,426920990016829
0,428104314379348
0,428327897324623
0,512817735378525
0,450615370814646
0,444894044402763
0,41497502823056
0,435822813859011
0,409132593252153
0,424277186548918
0,492341543062114
0,460494555565718
0,418424849021895
0,419270578206213
0,405043596025649
0,453259663932318
0,417722808866034
0,420605524270351
0,411167185853476
0,409511952424989
0,485715497541387
0,477907168340131
0,606702179325848
0,51936503862685
0,4470039692515
0,396416248370759
0,452429110384818
0,44625247294786
0,41828644803426
0,404677384639414
0,39308557444972
0,474781352288368
0,415950369753289
0,414027371006979
0,396802388541444
0,395196746226817
0,443585417042258
0,451204311445324
0,422192206096764
0,455620598092465
0,442706475769299
0,434994297918412
0,494633939224981
0,527947730101315
0,430881677594399
0,384094898860508
0,387809341050567
0,376476032190702
0,41266987287749
0,447353090108577
0,385531745513571
0,406614631443975
0,355101930907926
0,373469709872991
0,362469863101894
0,412531271291663
0,355009595612674
0,388220770270004
0,406798728025407
0,354009463422483
0,375750053816577
0,38202820729376
0,450883544429173
0,425676894967919
0,360425380682787
0,330184609907985
0,409327108059333
0,388318489086056
0,361156735841445
0,361595830034043
0,312162969208274
0,343621663996172
0,348887633915973
0,312497381828106
0,358586500730979
0,335832616712201
0,37865044491594
0,409734472452797
0,42429496170525
0,390451764597058
0,315769193037708
0,296689055922685
0,291054907994957
0,304012718669636
0,293504567077318
0,280289254611795
0,357831312297525
0,283148641536344
0,315641171926495
0,337497235444545
0,300265908100025
0,294371052158535
0,288067216107271
0,281812868332546
0,305350880566961
0,341237813937678
0,374688643896406
0,309159870001191
0,331734087470002
0,328005797417312
0,317252293426137
0,306831927686806
0,307460607088557
0,309108988248142
0,32087285913882
0,331658650930663
0,328898055189822
0,329655489936111
0,33646321698207
0,328863936565636
0,40223933513865
0,367589300487607
0,361843660319639
0,423010893673674
0,404035529230433
0,471880196135647
0,395030467944618
0,399780669050986
0,388709885541146
0,402125890720475
0,407338310656189
0,400784705776787
0,446996262124263
0,453279020730488
0,429943761550677
0,44326095988883
0,435443719872638
0,44729466755745
0,448391909821209
0,513635753643705
0,470277772191361
0,599569339953053
0,501310266809707
0,510853690455467
0,467950205017718
0,471144521390274
0,476407104920617
0,485445407995239
0,473365913691082
0,4718006444129
0,49242462521087
0,52003888155676
0,479907276468071
0,487897081874328
0,481165902228284
0,491795691265585
0,475405032395601
0,494093049329046
0,492687758256835
0,494164177723699
0,50085473074576
0,499603378149575
0,513208419614705
0,600767244543384
0,532020958646619
0,525932812443678
0,513756276482328
0,537675834267292
0,526205590104581
0,530627262780572
0,556720339922054
0,551676927484826
0,54454228526841
0,541472568182903
0,541113571733682
0,548421224621341
0,566437426283042
0,593436230849194
0,54787222511064
0,585561626978742
0,541883168206052
0,651048989443663
0,605600042120611
0,620681274252141
0,59366899224373
0,590194752723862
0,579182884904881
0,588244982728598
0,586993784373957
0,594641861848767
0,591590893812591
0,593205598265824
0,589104345666744
0,586805440515177
0,594641049779933
0,589972824180695
0,599020908854327
0,629665732838378
0,595553449776862
0,6049745946227
0,59195884407759
0,597571991181767
0,582061090381732
0,637741080309632
0,61336263410152
0,607567637203036
0,592056493772111
0,612600594111826
0,627324656820222
0,61982699580496
0,584077125257478
0,596487262892252
0,583795134435466
0,600972345826676
0,578873383153985
0,624551197159929
0,631361163330001
0,610437531111715
0,60732230476352
0,608008668846811
0,598985556834049
0,612294085643373
0,611992462744114
0,616729749823271
0,624457584259229
0,621333818102821
0,631330393995068
0,622798353184197
0,627752403295113
0,642880878868782
0,645874733217424
0,64850604518035
0,621034646155856
0,628627744306165
0,619300660951227
0,624682295242134
0,625664387042886
0,624260935015896
0,605343094023385
0,61124021266678
0,598366457847242
0,619080883533305
0,650166162102115
0,604472042088575
0,618860941250677
0,594719857018195
0,58117684195036
0,584406262588866
0,583047859311023
0,574199043602569
0,572433285640086
0,575833976327956
0,563003480664421
0,564367356246733
0,551629715469729
0,55743533657436
0,557835942821537
0,563764223282065
0,545974165197003
0,554770938542855
0,55138969151389
0,552364275850274
0,5492649467848
0,547492995630303
0,548211761961951
0,545715040457199
0,575897319958529
0,581247271686992
0,57615783353176
0,553320047385036
0,562524244037608
0,561456987450239
0,551311440284254
0,5483886392632
0,541874686916885
0,544449180957273
0,540844760195997
0,55527120736255
0,547859776341569
0,542529780278915
0,540157013068677
0,552458221408376
0,541898148292113
0,552646340727362
0,534498034221118
0,550585594321358
0,538813223650094
0,546926141454233
0,535826469684681
0,557589801340731
0,542420311937796
0,554674448869749
0,545374220202198
0,551104010400376
0,549475520154234
0,553463466049549
0,559716629911028
0,547943246003692
0,546876107974212
0,547526239442419
0,543516204461455
0,551557316611318
0,546767234200395
0,546614721861529
0,541885712427729
0,538281223097068
0,539853507976961
0,540728295963871
0,531734260391824
0,53275349877166
0,522733286464076
0,523041090007204
0,515522593673849
0,520674149218688
0,507542693159404
0,504313279859209
0,499906863666881
0,501908078689952
0,495745674096193
0,493256571046934
0,490637366856783
0,488672494511632
0,483991696160811
0,485466700138379
0,482942759770403
0,478595608403837
0,475501418216388
0,478736954413054
0,472720415962164
0,476461000807571
0,470428559072317
0,473587147078429
0,472755802722244
0,477794463283068
0,470148402224101
0,47530840147846
0,47438700383709
0,475321596229583
0,475393210823663
0,475908771403788
0,484057491944944
0,488450747741834
0,484120211475915
0,487420466903131
0,485463645970454
0,489596802643953
0,490938959368843
0,490257633478372
0,494924522697508
0,498647516284181
0,495015551814418
0,49547414776801
0,501485440026834
0,502689617110038
0,49518605838647
0,503647842481706
0,504029269442269
0,498936799865501
0,498305856385891
0,506617853118056
0,501396339863812
0,502513501281532
0,493902068403756
0,495956866991723
0,491716699333306
0,495397552068538
0,493629963982437
0,49035299715344
0,490440165699268
0,495750927464008
0,489739442483972
0,485601039939668
0,481100842522086
0,482385548625141
0,483976710964511
0,484373632164815
0,481628066122042
0,480834597189446
0,47476576526332
0,476778920983193
0,472261109554613
0,474256821356881
0,471813581915915
0,464048600554552
0,464278241608759
0,46965374462832
0,463296078020309
0,46539600918586
0,464642486550368
0,463868747385218
0,45959425798341
0,458468933191845
0,456532300781976
0,460472927481853
0,45546636029933
0,452270103811573
0,448620588403704
0,44931123343592
0,442638355672517
0,442008194766141
0,43905985702943
0,439158228397609
0,434075353936992
0,430118870102797
0,423255444277464
0,422081413754936
0,419695068429005
0,41658611457338
0,409687018172178
0,410975995771889
0,408198899788342
0,406568139497344
0,40536889781609
0,403314631842942
0,401416956040533
0,400198950789471
0,399261840115574
0,397902754513587
0,392735697862634
0,393975018071837
0,389860426664137
0,389866212996514
0,384023482212452
0,382481340247423
0,374725023401106
0,371614090761545
0,365539618701253
0,36333250719472
0,35848930055595
0,354849462265402
0,352432475893906
0,348598030403314
0,348452339683809
0,350458894938904
0,351309801359562
0,35745588489943
0,359547966645409
0,361591248084408
0,370601069464193
0,379213924113787
0,387827526421379
0,401331291659652
0,409843988032743
0,42682269256522
0,438099451828136
0,454862531128917
0,468033785295406
0,485288499315004
0,499715280648685
0,519911337409585
0,532939417073498
0,546798176081793
0,562854764629745
0,575747227413862
0,59403685623547
0,606465981632492
0,623084433213312
0,636552954050475
0,651323553574687
0,665620690473733
0,672544931176102
0,68653758868026
0,698038367614175
0,704039838415864
0,711537694131045
0,722190503000655
0,727099222224379
0,731939415884625
0,740051105618154
0,744936013062361
0,745957597354084
0,744488575975024
0,752719759749134
0,753570950744464
0,750747923487931
0,753587716318456
0,753302508828616
0,75108752866839
0,752504583509395
0,754312501266596
0,754649949086749
0,761333781663351
0,760325763032898
0,761207230538009
0,764683065890907
0,771241999676684
0,778333729015654
0,781568738669686
0,785342284092524
0,793045594741372
0,798118740537372
0,807642930375613
0,808383040683025
0,822708935855087
0,827715388154261
0,836454450539858
0,84333485179575
0,859744404506653
0,873829542892988
0,881314593045793
0,898036359815272
0,89939477596088
0,902264519259774
0,916073708261688
0,928968699098521
0,940553021480577
0,948244468570673
0,953945506610558
0,954796410866943
0,959404678576906
0,955041552938856
0,959823719343823
0,948706206672458
0,955260757502593
0,94970727457786
0,945271512823665
0,935615375252753
0,934860773663782
0,939733976532225
0,935583270303443
0,940957779545099
0,949902413291939
0,965329036910118
0,980431100813378
0,979522905127026
0,992756519239933
1,01437291661293
1,02145939696769
1,0424510625134
1,06646515989892
1,06513350612937
1,08398090347846
1,08578891284356
1,12260659724709
1,12535205229652
1,14567687439465
1,15096064857594
1,15831187684584
1,17125760772559
1,20060699423531
1,21262694434859
1,23499271506786
1,28044354503232
1,26888285946666
1,3059475877967
1,3188370549748
1,36682761038743
1,32855747999219
1,37785467987919
1,4190168968781
1,43816497037684
1,4237641053117
1,43029119902465
1,46802342901232
1,49753919534175
1,47619759978331
1,51610718246716
1,51791163395953
1,55884478814087
1,57930078451458
1,54413004759122
1,55673200705311
1,60032804393785
1,5467613568005
1,55967737097182
1,5711393020346
1,55036655236942
1,54365447122153
1,61737238194687
1,54745088949431
1,51053450481541
1,53320313698744
1,54415014353877
1,53808804626108
1,60289231565894
1,60243856998782
1,54324924854279
1,56588449396664
1,60353625771066
1,56528266258666
1,70832844840569
1,648834327805
1,70256651080769
1,66472702469402
1,69208268137101
1,65312177441971
1,6486842562709
1,68832782370182
1,69433053682602
1,7297304023025
1,7835443673776
1,76158449495586
1,83134485951142
1,74578190003606
1,84020718583551
1,75251372011848
1,80730948250569
1,73874304096506
1,81732635707442
1,8405202049258
1,97014924027762
1,87250644127605
1,84521644869986
1,94315063601665
1,88067295143202
1,78099886103029
1,87554309746434
1,83071438291448
1,90308698853286
1,81674217594963
2,01343152275232
1,82397151727376
1,83290603625958
1,94717576150276
1,94761855885199
1,87790899665891
1,85778072500434
1,8070856085473
1,87399815623969
1,80972111069713
1,84895111733105
1,69149525239763
1,75976630322925
1,65358524149395
1,65545819518527
1,59142404629452
1,59577792154413
1,52703284734939
1,512727138284
1,48402726995087
1,46655728423072
1,43679481084
1,44060652127526
1,41037548222217
1,43989031860336
1,42438379923819
1,39306192123992
1,34863576682886
1,37117245583737
1,34525480044825
1,36594371279361
1,32377418786309
1,34360193003679
1,35021664187507
1,34711444167578
1,32619285403697
1,29137604751864
1,2875804331433
1,26603755090943
1,24036400136612
1,23957884030101
1,17348736253571
1,1831927961242
1,17241805095236
1,14949972405172
1,09478267826247
1,07556735704824
1,04200871492817
1,02321656390256
0,977689073671824
0,957394144008003
0,92108551809412
0,881637309393315
0,852903329483793
0,82031917411031
0,789114172086334
0,767976696700734
0,737902404705095
0,720393372048133
0,701689783080027
0,681083995880569
0,654294293631821
0,638455483728082
0,622919949305287
0,61034418264623
0,603613555139848
0,589018701717369
0,584611526466062
0,579084839905363
0,573116462991993
0,571884944053425
0,565763062994753
0,570393946635537
0,562951703663142
0,574466622406914
0,566311761700278
0,573218047811394
0,57040373144982
0,567977332203178
0,568000730336303
0,567245290764928
0,566974217735156
0,568422957609455
0,56169730513324
0,553115720634124
0,554400531778481
0,553420898121653
0,54253120870442
0,547150754454488
0,534941158134271
0,523328128809908
0,518536377721103
0,519736639779895
0,52253331313991
0,519767968835698
0,518389147248646
0,515148531616027
0,517165271212332
0,520389362472804
0,523298040273256
0,530104155463788
0,53717371294543
0,532156235718868
0,534368165380715
0,537987351139585
0,537742328317472
0,541518794573659
0,544511390302278
0,549193210783614
0,541919834374141
0,559055311052194
0,552088189202962
0,547943508256696
0,546719764972272
0,545508220228554
0,548924326625206
0,551713347215725
0,546868499178686
0,547373962962827
0,556353272380995
0,563311502163145
0,55878962074523
0,562852171674839
0,571310293030193
0,566676362875726
0,573861544949451
0,597676830274735
0,59760009030216
0,610782330065326
0,618694270889841
0,636785234360958
0,652281677225635
0,661081412502378
0,672150776326418
0,691103145410662
0,703232238838708
0,706394143483958
0,701968604879388
0,695576522097293
0,704459562691782
0,713190318063457
0,689744147694822
0,687205004693317
0,682291378203126
0,670684266489591
0,660566301503004
0,657692071669372
0,65385841692348
0,657608220112265
0,642915958664684
0,662902393812806
0,662684806580044
0,648059323657367
0,643812470654462
0,652510778356786
0,653984514184831
0,660627823161275
0,654652889058225
0,646454374075184
0,643910295993178
0,652478590867017
0,639723941856742
0,636364869678759
0,62253802634555
0,612447324722848
0,613407769091349
0,616540570216619
0,612129904630254
0,606727218568407
0,589172795133156
0,59789644689603
0,611300002166775
0,588604483194089
0,583973425603531
0,61064973656126
0,602487307873106
0,586326299000642
0,57697066463991
0,591879888144371
0,580442433141756
0,58034608948556
0,577600633477965
0,576137620359486
0,577202237674681
0,574241676388163
0,568258660896714
0,578770565449812
0,566774274471528
0,563542552132152
0,554809701131243
0,555181654919755
0,565664371204602
0,547699359734312
0,554491501017083
0,544120648457492
0,529528604045433
0,537051820619163
0,5290483040435
0,549152855225014
0,544177361398779
0,535216393127382
0,533891400464838
0,534581283667112
0,541773587319884
0,54553844712975
0,520183807171497
0,53122331473451
0,54541142960052
0,536284045016161
0,545921079860041
0,546435221688725
0,545117244577273
0,546476492734107
0,548467670761933
0,549843326563443
0,534171359970546
0,549883340217481
0,541545974592832
0,554733478670249
0,571771298193234
0,539187815967533
0,539360469656007
0,55691599024214
0,545679683816577
0,53409834798409
0,545453694243588
0,573999907336786
0,570053266629735
0,574766714417577
0,575638744474536
0,591053098039076
0,590895826312381
0,576050736685133
0,597499584928935
0,606558241775626
0,617885915392586
0,637112578977876
0,601984638417682
0,65027763546898
0,634368752348315
0,6514924701153
0,706108062739637
0,704479332201225
0,717210230040994
0,741260498422272
0,740257407471672
0,721369800270937
0,751763548660151
0,782984852576584
0,758512939612025
0,826097440999521
0,80513374399054
0,844069075042471
0,90769258682008
0,835576624060642
0,813133125569164
0,883511515160736
0,840370883317093
0,847894756641122
0,869643821506781
0,875474947484174
0,85757972289794
0,882362380836159
0,855565587884567
0,799092221855161
0,80697356033522
0,828281971992684
0,848371450160135
0,825465975184012
0,841943984811714
0,889449440006359
0,837696584306316
0,839451065392707
0,868129094413093
0,885549373205279
0,851326905190908
0,81213310977285
0,785119012178469
0,820579389170365
0,839081382442999
0,783086318240702
0,789671675669845
0,828696359350342
0,796158639250248
0,764691293362302
0,789329643001807
0,839027710336534
0,837320177672114
0,779772845053598
0,763844158171338
0,805267732183835
0,789351909969553
0,797247237284757
0,791466986375801
0,802386818563781
0,815285693446535
0,808935173385531
0,806246844745482
0,812787185022956
0,829503432211597
0,871389575060807
0,816016373677832
0,782618905648235
0,758657693726597
0,819289993963781
0,832786678150092
0,819277535559265
0,785449742061894
0,726758591116723
0,771070431360576
0,853224899828776
0,83794074154131
0,810730781686855
0,862405251169429
0,832477588415608
0,825544588852216
0,829577769551412
0,792003294818694
0,89981893931722
0,861575187506087
0,896055094419617
0,824195511228797
0,892599852904247
0,931138961503714
0,819103697998968
0,819362213383725
0,824455529572889
0,953700607877018
0,914438861635317
0,834570306834289
0,994960200946703
1,0593116567359
0,987903877496168
1,07790533193867
1,05231034235589
1,04285764143261
0,993363730913123
0,988062942417512
1,15983645190556
1,08298115603859
1,02674845498835
1,05846495903799
1,03233889705546
1,00961389718532
0,972441471340899
0,883912120101959
0,957551304339692
1,17924061081098
1,02476929148845
0,934835685490539
1,06290750369347
1,06433483472448
1,02761158421751
1,0218931235324
1,18353602214223
1,02614837927458
0,916230192252307
1,02249545210714
0,839117174945155
1,01790030886985
1,20741829748853
1,22851707038687
0,978294402174009
1,06238548399506
1,33189559733352
1,17586318694807
1,13604432166827
1,0900314807402
0,813601527522677
1,00245197665448
1,09538585799415
0,857764328140341
1,03052449264043
0,813765209844157
0,845424025583231
1,11882202090311
1,36353775934759
5
1,35494317470157
1,24716059929848
1,00419965326755
0,951410159855143
1,04587093309891
1,43942836481191
0,851740622788084
0,884181890095654
1,00641113927428
0,811150882457956
1,22679411789041
1,87837101675
1,8337818146127
1,61416180059665
1,81652283019439
0,503269702252759
0,72074019942738
1,33810716488344
0,64538650541687
1,51367809993634
