3596
4000,36533379555
650,420452594757
1
2
2
0,0658161067385625
0,0692106459512416
0,0593412363029499
0,0746565177690589
0,0614019091338856
0,066016358525003
0,0632886772017467
0,0750450960821794
0,0504880417971127
0,0726178885658393
0,0577225891491317
0,0721548616433624
0,055066789189796
0,0653050902101015
0,0603632467432415
0,0723739628293668
0,0649539910417051
0,0676260573187697
0,0570142257191395
0,0734634875746528
0,0565264639480852
0,0656390207855943
0,0644083521310674
0,0770143457022093
0,0612317405465575
0,0665004637786511
0,055206908942863
0,077770141581716
0,0678097093159352
0,0702146852313691
0,0605993859156621
0,078742672552024
0,0636678985968393
0,0615537945101386
0,0525056500974244
0,0678970381726972
0,0586408169777912
0,06892085056025
0,0592273457037306
0,0737373599419979
0,0578840304640604
0,0567974353762664
0,0591056033411483
0,072519690429972
0,0578595222418464
0,0693082116884517
0,0553233802052185
0,0736723588991279
0,0537274979248557
0,0676154429237211
0,0614235957101969
0,066985428187582
0,0628208481270854
0,0728813974055443
0,0656713452794028
0,0746819365583257
0,0510235981539673
0,0694554411475106
0,0558929811993755
0,0734554877427571
0,0731941736066521
0,0647283142797497
0,0534358118402201
0,0717318726430828
0,0632772198992203
0,0694078238658373
0,0501909518098259
0,0650085494484834
0,0563726623524093
0,0675059266088406
0,0604411442358846
0,0814284733233801
0,0549435736989632
0,0692835573000506
0,0610392402670074
0,0648386722837668
0,0523779090322417
0,065528292049951
0,0560607119555223
0,0759592688321204
0,0633897927628893
0,0659223716893569
0,0516279206617661
0,0614123056216305
0,0601751699757727
0,0690529293534879
0,0500563067376591
0,0733427472373173
0,0612911642843994
0,07081791134195
0,0547719819593244
0,064299736459225
0,0557965690038346
0,0679734631149285
0,0520480230361265
0,0604392447431581
0,0516758261563812
0,0558576250858579
0,0520012019852306
0,0746606303943684
0,0730970653202639
0,0864264013502355
0,0584410736896519
0,0768499679113994
0,0819667922845715
0,0565192700890045
0,060403368232143
0,063630892715253
0,0567489455103761
0,069270357856133
0,0515319743129053
0,0666752264183728
0,0499686447858381
0,0628075499785228
0,057685100906414
0,081719078463044
0,0499100593026683
0,0556046083905311
0,0498467652058112
0,0715342385792238
0,0550870994709916
0,0910677043359216
0,0512644254454575
0,0600214447728257
0,0588387285386171
0,0649860657647855
0,0637168916113396
0,0837701128902321
0,051182237602822
0,0639508906345537
0,0495038930954121
0,0486567644086157
0,0437765429804703
0,0679380015760728
0,0702643883824133
0,0542468896256476
0,0591194542910206
0,0752144831296451
0,0775680966102277
0,0840696611096473
0,0549170927877698
0,0555071375592998
0,0549861882727361
0,0795283057610056
0,0662886345528454
0,0685023519615102
0,0574480374293237
0,0662962595338446
0,0450028241976901
0,0569087406078721
0,0553271119175769
0,0670938145510675
0,0640448077096933
0,0580301853429554
0,069013212019269
0,127235662907534
0,0563757695327383
0,0788292008514222
0,061535973137176
0,0501491498489892
0,0586986281763696
0,0513337368365788
0,0512576421190058
0,0505652884589323
0,0526346551203349
0,0684239399967421
0,0707488932948014
0,0631768528728877
0,0509846897629722
0,0711103338137064
0,0584907291134671
0,075070172405588
0,0735090342380013
0,0829170946083464
0,0432507380683433
0,0716041024302704
0,0737744110783731
0,050788471295407
0,0540958414168196
0,072344128912324
0,051636267895121
0,0589322263761881
0,0580456920082375
0,0644147259835717
0,062760055137675
0,065020268833543
0,0503008393438505
0,0573148427617528
0,0558917829754815
0,0675568802826948
0,0781213963730802
0,0676775282531625
0,0518108838303746
0,0632729518648078
0,0567631805575505
0,0706091452060022
0,0731199229597178
0,0557096679462908
0,0523054062495124
0,0505815973732634
0,0428391696458121
0,0520851066241388
0,0535469610273975
0,0531971301049474
0,0515291729406739
0,068783821756669
0,0731149123704166
0,0490932293552879
0,0456626741913134
0,056679518081669
0,063190118756437
0,077005399267285
0,0666180582206898
0,0501321352094045
0,0541562468666017
0,0529757758507551
0,0533539472528193
0,0719480258873744
0,05601347334341
0,0544748254521758
0,04765291040351
0,0518314131861447
0,0504299692135605
0,0517144243813327
0,0570816896011981
0,059282035601387
0,0496999622738767
0,0583910130601234
0,0561466060801263
0,060046853813803
0,0597934348990866
0,0578181314473357
0,0489084334061324
0,0557785577471883
0,0551826769972491
0,0759812491300302
0,0527412086882912
0,0489439594701343
0,0522338834923736
0,0532803074937612
0,0501710419857838
0,056175257098296
0,057790836587877
0,0555118000036273
0,0576258331266769
0,0746276706307769
0,0643263388523551
0,0491259901711363
0,056498363601065
0,0636332329597323
0,0754067092869803
0,0591632247044082
0,0538164029186982
0,0564934426101964
0,0521900277737406
0,0605826135530525
0,0666396904719039
0,059667650319383
0,056147788612561
0,0665888353892043
0,062753867927229
0,0580490823608882
0,0538738618745948
0,0653894162040822
0,0841562680494983
0,0810857323851923
0,0620672278832472
0,0894619534867089
0,0545696842331681
0,0508428762185699
0,0588671661930179
0,067929805679745
0,0863822917580779
0,0856120183609099
0,046709611876182
0,0576620191663968
0,0644723291661842
0,0634727365053293
0,0566827525585335
0,0662761337658473
0,0654732847835414
0,0857524319922141
0,0888588735454125
0,10225894601031
0,0656131437289436
0,0594660351511073
0,0817370329035245
0,0643683456896852
0,0604936109431672
0,0596593677481394
0,0528441423069077
0,0643136635507173
0,0673181394470175
0,0659558763888022
0,0645681591222347
0,0624148033460573
0,0686497040655112
0,0781053333300751
0,0566282499598283
0,0661139498189749
0,0691568901231408
0,0691454713868543
0,0576556716824591
0,0634694605224064
0,0615675114157498
0,0702644354493858
0,0669771886480635
0,0869704143191616
0,0755481687685617
0,0634808009370946
0,0733303418333761
0,0657406802897982
0,0516486587121725
0,064926950233414
0,0637302060113989
0,0638867638318617
0,0621593410108552
0,0667422699296035
0,0744014842491091
0,071368692197654
0,0544093575209429
0,0670853824753567
0,0652757612575681
0,0684181667988259
0,0665343936981188
0,0639386547005752
0,0637316452167431
0,0697367122253869
0,0628086217093073
0,0715366858723221
0,0873445828146483
0,0796690000142127
0,0806475995388346
0,100428244060699
0,0632988739058249
0,0700808245913438
0,0756925492246156
0,0751741876309149
0,0744841418790631
0,0801260914147593
0,0742982627169318
0,0802115771144716
0,0855343687404516
0,0884494653399802
0,0800983988598798
0,0873998812453104
0,108873342929435
0,111543744550574
0,0861219838937649
0,0804652825914561
0,0791729580700091
0,0982574147122063
0,11035297144364
0,0965749754735215
0,102769172587147
0,0849359780072191
0,0818539465486712
0,0928409803646215
0,0848476003956825
0,0941887637296189
0,0948955137990396
0,0942961157247408
0,0959451245229479
0,103123722615032
0,100666748544527
0,100205047258827
0,105858865598919
0,126119005070584
0,120159615984697
0,108179730537178
0,107927950765905
0,117217574819825
0,124862733991658
0,138689152300737
0,139572142396431
0,13986500773861
0,139412315719517
0,138667953618952
0,127897384488052
0,124137992856154
0,12557280843591
0,123418498845685
0,132099263680938
0,134263087531692
0,128162867204023
0,137624476298574
0,143974461715525
0,147290043760592
0,144112822788956
0,150267242548305
0,149940019105572
0,153894855448331
0,158742342743639
0,15048960411794
0,153606464669512
0,174062085912592
0,203297184725247
0,208630219589306
0,160921799889142
0,159685931091136
0,172711277238838
0,161414368040046
0,169754975611491
0,177263809653525
0,171668397330889
0,185316477623229
0,197149872511212
0,202530090336321
0,20194952780375
0,202930195383941
0,186071344447882
0,202823563927159
0,207172475950637
0,207246681086517
0,219835672656374
0,216346582715486
0,208588132530031
0,216352593071718
0,232158037264518
0,232335773849188
0,234836463470847
0,214004881225142
0,219011706951737
0,233294851469241
0,228649592483235
0,232735134256543
0,233348560415182
0,2539877881936
0,24578678265863
0,2341173700699
0,242948436710717
0,25518470789912
0,268259001909183
0,276383666093709
0,265967433727307
0,26754715487346
0,272116326650396
0,26088337637871
0,254412925033277
0,270982829176184
0,314092198016927
0,317218991176143
0,307025557407215
0,286526813141247
0,275872616978182
0,289937563532988
0,297409196284997
0,293546061646971
0,294804378011178
0,303521464393836
0,320457307241563
0,313324742276622
0,306573269141182
0,32336431837686
0,320533435175961
0,32823540950787
0,325649485303538
0,332276992268328
0,340761559521405
0,341563819606092
0,343550824613365
0,357363451651904
0,3934461056071
0,381566053435851
0,40518404481753
0,370224763590646
0,352840982301355
0,355333896016822
0,355195162653381
0,364896578402963
0,389611357072348
0,393273442849828
0,393565685686798
0,394378743961349
0,397886943631688
0,404853369200159
0,405007143740186
0,418103216515989
0,420895256443806
0,42294362747765
0,444030083332472
0,430335465267738
0,438116344129909
0,428651311327985
0,431749656064449
0,460053974645466
0,457069426989117
0,459456935624586
0,458311466629046
0,444727048376278
0,45419468236873
0,465266671363076
0,458852251913344
0,456982128908917
0,493683468827776
0,491193083265216
0,486927438285545
0,483625273763729
0,503026265187635
0,514392947884579
0,517213578762125
0,512504535925578
0,509159899082673
0,523937451658395
0,53915203722101
0,524228950087487
0,540137373206932
0,534862654872362
0,530952592381507
0,534162686248279
0,573439615924232
0,584505673336224
0,582536617210245
0,562215354608068
0,569188474364196
0,578030304760735
0,602946491473465
0,589538108957981
0,603547180350943
0,589147124674992
0,576587405738816
0,572652269852868
0,596589711687539
0,600522907244393
0,630350171516037
0,621563378275948
0,628873691948726
0,630941727154553
0,609293808574595
0,625029058951714
0,62089956222734
0,621117138457091
0,642351508087296
0,635120602421199
0,64390755774308
0,642911188095173
0,664562435764529
0,666069350543279
0,686981341799294
0,663330939286904
0,6919899041433
0,701543110259614
0,684743675745613
0,678034296190833
0,705475268622452
0,695498382883612
0,725161859885413
0,693187954720299
0,720650673712745
0,721437596577779
0,714732218030264
0,69754861800228
0,708668874916992
0,719250560840529
0,742156450172617
0,764346054531528
0,739628224428795
0,706934592584425
0,774535124695469
0,778451332159539
0,768672613686048
0,759816461016842
0,766694576645433
0,738139311154302
0,791277477535833
0,79219651737047
0,76476571493121
0,746536394195359
0,797546117680603
0,78120379413689
0,772724710414427
0,777867744536738
0,867744987332739
0,866948133940853
0,878960466212434
0,846216710984173
0,841086834241983
0,870396754851214
0,857178990057953
0,817879190850687
0,885269368073983
0,888577522283949
0,867391550625362
0,873476302314219
0,916326106038393
0,884741031977973
0,873088074534779
0,852239702048947
0,900434199899383
0,928019915987801
0,924231788441642
0,92883523855439
0,956794509212629
0,937192004257371
0,904848746317871
0,878682453313624
0,938009852319317
0,92996720516662
0,920226751584399
0,909156477996733
0,955295567063914
0,923144839906305
0,923541104939947
0,902720643870145
0,953966759659523
0,940740556646494
0,97066853354054
0,995448367142984
1,00150043779916
0,93126379487794
0,968932773368738
0,925826566759276
1,0244569464686
1,01396123268179
1,03322051658716
1,0070735778981
1,02538527979676
0,997559325002398
1,01648694894646
0,982989743292609
1,012364061041
1,01120164791194
1,08557884439733
1,00938436166204
1,0377092885743
1,03642940744965
1,04230017819107
1,06287492580761
1,09070553681711
1,01092132749266
1,03879485576159
1,01150058482009
1,04275647239755
1,06045354626219
1,13050964983546
1,07354183671543
1,05562056702587
1,07906654213411
1,11009868460322
1,08418096391824
1,05222753746817
1,07989677859862
1,06912124531634
1,05172650953307
1,16226233511248
1,11027655612471
1,09727122710209
1,11239490620453
1,13463351983741
1,14273653650671
1,15050860989303
1,05866355810559
1,14876737494173
1,18639624121139
1,20198403301005
1,12658888430423
1,22118946939959
1,1540260761589
1,14170668679684
1,15930035859508
1,18304604860745
1,17345417466568
1,19820294566923
1,08504310373471
1,15355919842034
1,17672189587973
1,19700933813571
1,13402483116881
1,17714242387277
1,13880168492507
1,19689061306522
1,19483820802495
1,21482673667838
1,17257378075545
1,21460166601457
1,12609753849097
1,13605853818354
1,11891321311148
1,1954158265883
1,16211450293831
1,18482754404413
1,24963400634147
1,27313987294768
1,15276791696793
1,21980583764862
1,23461217834686
1,31759076016912
1,19843653572175
1,17728287238294
1,21775037692881
1,26531883273184
1,14799127360657
1,22108150452232
1,20142149735884
1,26967593742153
1,18511904722139
1,22446102004475
1,15366765146822
1,23937714370985
1,25282545434893
1,2862049218201
1,28557860708021
1,25733632394945
1,19265893862929
1,29947649431348
1,20468210209971
1,22729351163405
1,26355391215738
1,2744059462805
1,18775351169849
1,26005677420249
1,21741841228848
1,28507823255454
1,24502302560939
1,38258234973201
1,26625783898453
1,28082256006728
1,20943912836724
1,25068529222245
1,22307936539389
1,35328253608141
1,24204726646164
1,26651272926638
1,23498683416742
1,25392928324921
1,20221367735019
1,32607974405987
1,2573110435559
1,25759684154666
1,26498179769247
1,21152898732613
1,17224540701251
1,32433486656149
1,23414353277111
1,32666712556262
1,23205160032503
1,23116753907411
1,19250948337616
1,3206885407305
1,26593048217971
1,26263933911768
1,25552433298803
1,29285444850827
1,19810317799413
1,24711185247998
1,24872860384136
1,27921991844016
1,25823229273485
1,38412329863823
1,20956693951919
1,31041572039258
1,28793954749652
1,33234498532915
1,26104144949355
1,33782547704081
1,24110102893751
1,2866123582226
1,23891217242321
1,25285481179318
1,25072078778802
1,38511961484126
1,22233672486071
1,23243637246425
1,29848489438691
1,30652264284882
1,24422112650173
1,27449202344139
1,24444774353262
1,32996898498832
1,23143690194061
1,23769454578784
1,22868008059087
1,2879450877565
1,27333940119454
1,31129508846707
1,29119143387132
1,25090169329931
1,16574801335949
1,36375388835455
1,34591158440883
1,28413643703034
1,21316231632032
1,28311024271641
1,27445437331463
1,20411714779703
1,27705260452536
1,34750091988068
1,20197304231136
1,32500456457726
1,33712968509154
1,28583611132419
1,22456092893965
1,26861233111615
1,2114547382119
1,23192805585747
1,16780547365877
1,25496624825073
1,21447362980466
1,25907731121316
1,24818623531417
1,2493262372478
1,15385117451506
1,26326483137334
1,28868385968011
1,29859732980975
1,15995689945293
1,27617147609041
1,22308759781807
1,23219427624753
1,24530796600352
1,27952921058316
1,20010415954563
1,18456132508703
1,24875402350002
1,15670504751494
1,19886394349087
1,22890868922189
1,14555903071163
1,26035292512272
1,22379026038812
1,25226511041915
1,15230357618133
1,18605352693563
1,10695778586794
1,15635767771721
1,15835500206686
1,2309236172805
1,19500842748319
1,21032266546462
1,15644487354703
1,12291757420386
1,11974525701156
1,19572498501087
1,18556672782298
1,1799913187862
1,10825052238186
1,21944677337692
1,12765424927183
1,22041651915047
1,20041453141681
1,20843759320599
1,15304133096964
1,13624503438512
1,13448815080779
1,1699555844607
1,12274589223885
1,1032573795576
1,1239895461424
1,1533899602272
1,13217354456676
1,18723772797884
1,13416803815945
1,12541656531792
1,04041640610214
1,09899524542821
1,09863912269549
1,14296146560084
1,10269818663099
1,15794131073534
1,03853236894467
1,11550478286117
1,0327162022071
1,08427149244246
1,06823764668597
1,10475882632791
1,05321464241587
1,05549895136853
1,04399032003577
1,05302874000378
1,03062269548362
1,08004232312891
0,988332260438482
1,05205003940898
1,02816839857384
1,04036697463943
1,05059518003022
1,05741346627956
1,02362431056377
1,01559924488474
1,01564433403171
1,05322721112641
0,999099080918991
1,01446365881534
0,944059381113791
1,02801615368293
0,998941261619307
1,00937190637186
0,99659147063859
0,994475610043402
0,967929453729537
1,02047480566157
0,963453773154604
0,97374198055086
0,967483252640097
0,983593626802497
0,921495669820699
0,986189577488603
0,959032857088748
0,953646563143912
0,911638799533204
0,952239495752656
0,967377109688423
0,949143829451755
0,915667308218537
0,925043801500642
0,896176390274341
0,94604280882006
0,925647294445692
0,908715336719686
0,877808350763811
0,913784301744518
0,880209888271387
0,88657310040467
0,868726914344574
0,874608293578994
0,863145059856701
0,919064703930774
0,854439432803113
0,866001575237079
0,860708847325749
0,865301253141423
0,839589881685142
0,852966586099382
0,84445643868757
0,842312625082075
0,830455379303546
0,830607221724089
0,839120256364068
0,82866750823972
0,815769826907579
0,829963779060149
0,795073411829442
0,804452242001088
0,804827921983798
0,815806939675472
0,799923644443673
0,837410904418718
0,768602955121013
0,7975148092382
0,767624423762945
0,774517932162441
0,76643601405155
0,773023612026367
0,755059975913897
0,774670011443115
0,752829748563869
0,759472081813077
0,741293704136003
0,77352340489655
0,731294645535133
0,75640845994563
0,732304136444212
0,752735294013753
0,711384926626876
0,718772937096677
0,71899809172404
0,736229592096082
0,697103582969287
0,709802099530269
0,698260197658368
0,722296634331348
0,712227145611939
0,711782707550001
0,691114093658281
0,704435264879479
0,687087249651889
0,70149930441067
0,684950279753711
0,687889823721898
0,668604610432689
0,665267172547706
0,656047487823902
0,683018168191787
0,657816165801848
0,675646448748833
0,646659092870358
0,673864930720675
0,641421018065664
0,651393635238476
0,637777158013573
0,66973310850011
0,639230295844208
0,651174083033268
0,629743276700704
0,632560723908968
0,616887206856937
0,644266689434227
0,611493873549632
0,626346342099871
0,609819668391294
0,618568741615498
0,606545368837783
0,613561263273953
0,596648479068348
0,612329782972372
0,600151982160737
0,611807105839109
0,599022132615465
0,60487406468482
0,595531471055928
0,5929474052414
0,557859557161682
0,589905345515786
0,572130395397076
0,587310279275903
0,563942980313531
0,58067235110723
0,568735328071482
0,56872149811225
0,552756434824239
0,580334807081509
0,541616459072606
0,55720356211675
0,537881006958684
0,557243962414524
0,545136330756458
0,548670778210433
0,538630198670113
0,549868146788937
0,532189683977123
0,544784547785375
0,528636095164282
0,52839298592746
0,52434492500551
0,529048783201596
0,519575569054701
0,516094304509605
0,511594187023752
0,509378981609194
0,514245924550422
0,516290427416483
0,501552348341939
0,509836970407034
0,490021263366066
0,509109807213152
0,493150359323825
0,50698376533397
0,483621444010367
0,50071643200854
0,487291194838159
0,497062043615957
0,478091619003535
0,480442473276359
0,470474055268345
0,478173192300563
0,46492067805497
0,47243661561778
0,471434061630085
0,473513201538517
0,459325079103665
0,463580222169994
0,451315749209846
0,472546023145612
0,452088763034786
0,45251599989102
0,443453785227546
0,456687418987125
0,451172647581835
0,441850430464916
0,436237667436749
0,443972958809691
0,432662300502916
0,446688773618798
0,436010441418655
0,445262225097199
0,42925300210635
0,441671067504504
0,428459303858448
0,439009288960165
0,428377176793484
0,43814838355157
0,420420256498723
0,43941719408276
0,421865680782634
0,429693947357269
0,432271120926158
0,429882767817581
0,415071149813368
0,434119117895265
0,413213416252183
0,430886153020544
0,422796744272797
0,427949810836778
0,417534746446723
0,441701591368627
0,416956370802449
0,429342241677136
0,420368456994238
0,429494795832814
0,422599072782972
0,438741927717515
0,42548167987567
0,435497397189193
0,431967376953612
0,440659076256951
0,436493499439745
0,443712125597587
0,436863258914859
0,440504475803397
0,431872104003496
0,447636920233293
0,438901488044177
0,44948691001997
0,444743262571362
0,447538677341901
0,4482154872904
0,457542797956252
0,449176101028284
0,451844876064009
0,45309150355476
0,45639791322374
0,446900546570031
0,475326372984639
0,457406546002407
0,466774756421674
0,462111217016223
0,474697327676866
0,472861905927911
0,470777576043527
0,471716259665461
0,479966584334348
0,484686872536577
0,484937380744314
0,476578831838506
0,487209412210755
0,481335348542975
0,496568004623231
0,480834473299535
0,503331975647341
0,487387023242158
0,505226273708294
0,507886352266423
0,512823738367086
0,508226945295932
0,523836045415282
0,500678225840103
0,522519907180401
0,515589082737651
0,536161169806119
0,529969483069463
0,539924957940803
0,53360391446843
0,541093702307544
0,528989855518877
0,549726474330742
0,52460013525903
0,561264422718573
0,534267673717649
0,55806896294688
0,535644457206192
0,548379910011038
0,538014963355711
0,547966575299546
0,538022080670948
0,548187092919733
0,537061335543019
0,550293666878394
0,538410166593388
0,555650917052425
0,54094411693072
0,557904873693639
0,536619899875025
0,54784920995483
0,525464825654178
0,546842971660585
0,536900138335334
0,545950113844633
0,544419790133154
0,547751438738584
0,52906863911088
0,552309126185081
0,541845092301227
0,554562817465533
0,538692268624918
0,558582726287153
0,533806093822965
0,551424228468943
0,542031930628726
0,549497929429706
0,53248603560848
0,54458698883765
0,5353627464996
0,550481524628975
0,532172482854888
0,551538232859435
0,540122632511348
0,549851972051846
0,535259136797966
0,556467902934711
0,542621731343419
0,55503220489556
0,542318364598518
0,552908002864569
0,542489695039448
0,557811473147472
0,543446381792515
0,550507825052258
0,538636178434491
0,553168628168217
0,541511379175194
0,55035316973641
0,534750172905331
0,554137316312944
0,53522869654358
0,554492589339572
0,533237647962152
0,546282231148286
0,529289806088226
0,533330776387165
0,533595674401027
0,545908842879284
0,516005087147562
0,524565793632718
0,517365631721009
0,532097113230911
0,509130131173351
0,520490067847989
0,507564018506552
0,50401179306933
0,490598388835454
0,516466561479242
0,493676940081266
0,498943252143885
0,486594794229396
0,496706819815903
0,478903112668804
0,4846873595054
0,464591521970385
0,483846823965912
0,461620601419989
0,477336994029901
0,459579607298502
0,464183993588293
0,447693053033657
0,457966815723225
0,448090681459407
0,456243524234485
0,443433819296121
0,449845130613151
0,446531341565022
0,439617046633282
0,437751345909681
0,44062697677283
0,42802685394768
0,438204277190736
0,415145958718894
0,431510681768028
0,409927692339588
0,415417460163644
0,40704548645227
0,41993814914062
0,414372312390895
0,408446720791184
0,400675349889868
0,418301743132735
0,402201803511325
0,409931394709507
0,397839050083796
0,406117079665185
0,395438507737878
0,3991960891838
0,388829656853541
0,39439613414845
0,38624602965254
0,392660433608835
0,390876539625779
0,391610663379567
0,379373395223747
0,386407064094238
0,379160770921386
0,383437923706153
0,371147207122119
0,379888839319642
0,370273164727533
0,372265045785548
0,370697855867008
0,377531487885332
0,364196674867007
0,371035532039219
0,371766306154782
0,366625551490244
0,35901314062281
0,370023974879326
0,361293036922605
0,368360468658516
0,35761030678295
0,360130237373873
0,354912744830317
0,363819511939153
0,348197154738407
0,359139450161953
0,348260496035749
0,356747128321487
0,351233669636548
0,354612049005284
0,348127246302715
0,347838784124129
0,341149914670845
0,352009721055574
0,343334871892419
0,350046885970719
0,342070250404333
0,339928681026089
0,336009055455939
0,34855738568554
0,333252552657597
0,344351486762269
0,334235852012383
0,338363846490156
0,327668281579227
0,33697742135535
0,335663092832406
0,336140768188382
0,331264428406948
0,341148534757003
0,327241795805385
0,335005904628588
0,326225531831478
0,339677545059507
0,323147006417731
0,330661952782405
0,319801015396577
0,33615441087431
0,320216538546249
0,326741365228075
0,31891322877655
0,330093383836614
0,318035564074709
0,327213415738135
0,311606283918357
0,322837797893589
0,320222687972505
0,32565941084533
0,310215469014571
0,319177212018912
0,315530138167811
0,322554111731025
0,315750874386133
0,321095065259864
0,313940882584873
0,318919198073111
0,314519039145258
0,322894448124602
0,306060136907037
0,312096432438757
0,311698365517396
0,314090604231273
0,305995765292511
0,315202234466121
0,304222897923535
0,31297828262029
0,303245777502685
0,310597795746479
0,305254047843887
0,306932629163813
0,305025287656801
0,312184663181922
0,310268609670116
0,304540725946663
0,305527730947713
0,312942349246168
0,301403857687301
0,306070945149689
0,300129868392396
0,311727248806496
0,298064510000134
0,307811973734537
0,303087094329225
0,305647083768715
0,294718445398606
0,304820462580742
0,296930053521208
0,301390269149175
0,295059762608948
0,308128122747395
0,300089196455591
0,303098004626617
0,293037872774597
0,301447953042889
0,291726643233834
0,300638796793602
0,297907323532098
0,303070016240191
0,289816004001501
0,304618003820497
0,297450134103464
0,298675691451269
0,287620449656443
0,296708026971719
0,290588959109174
0,296643043119583
0,287801051542933
0,288547383818984
0,286657256631656
0,291866385738052
0,279520455518804
0,291315936770597
0,28069410086961
0,287164158934985
0,281243697564517
0,289253420947596
0,282032063001555
0,288103494021514
0,282297192744618
0,288062092956095
0,282238970117065
0,286176859592206
0,277559545574985
0,283889704517241
0,280660914638023
0,283493057863562
0,277051424907025
0,282750827629003
0,277560785381262
0,278009175139856
0,27227038538207
0,281998225536976
0,276619491278478
0,275910654806427
0,271033145227116
0,283855026045976
0,27182374296818
0,275032691723235
0,270932488627964
0,279727017237867
0,265770044092154
0,270595752152415
0,266342232551425
0,271789058533299
0,262683727688912
0,269476209691399
0,268801546286478
0,274724126165218
0,263983289267403
0,265243666140713
0,256517145618831
0,2632164865627
0,262123893258571
0,26819143083608
0,257072288835377
0,261962334816058
0,258841390285294
0,260356368695805
0,253952928013806
0,260030575770232
0,252300221156086
0,257432076462463
0,25301866275604
0,259867140334047
0,247639026905693
0,256131818138703
0,246554929575428
0,249242048803173
0,247837991987222
0,248429650375506
0,248157404440104
0,249622637218143
0,243035223691079
0,245645104692912
0,246423104221074
0,243897806458381
0,240742282405617
0,245064097864821
0,238871700245052
0,244196429033331
0,238748017519173
0,242228268193916
0,232479390071185
0,242838023836547
0,233742121341173
0,244183614309382
0,236313854919257
0,242219783320631
0,231034032215052
0,240277623412199
0,237704818502914
0,232553163148044
0,234535331584692
0,231928389812665
0,231408157185709
0,230965295546166
0,226402921151873
0,231505591855513
0,227131181903318
0,233723249482141
0,228958635273318
0,227152584288545
0,224864718081174
0,232865855206741
0,22183042892637
0,229471752383801
0,22367800851693
0,229771383553106
0,223801887025681
0,228483560550303
0,221365577902576
0,22639008775387
0,22055050026987
0,222219137155811
0,21569935483411
0,22380070922748
0,216973939010751
0,218773170930454
0,214301588393271
0,225220268384393
0,21735198241865
0,219927013755034
0,213221966920631
0,217373291452192
0,211805697339075
0,217929805579328
0,217662550858326
0,214492170089952
0,211642281117539
0,217110459237279
0,209274751164369
0,214233295545181
0,209392442328239
0,213515812004812
0,209066537862176
0,214140972361811
0,206572285945841
0,211888176542319
0,206272634069184
0,209633672386962
0,207261142985283
0,21218366971154
0,204514695223565
0,21050922359659
0,204891241079295
0,211517509019884
0,205542601537365
0,209734672984155
0,204465115755939
0,208240256680669
0,201222022284958
0,204619168537352
0,197160815450451
0,207759257410431
0,2023724802516
0,207132150993507
0,201467589034334
0,207581827550787
0,197204731476776
0,205674287790833
0,199664392680877
0,200830298420305
0,200013352627946
0,201408249113798
0,198487932080695
0,205141081012377
0,198126825554951
0,201415037978214
0,196696504598957
0,202933977914746
0,198018702231476
0,200727217690337
0,194222784282971
0,203989561126585
0,193419675450823
0,200118631600807
0,196046988232922
0,199946160931719
0,196692918264116
0,200715027439755
0,197178021661788
0,196903676466332
0,193237058041549
0,198169573221363
0,18886446857729
0,19529141162485
0,192622298229777
0,197696117615091
0,187032502282288
0,193528476221654
0,191627737546773
0,196395786904838
0,190743317675162
0,193296919557233
0,185597065237533
0,189561046141772
0,184583901820065
0,194587609748967
0,190143323160424
0,192229740162521
0,185334178208731
0,191754089014365
0,185711362800253
0,190819442813259
0,184166341695163
0,187653270410837
0,184695195542081
0,187385199531564
0,187895980266225
0,188882232583403
0,184739426876779
0,188846385958179
0,184374914395676
0,188249340097852
0,178856544655673
0,186005580356164
0,180556584373693
0,185986729393743
0,181775551683396
0,184997584696549
0,181062770557252
0,183846549404465
0,179281521971773
0,185258495679107
0,184284712685243
0,18794690347284
0,180909814301599
0,18099514192834
0,179920807350229
0,18191517255859
0,174439969314375
0,178870870485718
0,179072485275601
0,181286437252364
0,176336463941831
0,179525131962553
0,171339099526556
0,176786610028128
0,175982152119288
0,177580268017783
0,175060527111715
0,174253265792908
0,172097266064066
0,174893206543457
0,171165438199311
0,173963932700031
0,17000700232725
0,17570718021651
0,169740917430914
0,170263227718743
0,166390851068857
0,173464468370045
0,166369290251132
0,173091008495072
0,169154614348866
0,171336447362927
0,168237148483792
0,171985279438664
0,164502662163878
0,170051688628825
0,164120798051456
0,172336078998781
0,163294293670754
0,167962407349039
0,162667029554385
0,165741611710957
0,160913560154128
0,163666873384138
0,157517781412876
0,164441997176188
0,160712410045873
0,158343652968767
0,160452633848936
0,16286911962559
0,15938329139823
0,163662649724463
0,155684338302308
0,161055016464136
0,156105200127654
0,160308397618339
0,158947915459556
0,157734367248966
0,155108001529008
0,158780646538755
0,150768645639747
0,158409297143055
0,153811284852942
0,157327515020207
0,154817059876357
0,154492270584787
0,151510239931002
0,155757073610916
0,151062954760137
0,156185414487589
0,150076901330302
0,156702790350313
0,151475737914858
0,153386571124661
0,145106327088121
0,153126720558189
0,148105720647004
0,151831564500248
0,144111251602004
0,14802025229703
0,145299531236054
0,150406983082492
0,145594176459282
0,149740210296913
0,142440261654148
0,148936598870775
0,143696627249214
0,144142675937579
0,142995263253804
0,147057498565913
0,140526594913956
0,145919458483876
0,142296834560795
0,147048733363355
0,142155214128864
0,142441280487834
0,140764179216557
0,142121264795952
0,142248539041987
0,141333761216212
0,13683065532746
0,14225040068687
0,135317992898524
0,14216162219104
0,136282036193688
0,141086362901861
0,137779325253696
0,141835633079063
0,137835337843319
0,139939913998636
0,133123626219411
0,138364956948381
0,136790674976292
0,138555863592794
0,133821694895892
0,138338572810919
0,134425817219913
0,140348159333424
0,13407980504133
0,136591977852123
0,131282148164592
0,135303664775799
0,132942337188801
0,135229760706904
0,131504986928814
0,133979147460522
0,132755275705967
0,135037469820611
0,13158528552529
0,136544631334255
0,129964174503073
0,135413483950942
0,13309925375846
0,135345505401278
0,129577716519931
0,134566384240533
0,127432415132517
0,132192660757249
0,124934878702066
0,129751026971472
0,122649217091756
0,133388570711294
0,13009933832374
0,138161234425318
0,11914713790928
0,123969991032385
0,125019832877471
0,134679935772123
0,119921666106611
0,130298066996006
0,124692709111401
0,127439894762364
0,119092069243389
0,126270842617318
0,117222602221306
0,134681167542691
0,116290281145705
0,131380558752866
0,116897143023105
0,128666148822068
0,127701072475498
0,129296211205809
0,121436482987866
0,133373039205259
0,125127759891701
0,127275896697332
0,122569873021325
0,136610157009377
0,115897394251529
0,13511861412956
0,115649437390124
0,134793041270323
0,117660271661832
0,134390303938668
0,110220234190164
0,134045270952618
0,103228521094562
0,13197109463429
0,101453624838973
0,140838123724036
0,109119857387368
0,1464133333178
0,10139719103641
0,135165044359786
0,0897711716273599
0,144248058710899
0,104330420333824
0,148349882164325
0,085779430285486
0,144592007042517
0,098398454550768
0,151126730966911
0,093763600646796
0,139268586348032
0,105354423125445
0,140723718191378
0,104278819463025
0,126892009735493
0,122719788643268
0,121802170227963
0,125617057003866
0,114599124192248
0,128079284830902
0,109909492874265
0,129654632125035
0,110116412649929
0,128495185452228
0,113793349593477
0,118995612842743
0,11946396052261
0,1178110471373
0,119198776198297
0,114442289940801
0,124415571221095
0,117398570598167
0,118404606122339
0,117398575171115
0,1145976358436
0,115468570952464
0,115849351783544
0,117050651481391
0,115152574046916
0,116508406177105
0,11520350397226
0,116460833683605
0,119132560944817
0,119008799187403
0,116486703585462
0,115061123552399
0,118279217618161
0,1157452489923
0,116698683127635
0,115666496951388
0,115200359219458
0,115302154997914
0,117439872454497
0,115629171758274
0,116500015535405
0,115562583374202
0,117557137826639
0,117737232700965
0,117317198859006
0,115442134470172
0,118369897132543
0,114731517315601
0,114687707633971
0,116438705697234
0,118890562569433
0,117262047484689
0,116192907873484
0,115598887548875
0,11563503968271
0,116201067520607
0,116387448740675
0,114679424994401
0,117340777954575
0,115560717228959
0,116104922973488
0,115351831264703
0,116827992534975
0,113620066865917
0,116818543878477
0,115273334015928
0,117003235412786
0,115312611891852
0,116663926574248
0,116541832335375
0,115026630838116
0,116892436797038
0,116431931708659
0,115054948855515
0,117252129328497
0,117653338613923
0,11504581245074
0,115311135141289
0,116000124199242
0,114718138241741
0,116748901238035
0,11508328794328
0,117113501870649
0,114420343407396
0,115357062715284
0,115519421801518
0,115556230702299
0,114116710145902
0,116744425895251
0,114707175009041
0,116539702476545
0,117161277533899
0,117597273521486
0,115112644320618
0,115421797150599
0,116200841245812
0,117995244055649
0,116684465778372
0,116913605460038
0,117451666991517
0,117026192253628
0,117230560996391
0,116145434348398
0,116725086181005
0,117477726355767
0,116513993327168
0,117854364081455
0,116958238703458
0,116601161848009
0,115608364474041
0,117699384355248
0,114770162529624
0,117363273990775
0,115828601566411
0,11584342136208
0,118148738826271
0,118546359762619
0,114616623687192
0,119322121652673
0,118781949069376
0,119839070543404
0,117563665024361
0,120798919405766
0,116728934523549
0,118245043898001
0,117072751896018
0,119146779930926
0,119275040583871
0,121953422836611
0,118703374356219
0,119534842498298
0,116314432081001
0,120550524282966
0,120653002515493
0,119004563226163
0,116930764261738
0,120100880427219
0,117828350499415
0,120077076612253
0,116215162966375
0,117790587437034
0,119899038713523
0,120454912041033
0,118652330461226
0,119703769644269
0,118474718012057
0,119744553237062
0,115814286692315
0,119885976879629
0,122369351468591
0,120546138667919
0,118768556914876
0,120693921463145
0,119344417049946
0,119390255106535
0,118169546514677
0,118598526247588
0,119377051788685
0,121795202181678
0,121116439384937
0,120354621178349
0,122094581528576
0,12213146912217
0,119457708603349
0,121932558100226
0,120773726401453
0,124378426667851
0,121945384263101
0,122459084820861
0,121844885571437
0,121028330669919
0,120847447930986
0,121992112556662
0,121727294547523
0,121004239369749
0,122456896051229
0,122444872960435
0,121424352714265
0,123435884419968
0,12221270786601
0,123915466208991
0,123729866443545
0,122747981234347
0,121466547126219
0,120175967912577
0,120191609435321
0,122741537381366
0,119178857292858
0,1217491485662
0,123908097168651
0,121841775301157
0,120064149876389
0,120703930612994
0,11911613401573
0,121496237639153
0,120234608281138
0,120455289920637
0,118247802360617
0,118620776354803
0,119036181463469
0,12218115316446
0,116803521018708
0,119380078723322
0,117716729227248
0,118767924973643
0,116952625097666
0,118337316179809
0,118924423754528
0,116539415071539
0,116140292161175
0,118460766102723
0,117377903565836
0,115744272960718
0,116652898411651
0,116147362605598
0,116852676960204
0,116424669847648
0,117216735269021
0,117638833708765
0,115527459620327
0,117562915815978
0,115673921269289
0,117302133403999
0,115067855475135
0,116178959662133
0,116661440865986
0,11432284253638
0,113088969104561
0,115791627892963
0,113218291177498
0,114273886730594
0,112901279429272
0,113653678565163
0,112806961577913
0,113647418631432
0,11348941430215
0,112616907790538
0,111559205765275
0,115940122912612
0,112691054666418
0,111963183358501
0,110872919856769
0,112098732487258
0,11424758905715
0,114950185801843
0,113236835092263
0,111169465599202
0,109874878605932
0,111915753352875
0,110109714865187
0,112492915677608
0,110097185067445
0,110669154395272
0,110119074846294
0,112288839113485
0,11132515094267
0,112331603806355
0,112036666279455
0,109715461478482
0,110587636399971
0,111171762676641
0,110808732007891
0,110892476243938
0,110634569285409
0,110118868687727
0,109742724494502
0,111120101641738
0,107992811254838
0,109348015952404
0,110018441299719
0,110282367197866
0,108312011290303
0,110229382946114
0,108302101666323
0,108421701032903
0,10486638472502
0,111908396426884
0,10794022290297
0,108208001112598
0,106075743085027
0,108141190199047
0,107906330670115
0,108591769039845
0,107879005353617
0,107583027031233
0,105978857084191
0,107564335575135
0,104871427603358
0,107633477166396
0,108034243638601
0,108967656083909
0,106293688562244
0,106577090187432
0,107589971911057
0,105143019858504
0,107706654756558
0,105487062212507
0,103421054840721
0,103255126282029
0,105073495182083
0,104437353469195
0,103662500778984
0,103237571829403
0,103650577295216
0,101331447654137
0,102011754176382
0,1032979028944
0,100182352532843
0,104441696704427
0,100337033748087
0,0988676296001222
0,101666838501315
0,101796039468437
0,100842538182122
0,0987275363520101
0,100409846934292
0,0987592827106871
0,0993331740505852
0,0971045094741268
0,0983786661027313
0,097491055146647
0,10369516400228
0,100745969502485
0,0980337432710501
0,0961829778846731
0,0969437389567225
0,0979888823091543
0,0975346637198384
0,0942000424671354
0,0948865917884969
0,0967925797969779
0,0949024956450691
0,0948986800210421
0,094450486960428
0,0947414351793949
0,0958453132541899
0,0958820861442433
0,0917231454918925
0,0932422316846266
0,092819779065754
0,0917009171514372
0,0918625311034894
0,0917337954876058
0,0902815511119362
0,0908939701425768
0,0904003597863431
0,0886410647021692
0,0882372527856215
0,101193398020213
0,0935546389730757
0,0933628817283781
0,0885786700702616
0,0941614513140085
0,0902027219502066
0,0926354284893581
0,0887616259675762
0,0910195419841578
0,0878122628068195
0,0910491901887502
0,0876369506931578
0,0903369859783411
0,0886217564150723
0,0893239036999366
0,0862835826989074
0,0876683725269009
0,0861686938217814
0,087878984553649
0,0870476802573746
0,0863309798945007
0,0859033035430082
0,0881172968620642
0,0871433064508125
0,0874915550439096
0,0828166229555432
0,0911009163529014
0,0878890757023184
0,0889291929692581
0,0868100724659345
0,0864756463611182
0,086701896662998
0,086187507494792
0,0841349975738483
0,0861568846450186
0,0859923907480474
0,0837114723349479
0,0829445574170454
0,0830063650722944
0,0863447463393149
0,0861660671800589
0,0838047283190086
0,0856395019965656
0,0834415869898696
0,083773096375667
0,0815243600754679
0,0854140735803265
0,0854018746517269
0,0815132837039168
0,0832313058293124
0,0832502587992312
0,0815251655200737
0,0784505145399614
0,093072910137193
0,0796005748941106
0,0896557293210465
0,0782768672543148
0,081371120509825
0,0793726935581689
0,0823224258917168
0,0809002126795776
0,0822939946935165
0,0778320810536216
0,0822471207982943
0,0791056985039444
0,0805562450382922
0,0791909809504371
0,080365774170349
0,0799102636163028
0,0814298828121685
0,0773373116841409
0,0791984507643119
0,0778718523324926
0,080109666899575
0,0853363227408515
0,0869671955538941
0,0780429305915691
0,0832032358868475
0,0734053062235489
0,0916553970373675
0,08348479319782
0,0795214133161637
0,0805842483951074
0,0773590936943527
0,0818483807357905
0,0742258155099352
0,0826870033163082
0,0734118013501945
0,0856588661326952
0,0743181461971892
0,0846040685499773
0,0772119303487116
0,0805721861236487
0,0764655624345245
0,0821610419466436
0,0768211466506949
0,0785497112633243
0,0763505530589234
0,0801719877155403
0,0771393082818631
0,0773478869655192
0,0776663483103356
0,079486054240652
0,0751715601599645
0,0867388198252833
0,0759764866262853
0,0814245373241008
0,0760710414615981
0,0803414452760984
0,0731987215485072
0,091787103651719
0,0721717132590871
0,0855709863106747
0,0751016218544635
0,0792937211490085
0,0753197093134789
0,0786973816943748
0,0726607294332005
0,0779007810706651
0,0760051841011492
0,0778505887615859
0,0775647439763379
0,0768778555829145
0,0767148574030873
0,0758214416820072
0,0767629594023532
0,0754515089944754
0,0766908732937292
0,0727566392777773
0,0794902178872158
0,0725946102477965
0,080324341404061
0,0925699782680458
0,0790400690920005
0,0920592395171473
0,0768904860213224
0,0796901946509408
0,0720419297748549
0,0795815382867422
0,07144534006329
0,0816377564714281
0,0716909317194484
0,0813125208493202
0,0742085474002177
0,0819631819957477
0,0713176067925741
0,0803948676627192
0,071986932793329
0,0801621135624154
0,0706480725440508
0,081254706074866
0,0698393939801995
0,0818343708563041
0,0702076957262074
0,0798916313167725
0,0780141129611658
0,0841440480197855
0,0712413705146773
0,0843060478467983
0,105505465661013
0,067397573985152
0,0915726495575908
0,068141283140242
0,0804748436789849
0,0734454294209743
0,0779636972489415
0,07876378293987
0,0799519889579872
0,0722499988988323
0,0776025337767155
0,0721609756316683
0,0807394210492456
0,0739690432398775
0,0792687479691579
0,0954791381212143
0,0884718096368334
0,0812108312927537
0,0799695961030239
0,0701931144309615
0,104561276737091
0,0746512475628673
0,0827149313327984
0,0777168506804707
0,0770332659028781
0,0811563317420036
0,0744227347222344
0,0781264911293119
0,0770232983201193
0,0869454462426243
0,0748821449449585
0,0821670654723421
0,0747919426175331
0,082608735125308
0,0796872277381835
0,0818896972859936
0,0902975958059988
0,0801144453270068
0,0807665255116688
0,0862911957818586
0,0806855831659846
0,0826873281477959
0,0810750643402095
0,083207235012592
0,0776262252794022
0,0912023537501282
0,0815698253920163
0,0927206124372632
0,091449253469695
0,079994989393861
0,0823423658975472
0,085891114928562
0,0887502818598961
0,0869717850412663
0,0748991738585101
0,121834673301831
0,0690668374337018
0,120979043583666
0,0745519800713559
0,0946665861748743
0,0763107487619466
0,092349197150186
0,0749791925125528
0,0986521155797989
0,0953687080185786
0,0866422092923788
0,0912825837585849
0,0767031037374208
0,105170239680383
0,0840279489620178
0,0928690802445678
0,0849479564439022
0,0893863212315758
0,0895940859201557
0,109105806240169
0,0773700541715663
0,109840328035259
0,090095124067536
0,112269520561847
0,109990081971047
0,0773793015512363
0,109425976228701
0,0922994875878821
0,0956884907856502
0,09714778828554
0,0869732708241407
0,0959447370776582
0,0830400702092526
0,119937307367444
0,0983876314203782
0,0901209634369568
0,103425299080599
0,0902709498996396
0,105219753626181
0,107756659382961
0,0953341854129443
0,100164401340153
0,0970991952600882
0,0963258262982654
0,108875945359578
0,148404739164101
0,0795338789543186
0,145835359038178
0,0929864653064781
0,132422295237151
0,100957511210742
0,119664555039604
0,097201096612896
0,136864393106262
0,109403245170828
0,11292601812319
0,101298631887915
0,154217522835314
0,0986634733155487
0,127231403855717
0,106923260033628
0,11495542350726
0,126157178662294
0,161472222277907
0,125065189859883
0,136306615421056
0,113265902044326
0,140824547878631
0,131482608211734
0,127620701547549
0,129561165813685
0,126564434741309
0,133077102485614
0,127981561951561
0,131749802407997
0,134061794323776
0,130060237934227
0,145179273305385
0,127053800551073
0,157097938958661
0,148096090773972
0,193969041322543
0,135305663151572
0,161442590446459
0,167534198852913
0,155208875806727
0,161564769115325
0,147408512402193
0,154866456824705
0,159649747203328
0,159523380142374
0,157393426848447
0,159667284676605
0,192030500979832
0,157505368528098
0,208156218136646
0,154430606595335
0,190416850460547
0,17609617450013
0,23803107589804
0,21402876634374
0,187689452824069
0,217389090630682
0,196274466405963
0,264179496739024
0,203917775895942
0,227412238847334
0,226533298956205
0,231405761813791
0,233406876203571
0,253712510129465
0,247514395785744
0,26396266451521
0,276250272917877
0,269451371572171
0,281993766603039
0,316578157754749
0,319793888151534
0,340613470519933
0,299496047759366
0,320348244360955
0,33137505361737
0,332332136022073
0,33136537270629
0,347336323480725
0,333018450274051
0,399371335699082
0,352602869739768
0,383226475228804
0,374551598631919
0,408874205181977
0,409176462412122
0,402190550685177
0,459317820637556
0,409104765723298
0,451995381059628
0,418870018985504
0,457068421311264
0,44235905678838
0,480786995424359
0,479374261155719
0,490916210438128
0,486973746900288
0,495801546735428
0,49630652415103
0,509378015400279
0,517324577116568
0,511770112700778
0,522376544590125
0,570482941884522
0,556616795526495
0,820109453516882
0,520837432603464
0,567691423467913
0,524412195084916
0,575409680443303
0,563577513376891
0,57798992959361
0,621847565891514
0,568589332969839
0,574967956657441
0,55937386705304
0,566359727659462
0,558418350751594
0,568663697211508
0,575830175022008
0,558345908267309
0,600902496653774
0,550461720878989
0,693601915761514
0,551573488052976
0,57869680854487
0,550437743858667
0,582931710918948
0,556844484353778
0,583203750022764
0,550682515189583
0,596794418623153
0,562858424365218
0,566013259869243
0,552692768077464
0,536275952010571
0,579372230141223
0,533617205372034
0,521851739825177
0,52696584914077
0,508420711314091
0,517358983036413
0,477040406329672
0,556493126342193
0,505225936552131
0,506359128970144
0,480109021118151
0,4750631493825
0,47482420941156
0,475912584070953
0,463437592047489
0,48314455988066
0,455957544768284
0,462146460446276
0,457983756747239
0,451077755658357
0,447029620971031
0,44885049635538
0,455933985498484
0,449614789410991
0,443185255964555
0,444785098371856
0,439173328432664
0,441397684351586
0,433493275796643
0,441940137489807
0,431954053287175
0,443636207878033
0,434796005741202
0,442273850230328
0,438622064691887
0,434017020301742
0,440752693922666
0,437522397718933
0,438833340440387
0,431080393133706
0,437785573822099
0,43858978743126
0,437758180318709
0,440754311465333
0,443257157529693
0,437955309533939
0,436693589768713
0,432211140748758
0,436336905007664
0,433024140651513
0,437878239098432
0,51524352721411
0,421021390818654
0,445930700812178
0,421350239266675
0,43966606050519
0,420184058620041
0,433676249778521
0,464195765706669
0,430628773277584
0,421330011005087
0,41400760669475
0,41217619446038
0,450046671987432
0,411772831969511
0,422426098324661
0,41266673665426
0,408223402920285
0,490815812768379
0,397467546528023
0,590988632384445
0,421718443843622
0,421021787110939
0,401314843444254
0,450461248336781
0,414517693977709
0,413447966962711
0,417330821360161
0,39358824305213
0,454782364600914
0,398617580269099
0,41504301219265
0,397217236720294
0,399555306938232
0,434306613191587
0,425234810780145
0,40512751627837
0,446341742342
0,400324059318346
0,411563611357943
0,430674470069054
0,434350336465693
0,390082445974839
0,377059522406103
0,387005899631667
0,367712582593666
0,39434693340375
0,406960992857664
0,365328353044012
0,394876338964423
0,348821139666953
0,37882004968338
0,35412539110776
0,38684554050424
0,347852148886453
0,382638213125099
0,371977045700921
0,331573240404798
0,380614493402429
0,346934618596559
0,401499263542414
0,357950270121282
0,343690708994324
0,322726244358455
0,388090643767246
0,336571942354235
0,335438448212629
0,340179932608367
0,306047698005522
0,337146097601121
0,324081709709302
0,30345004939238
0,342516925107991
0,311730469722607
0,347471269718541
0,333907983258425
0,355743773190073
0,330975253180174
0,296836365280408
0,291729830939011
0,290623585612198
0,292657981099679
0,295276270697991
0,275124865218301
0,346678176288261
0,261780906039173
0,312334985876515
0,308319267981583
0,285605018224042
0,293968805693392
0,294428867876399
0,290148133574227
0,301701716887621
0,302694195044779
0,333818924752864
0,28879243643175
0,333682929988063
0,311189191377976
0,311381069160198
0,304021451573887
0,310628520309656
0,310664012409402
0,317215034377867
0,337076472674372
0,327108073474303
0,332087875243375
0,342885399466784
0,330969030234976
0,3839407259529
0,357500200642114
0,361427029870434
0,423433925216415
0,3676956769181
0,446477132129912
0,375238222502218
0,407594034107992
0,393506968444355
0,410053222149095
0,416032183873668
0,410990552835454
0,443716755581637
0,456339644079662
0,422785082199334
0,443205051637809
0,439701502308508
0,452692931110409
0,444401504103112
0,505578011694257
0,442369261600504
0,579769945742266
0,462483886720698
0,504519688105541
0,465967008965278
0,477250632073142
0,484596535419663
0,480327233779493
0,482197138790436
0,482096838893494
0,491334383400506
0,511820758736484
0,485312841359514
0,502003510877072
0,489421831351572
0,504022932237296
0,488968753203852
0,504186773778578
0,503355494029265
0,512569698785632
0,521524840909262
0,513061555235905
0,522827808272665
0,604541708964284
0,507966325026048
0,547917148607652
0,521569908195979
0,549321265850045
0,527528508067407
0,548376300065028
0,558908539277633
0,55282564952865
0,552478174338423
0,557417567466019
0,561346874529458
0,56836619807926
0,565666816842833
0,594473371420088
0,557221503817464
0,60024986233171
0,553721102229777
0,665176977492702
0,574459547037914
0,609421175444325
0,61022662039428
0,596002385675664
0,595179665403978
0,596205322729028
0,595020330196708
0,597570462904235
0,607540362918563
0,60203372600871
0,608008937806428
0,61220732489912
0,61426479302536
0,611480718814816
0,613302507164501
0,633361044544737
0,604112741466501
0,612106446191388
0,605688305505381
0,613776186794357
0,597219377629227
0,648402291148069
0,608298689183264
0,614868433934878
0,61254924442919
0,625039980501492
0,617438327427471
0,619921540039621
0,599327668770933
0,621075678984479
0,598814347684706
0,616636329621133
0,595828258903255
0,63042454799143
0,626827258177746
0,628384806978772
0,612755375523214
0,619137724483916
0,622141982275847
0,637009356929493
0,627594419127239
0,623417415296754
0,640110545842757
0,64344692268055
0,64491686254633
0,640872767566711
0,638158328959114
0,647726178122288
0,654906561675903
0,655860309743897
0,641403114040261
0,644947034674026
0,638270273456661
0,646253763017184
0,644975983218404
0,636129920295762
0,627932551145542
0,63209309586094
0,618696804172486
0,620179146242648
0,645793227504633
0,602341707365827
0,628832448655857
0,591564822606491
0,604917293089525
0,592089304301827
0,590485725987647
0,588860120449328
0,584676807332941
0,581945960780616
0,578266727097003
0,582780940794381
0,572808777104089
0,569714713574161
0,569996419156468
0,57799250293844
0,570563919090224
0,575836859935663
0,565945100013521
0,571472603488526
0,563595120567979
0,562489922356147
0,569464633893592
0,565214419068231
0,583311796905197
0,574820772074049
0,580462547096107
0,566585618677045
0,576500203814152
0,567488731868941
0,561467541795861
0,567108429348864
0,561346411625883
0,56258091647838
0,556691567182892
0,56799279415736
0,559050685610162
0,565308591822736
0,560005146342598
0,562956529485853
0,554756295751158
0,563834984191803
0,554578773081861
0,563836671679268
0,553186709480769
0,566950231141552
0,553629249688959
0,573943455468338
0,554113902722401
0,566353968135024
0,557569501072551
0,563660047914231
0,560990655736577
0,56262469358256
0,562517560827023
0,559538713647743
0,558600516156811
0,560351261387729
0,559128328351611
0,557885499419961
0,559169241634134
0,559732860968541
0,557100808227446
0,55994539263257
0,552352845006792
0,553178733451802
0,549586676226579
0,548979137473256
0,535405179048302
0,539971470010151
0,530839367666275
0,52849271627133
0,524067699388733
0,520242831789635
0,515813447583247
0,514849505880561
0,510160483628437
0,506621623709262
0,503986653352044
0,499265905354348
0,497940808887695
0,499720015516074
0,496486928816234
0,493438209966135
0,489812018875982
0,486681831228356
0,488731087338176
0,487337527042613
0,489569325214385
0,48775872022594
0,486288522781785
0,487816626978469
0,488198338240379
0,493287153123504
0,491275714832366
0,493696744534572
0,491932950251979
0,493421187773713
0,498408389271137
0,497670389569166
0,497747541991595
0,500680181597769
0,50259802667725
0,502225216057243
0,509747144957023
0,515146644790804
0,510464383133323
0,508417289452129
0,514963044857281
0,513808517552741
0,517350093297824
0,515370411152618
0,512597491282423
0,514954113542504
0,510780862458341
0,520795725194386
0,516159665981275
0,51537833283402
0,514661571439813
0,514699183919645
0,512514131761355
0,50822257977686
0,508667763337894
0,51384953538398
0,503732814306216
0,506039246039943
0,505970187293538
0,505822984726739
0,502767056332735
0,502823243375737
0,501465614725803
0,496293884367966
0,497390383198976
0,495903873703371
0,494563949788447
0,494286001339403
0,488443310712269
0,487751673851464
0,487370125684564
0,48446918829807
0,48432268659738
0,4838604190632
0,480147852743159
0,482395714647705
0,476064285157943
0,475123030135699
0,475633819191771
0,476121216792863
0,471538783372787
0,472697323283731
0,4699876235312
0,467500314687805
0,467318253109724
0,463715747873541
0,461747473467075
0,459074115122418
0,457971432323168
0,45509241196099
0,451335781501883
0,450709055048775
0,444978873137891
0,442477117791398
0,436078104278364
0,435850406490867
0,432285295133774
0,428136962228811
0,425276750876685
0,421240141471833
0,419025232712964
0,42037202462686
0,416391810072602
0,417238738443687
0,41564234742229
0,411262798297309
0,41095478857598
0,408049250537778
0,407918200794436
0,408508288726965
0,403006532843186
0,402787475241499
0,397915451976479
0,394680582144308
0,389291978283596
0,385421937551278
0,380580372976429
0,373727870858412
0,368174317042311
0,366005308672411
0,359511865569239
0,362606725428315
0,358335489729278
0,359483905569512
0,362140714422938
0,361894516652874
0,368945978155148
0,373611367324142
0,381636106196679
0,389788770530992
0,397357449649354
0,414270329125422
0,425658885273709
0,437341775940812
0,45550902693301
0,473975624065674
0,483369957286511
0,507710739337896
0,518975594003437
0,53398924609633
0,551428991576164
0,567831029209066
0,581512461897514
0,592891004196357
0,612950211878521
0,630729549839436
0,641488694087043
0,657278058718363
0,668890870482223
0,683259741552927
0,694360266606274
0,703784310904733
0,710674096558326
0,72237935246623
0,729823910030946
0,739637781914189
0,748334473259213
0,756683156860411
0,753615590475929
0,766116468982606
0,769479761530096
0,771532819062831
0,776102372153407
0,771242128703737
0,779484474133391
0,772501681672304
0,775719552052534
0,78365598010704
0,780729994933502
0,782169514119329
0,783007823658885
0,780794906595323
0,786678019508523
0,787739743873327
0,788194145588354
0,790032152890058
0,800879684267991
0,802178027015103
0,808353425381043
0,814957119150352
0,821270045868738
0,833076658878001
0,832076982455591
0,840526264310222
0,850515792571433
0,858866472685782
0,865592394733997
0,884961247179728
0,886471188288404
0,90146085139068
0,91627785426648
0,926630395668441
0,942116432769111
0,953137512111218
0,960123349382496
0,970753534592624
0,980055287749596
0,984679035998026
0,985007551409959
0,982254421421923
0,989361405746275
0,993910989815688
0,977928741251449
0,972086859288976
0,972115352260475
0,972406925607243
0,96876799335587
0,969441491260579
0,962703569795237
0,973056345352431
0,974234318171817
0,976469610075347
0,988670912568835
0,991393479847986
1,00407663515429
1,01709265549795
1,03209158573539
1,05272669915551
1,07369309961714
1,07485028069509
1,10281566413826
1,10094491634641
1,10857500846298
1,14012469444555
1,1676019514039
1,1640839408564
1,19255390964341
1,19489543950578
1,22182500129429
1,22013501973508
1,2475406196735
1,26289468891992
1,30183840745863
1,31895186318545
1,32374325654837
1,36994384647754
1,39088848760177
1,3692901437819
1,45144395138113
1,42364072103545
1,43048746527508
1,45694232210555
1,47733800464415
1,51078155132872
1,53316132282815
1,54426575244058
1,60142624153677
1,56941154041006
1,60430597951531
1,56573935299773
1,55804856732845
1,53151102828026
1,55438953514539
1,57126171750708
1,5971155363999
1,5636544956524
1,61116866618779
1,57854549736539
1,60918707766801
1,53866773068656
1,52411002180114
1,5526362172344
1,58411636023737
1,57132849295452
1,61332484581453
1,58531205169803
1,64537016114011
1,5882910886887
1,69773284680292
1,65598821628246
1,65825716760751
1,6531172844085
1,6546710084615
1,69227149152524
1,71815325452588
1,77102862548727
1,76626377058795
1,72519882950625
1,85442473799636
1,73047700676824
1,79771239359399
1,8340551501025
1,82425190372744
1,78906483752965
1,8162715311699
1,81644612030561
1,81203537474161
1,82631372537909
1,88323407535949
1,84055287287306
1,96098097068414
1,83805839513336
1,89280893668697
1,79189934654356
1,91600630068553
1,87087929627215
1,91497061914688
1,91984274099932
1,9195229170005
1,81486001056259
1,9357378362131
1,89986678608712
2,15189393033639
1,94518510966183
1,9826025760855
1,98031185716183
1,91446163235064
1,77415240603039
1,912811383737
1,77386631896981
1,7250271596974
1,73689001856313
1,77154323771438
1,70919322657805
1,7824957703621
1,67467085340427
1,64078033219421
1,55197330636862
1,5592895085836
1,51906353055819
1,51424385872826
1,50162020113631
1,51862879347948
1,46310452386354
1,5006487425037
1,44311284987586
1,47529228149758
1,43983681845618
1,42836613312023
1,41882274870647
1,44076289232656
1,44760491203957
1,41733578562478
1,41307729015607
1,3945130386054
1,31896898256155
1,35984203468641
1,33031174041463
1,33108325844913
1,29747198898296
1,29172553505394
1,26343937322447
1,25976922059582
1,23109690409394
1,2038891149385
1,14162963312085
1,15687074943271
1,08877327978924
1,06246186741334
1,01684217271713
0,98142551816832
0,94039316107702
0,911277520115524
0,877383994671226
0,850136022146763
0,823483574457499
0,797960477407805
0,758823152205859
0,738101326134975
0,712140949361298
0,697686224829738
0,676210859986269
0,671375266687859
0,645645514452882
0,639255276712114
0,638269470178227
0,624510310612655
0,609620433039639
0,60766898459388
0,607947211366124
0,603273060610783
0,594438606810071
0,597932737814913
0,591142933113972
0,586981768528892
0,594799409264783
0,592602751255828
0,59855159099253
0,592687671971342
0,589664667221594
0,589800022800515
0,582265896701951
0,590784076150299
0,589677664641106
0,582403820423993
0,577029342796085
0,575152984183147
0,565911030770814
0,568452076033744
0,557521961941809
0,551052205978973
0,551530082565514
0,548169207466829
0,542858412655784
0,537152374404505
0,53952835237894
0,542247354781648
0,542286894604933
0,541007098307567
0,539759182870693
0,542415733033088
0,545409254572899
0,552581902277422
0,556191672845597
0,561749396398826
0,562725408710761
0,566011143226401
0,558159784077779
0,564414545771963
0,570982994159455
0,571563329634257
0,575200887700254
0,579243333005644
0,572355486057671
0,574285414163149
0,566396399366276
0,573099939633183
0,573296265896289
0,571648303752455
0,568380127178347
0,583829361515818
0,5815732676589
0,579122223503546
0,581580312296265
0,587726940045323
0,608662320742854
0,620008724123892
0,615907319543945
0,633597567958957
0,643816039404753
0,66394101917914
0,676559339429379
0,686952131933125
0,716153951611497
0,732507470253999
0,730301461147028
0,741379276837815
0,737182879432399
0,743642055212955
0,715029973340845
0,729016327609367
0,734899479527072
0,727625659274917
0,713290380880372
0,698479129694248
0,69670404092918
0,686672891081353
0,673675779473311
0,671288637677294
0,677188622115615
0,681870665171562
0,67772948419502
0,677573893948486
0,672693792953504
0,688900211491481
0,69774876602664
0,693237486666633
0,687228633008366
0,682717619033092
0,680425684539546
0,676809688546545
0,653621649507268
0,654632343978214
0,651817187636722
0,643485676361841
0,636762509621255
0,637837810896057
0,637392814787485
0,638584065283258
0,617143861148472
0,623070041361683
0,61686568847076
0,625448391015295
0,61232615513601
0,613481530042411
0,60961720900183
0,606349010068174
0,600075815125122
0,595767609171228
0,596681264687067
0,595500028374738
0,597036455862675
0,6097035646614
0,59748466449436
0,589395519665661
0,586791227128635
0,587744843798411
0,576743261506337
0,584348024013501
0,581159617623691
0,586371563012413
0,574573729928548
0,56593866236112
0,564507750534808
0,569270563070736
0,561935969882182
0,562786456206865
0,55457988905659
0,564122500813348
0,544704499680137
0,548736840210462
0,559884809452748
0,55829937984985
0,549632007356481
0,545794358352663
0,546361307293206
0,55189664109217
0,55468505972494
0,564907925661017
0,545362515495656
0,563308589786924
0,561850011137094
0,550552039463306
0,554153518026628
0,579747566049529
0,575299017622336
0,564488508236479
0,561250475643344
0,56006767788672
0,56740792446073
0,576601954420794
0,558669406334913
0,565793899640529
0,581136446795012
0,583274821804101
0,568300213472831
0,583873032173948
0,584962138856634
0,603348415181795
0,598967024988936
0,60805387460305
0,600011872176634
0,624553410390194
0,630134078884797
0,640455323593647
0,647319737918773
0,622201509309021
0,64675438042418
0,661853690294418
0,665118505160949
0,701296667589454
0,700783690969543
0,730703751555907
0,745001286220138
0,748352900061272
0,764803429341826
0,787131702392392
0,826718762911715
0,835842249133622
0,814584136315979
0,845479359452947
0,812282114512921
0,885538453674308
0,901352712781336
0,90996995083715
0,907881817091515
0,903572171118405
0,879711252168174
0,868573144706458
0,869707387192882
0,899826770030533
0,895151676477717
0,870712533686852
0,876363923559093
0,869755473122847
0,884611888646838
0,927922653844241
0,877301842244853
0,86981915092849
0,869082096169145
0,841380147397453
0,83614788698008
0,900781308522492
0,901264069423054
0,874048240741171
0,844797156857201
0,872129386547398
0,821639917113109
0,819521393111475
0,848861401137662
0,86981311044164
0,847833699829499
0,805737388120954
0,807082716719266
0,836792992890971
0,804171331858102
0,835253509103674
0,824213067876567
0,82962568206888
0,822616961381325
0,825505761848595
0,82390274955491
0,777179790537075
0,753616703788285
0,842920811838485
0,809447566336576
0,774159376687526
0,818479492529506
0,865162468821492
0,861725018192935
0,834482324149841
0,810949115345238
0,8115299450153
0,803672320394975
0,853196634754827
0,833857963131236
0,824183064686619
0,845948283309152
0,819804057925089
0,822030321789966
0,868844629540263
0,940522495132534
0,863307420525157
0,834215634208205
0,974909659125651
0,916473946259171
0,835447838677673
0,872437377631132
0,921438839109228
0,823477669128966
0,874294460590751
0,900090064334708
0,849815814479528
0,920076679103426
0,984668707491176
0,910462324880023
1,00111046830981
0,989366495477587
0,928585202379649
1,02725220081594
1,00944921479423
0,896507965240824
0,9982500843812
1,0312066816645
0,964815932827514
1,02206798015865
1,28983671128685
1,18380892986528
0,985999041914856
1,04839799456161
0,945610736799237
0,92709593257455
1,05825899663779
1,11750454310348
1,24833565634253
1,10117529805059
1,12297833091186
1,18431556271383
1,27116756010518
0,974266632683951
0,77790433573676
1,19186022323227
1,27126190229023
0,956749144299301
1,06266440660593
1,03277756446772
1,00277949322036
1,01350390502727
0,960542767917729
0,820904162919741
1,0878628422907
2,31230418356231
1,16323127331936
1,45694858544866
1,19654674173176
0,915913366781216
0,848690870879489
1,37074183696263
1,30069533611201
0,910117378953306
1,17878360512944
0,879485141255449
1,10723912953914
0,918203434394792
1,20471463454579
1,46202526302338
0,846044335001613
1,62951670821205
0,991651905575402
1,34693098775487
1,40294644965938
1,01274241096017
1,20875001204027
1,80359904025522
1,61637957882319
0,997526366736691
5
0,980074240683314
1,01702406656131
5
0,930755150698971
1,35750827665892
5
2,60683076939897
1,5213380005062
0,838129061863082
1,46715700197973
5
