3596
4000,36533379555
650,420452594757
1
2
2
0,0821195945479846
0,0707802793643823
0,0793007864236545
0,0795057794675745
0,0819964595210538
0,0776822505377921
0,0883074735862592
0,0625258086510392
0,0786450192277274
0,0737049050690432
0,0852482217968874
0,074967896145363
0,0784490104499767
0,0679634494650296
0,0841914460562012
0,072404782687201
0,0745774436095921
0,0705604144173813
0,0846256157547196
0,0746306010760319
0,0812642402644999
0,0637518462567637
0,0857834756123325
0,0736758014876278
0,0829768001823926
0,0771715858874287
0,079050896246693
0,0729066573125147
0,0809675610168824
0,0782219324405701
0,0790872856866348
0,0742276916754659
0,0843065423541793
0,0714314907702045
0,0785977042321397
0,0722658551133171
0,0831374081685575
0,0762284160821749
0,0732029492997961
0,0708441373027672
0,0944268255816918
0,0724369797643312
0,087968283315168
0,0723795600030173
0,0855109736580814
0,0708300314061889
0,0762074831349472
0,0719372650086056
0,081783828604216
0,0702449725466193
0,0789209994445572
0,0648618070284272
0,0945090400038876
0,0865068330979021
0,082266553400644
0,0876990330097129
0,0906558644960083
0,0626875992897009
0,0816476054184259
0,0719726819136218
0,102366877202207
0,0966889984017159
0,0795634957101501
0,0745359212384521
0,0756253211554979
0,0750908073206058
0,0818643063544902
0,069620635485046
0,0770292640539579
0,0745863034908409
0,0847785009603861
0,0802858539166706
0,0931757496285465
0,0733169952451152
0,0826825721469621
0,070968009534288
0,0721548207482064
0,0705653599214865
0,0723586589838989
0,0735131412703015
0,103210095145514
0,0819344539051434
0,080866583708927
0,0607079763379662
0,0867833004170949
0,0881576759852758
0,0748178878488728
0,073748126522628
0,104884899138409
0,0808008359593629
0,0834017346578511
0,0752769926294514
0,0803289129039465
0,063693587186442
0,0724343910096049
0,0689937879181451
0,0831694478967811
0,0677607386760767
0,0688246346210621
0,0706466843042516
0,0859990272452876
0,0909374932308769
0,124102057148456
0,0814917261831768
0,132869806643898
0,084013788403153
0,0782706992334582
0,11092599998711
0,100646412774192
0,0749002247266017
0,0724348063844313
0,0660596382312015
0,0808052912284085
0,0770927005247909
0,0787173858627239
0,0892296496504181
0,111503174762176
0,0680271611180504
0,0761449793033334
0,0690788460041358
0,0680738847563279
0,0918352790434217
0,119742401068918
0,0755837390031964
0,089416573724623
0,0683914194004152
0,0805038643470247
0,10887991322184
0,107604400075717
0,0738134176341884
0,0750632248905135
0,0712537842796374
0,0721403275298455
0,0767815121041489
0,123218277560106
0,0791350150968815
0,0816277887291361
0,0710924036987129
0,107225594164619
0,128358476995528
0,0989198624454411
0,0689529731127836
0,0684125823942287
0,0697866515725205
0,123145272137176
0,082084266284647
0,0782814493563435
0,0981228222949332
0,0919288286700345
0,0711775178213771
0,0761599086299443
0,0643942806978275
0,0995347980039933
0,0748706981663814
0,0585418100454151
0,112122289320111
0,152933194843635
0,0967751098092143
0,127233886904983
0,0814433953588175
0,0870052854787787
0,0711523422006289
0,0780500543323902
0,0617805311242668
0,0698567251605632
0,0539947477111232
0,0982112994687824
0,0997787043106423
0,0746315267318148
0,0795189404382232
0,118935130807257
0,0890590757705879
0,0783090979419044
0,124505705756931
0,0991308366274979
0,065277183570733
0,115829187267161
0,083478892601454
0,0653217380455608
0,0833876416850349
0,108167546135018
0,0692781111703477
0,0783582675107896
0,0676809441555867
0,0839000395830908
0,0888927488197965
0,0843601215882232
0,074189614951204
0,0810527642078674
0,0622715165641403
0,106491268481465
0,121653297085002
0,117557508629752
0,082654141549537
0,0767898453047856
0,0457846418504403
0,113228246550592
0,105306281929732
0,0786907576574959
0,0645467773169837
0,0694655267191267
0,0636496875865144
0,0720796868501046
0,0608213028597556
0,0702087966670554
0,0618524246536589
0,120888388039806
0,0888174036667554
0,076870321106545
0,0612275312288373
0,0829885853812737
0,0669892471744108
0,131572360535764
0,0966143582080362
0,0820054855849621
0,062279291700274
0,0706300170921147
0,0774910108692197
0,0966502751090312
0,0664293299901636
0,0751547388707021
0,0610439128160679
0,0730777360920918
0,061371211623837
0,0732137370057703
0,070307109841126
0,0754842966775286
0,0611856649843955
0,0719186404692956
0,0693110796959367
0,0830208692450631
0,0759920982073293
0,0807344691480988
0,0631772708728372
0,0621265090923339
0,0752081774940608
0,0969877696606384
0,0782336760609637
0,0765206245436289
0,0679367220030077
0,0753595223027015
0,0622052400276988
0,0688702163793302
0,0712141554928215
0,0708268980517647
0,0691173412553218
0,1150443095375
0,0787585616372156
0,0790628820693652
0,057325191986915
0,102541035858845
0,081296863660647
0,073748305562003
0,0659355606019918
0,0815234798046625
0,0568800119629069
0,0791611006693756
0,0980121440742081
0,0917342001466107
0,067253893143729
0,0980470412245036
0,0709678193984001
0,0817114091480212
0,0628993939364158
0,0726832259077527
0,138598392912533
0,105100422953103
0,0750608461673656
0,148667401757199
0,0884506559184641
0,0930225452320441
0,0665742170997028
0,0676766075032279
0,179781656573848
0,149063788019717
0,0771966727849007
0,092553670864828
0,0927309573489796
0,0769732069961136
0,076355130366853
0,0898464291529357
0,0898070449564658
0,115811918424909
0,153612442480072
0,138162915632582
0,0587956084287749
0,126591509220587
0,102951184466632
0,0907320207572037
0,072566958685401
0,0748247381322372
0,0657152464678701
0,107949215266701
0,0853847813805249
0,112323454900039
0,0748361337559833
0,0881805838603527
0,106903297666883
0,0949413848020901
0,0659806512905326
0,0896534557165779
0,0835224515707261
0,0790052643331877
0,0674150485432093
0,0767855653248512
0,0783170285534274
0,0779065582604313
0,0810010967813217
0,160706355403479
0,0854546940570851
0,0917789895564961
0,105800852957084
0,0914170664352073
0,0716855213902214
0,0824489952773704
0,072965802483714
0,0837742365625381
0,0691019119847835
0,0776532112115791
0,103549550152428
0,0893164362412199
0,0746124480926506
0,0779536673663314
0,0643388224928136
0,0821882088217124
0,0737261364775043
0,0828202993121078
0,0752806277961399
0,0863180918730778
0,0675760215092254
0,123828345387789
0,108904189294549
0,0694892077748383
0,114735806413133
0,119518511677074
0,092851653191825
0,081127616575193
0,077412785384978
0,0907507782442251
0,0762075047764719
0,0909931846646754
0,0782514959216005
0,0934000318256177
0,104715735910626
0,106566873736823
0,0857939361042807
0,10797524381676
0,159272695803237
0,182432309398119
0,115150219329555
0,107361997084042
0,0742350711800019
0,152860390307792
0,120541774447801
0,136348558965019
0,117561103147029
0,106332547952761
0,10097573845816
0,0966379177521281
0,0958654785389467
0,10182820044311
0,105329876663381
0,107442423635724
0,104904990934274
0,109997394126248
0,1088398627833
0,105448862018828
0,121463694710867
0,1635399742253
0,126317517674978
0,129957444177308
0,119859531612788
0,113713058536487
0,159759170710729
0,158864693141876
0,182275360802869
0,152931726826639
0,176181774414855
0,196842898163363
0,134567555532765
0,141551353182876
0,114333416574555
0,14347694897434
0,13874317330844
0,134247023011237
0,134581900766674
0,141676158354803
0,139557372861443
0,145907587037156
0,140373823594628
0,144603769404678
0,146053409758793
0,184359432715264
0,147781987253802
0,162936256680964
0,142647773656891
0,200468599948589
0,210906828973624
0,231793070919799
0,168595279176692
0,189563292859784
0,156815413693131
0,175759113610903
0,17180654709829
0,18859657431416
0,173220079298468
0,187327321913242
0,214775920071619
0,212233545245717
0,200964928016358
0,212368675340996
0,177985994176856
0,222566115232072
0,196520623785069
0,231799379286585
0,231449377895139
0,217345029946565
0,184700795134445
0,249401390458251
0,207166031210951
0,235377572493919
0,231798090446311
0,223187744276569
0,209635962710755
0,229485733168847
0,224303478821777
0,232087067784541
0,23715279950073
0,240567387279326
0,231819990549368
0,244492448059281
0,236541813862327
0,245947416367882
0,259449955388499
0,258865215143458
0,243753785285674
0,267891178467888
0,237544027015132
0,268279927480028
0,239206170477893
0,304171387236647
0,268744106216123
0,315977382504647
0,27356535089979
0,274186285189537
0,271465705840713
0,276689071724468
0,259237221970736
0,281909988034034
0,278415249358254
0,303452001822782
0,267658064042357
0,307535654873757
0,287107146905102
0,301940302537273
0,293101068620726
0,307174503276931
0,302102422618843
0,319037884764162
0,300696270828896
0,327977781582583
0,302137328021751
0,380906009616272
0,351440597347527
0,383828931370081
0,364551408882089
0,351230811321529
0,332134598755811
0,360075364689371
0,335391738884302
0,358125701359337
0,345640462945683
0,370985993647617
0,354492157544487
0,376438027950445
0,369130612386285
0,375329916907776
0,351223500782758
0,402249637503237
0,371129293990985
0,407216105632748
0,377888317195122
0,401689275140452
0,373176118244761
0,400265102098651
0,407905791331356
0,438681764748681
0,416660951732746
0,426917094563294
0,412421724467867
0,425637706547179
0,402959290689992
0,439789946561261
0,424884357966746
0,451470937919358
0,401088040908888
0,465260887863506
0,439301376135235
0,473599348240849
0,426412668151925
0,451293220529653
0,464774655958716
0,460557485904171
0,451396641923291
0,495165532073677
0,461176983732342
0,484237071006172
0,49492711652224
0,511893474869166
0,473299140513608
0,504738231069619
0,482365239428155
0,522697569740935
0,486880018565426
0,519249639971176
0,520355772979205
0,527246621882789
0,508912834942201
0,544707163504371
0,512478843351177
0,546167489226639
0,525616976525598
0,57915676644192
0,526082689333711
0,568039605149793
0,561743654693033
0,585622653018586
0,547089744516975
0,585567556376206
0,560679049485046
0,582553608716625
0,547455160970961
0,610908845810354
0,597042831212896
0,606329194089408
0,599678129883982
0,618356545903543
0,606398090124291
0,603878007122626
0,584599375543417
0,637448031998735
0,639050845166321
0,643021858047895
0,63822850639418
0,650020322382702
0,615917559146796
0,697047520643863
0,592889654088842
0,674302333860504
0,623329722204305
0,691476936402236
0,63410192330024
0,729919015561794
0,679512194583498
0,700074034972297
0,670148689598302
0,699275914430543
0,64251976246571
0,676946476577409
0,68007047531466
0,723539279578848
0,668611249377682
0,717740724757359
0,705493800108189
0,722657595407073
0,713691522322264
0,736871762517661
0,696229878607911
0,732244623126641
0,727472139032393
0,775647060182959
0,732303677337081
0,7655315072
0,725903266091619
0,813428078715675
0,745510323346403
0,769068558492617
0,758877009007099
0,778604145507053
0,76259498904836
0,83347985097067
0,709112071802757
0,817878571899487
0,782910395744179
0,819269753926832
0,750685284932256
0,842797899872063
0,749084286759631
0,865659107279859
0,81442154288572
0,873550474844869
0,827283041783083
0,811682478796859
0,834172607811688
0,879177519491965
0,820656490947392
0,862152872259801
0,825935568572243
0,895612364542899
0,846985393968459
0,882425317642886
0,867619376700406
0,869476477798117
0,812292760384979
0,87166093160538
0,83540258129242
0,940055129709633
0,866267410400839
0,968643061253624
0,891866676831171
0,938154288408917
0,887603424877553
0,95536801032647
0,881476976633774
0,970411237152592
0,910146908734704
0,944049559553964
0,878101053708579
0,977575054014574
0,875757324625437
0,968434889798002
0,891961435824512
0,97366257720278
0,882598697642418
0,918247216378553
0,892691142907948
1,02437505608277
0,954745726526887
0,997357070437972
0,932789316121468
1,03162576497058
0,93125469129886
1,03211689503535
0,939085193376091
1,02964514206986
0,940446489957459
1,00470602210935
0,985097872131942
1,0795316327913
0,958669016872433
1,02765843443704
0,984777311632905
0,996990472218616
0,94671110532573
1,05768474178054
0,937945398403392
1,10826816339894
1,00455540135631
1,02901851069708
0,99815345690958
1,08400394135868
0,962481561103259
1,07980098128842
1,03742208147447
1,04756417649847
1,07565071940016
1,09079890663402
1,0076567850803
1,14727954125035
1,04615649355033
1,14250029248437
1,07593762056918
1,13555998958093
0,993669025745765
1,05982876366405
1,06437239748996
1,08817522524953
1,00750466578284
1,07196786775982
1,05228427313977
1,12466254527385
1,08469647019133
1,10364409626891
1,05791720138129
1,10680040230586
1,0620123305495
1,13050929847518
1,0419556880253
1,04194035529341
1,0670766177866
1,20717197436763
1,08916746961013
1,11729429465498
1,01676915984868
1,0927944470828
1,11632860717701
1,15844978223113
1,04687891574298
1,15906488245413
1,03492608072696
1,20233257996988
0,998059923391947
1,19059855408414
1,1702876438617
1,10130061969352
1,08530389067138
1,14855550867662
1,11949203401081
1,14944955497581
1,08288438588334
1,22426526529953
1,13789391907849
1,13809310799634
1,10154157994123
1,18148801735307
1,08333134237831
1,10403133455378
1,11721694773951
1,16372984199659
1,11396385687511
1,21654663470007
1,11823341963551
1,22745638745368
1,0912433044936
1,24234594097303
1,07893218629276
1,21898796380043
1,0708061282459
1,15680125413793
1,08966293624491
1,11374661995042
1,09911712099766
1,20163427289773
1,13374286278506
1,17566576196735
1,11303982185939
1,21042248056337
1,13704936412581
1,19724178379671
1,15425093144171
1,21322163442507
1,12493722054111
1,12187180645966
1,11460637101087
1,14522915655508
1,08017630592413
1,25299261511294
1,11108913124433
1,07539423918561
1,10380630497995
1,17810903557042
1,16697436816749
1,24233273110964
1,1242477226298
1,11629646422657
1,1486525445064
1,18016661845922
1,10669870801124
1,13520714117667
1,11462049859114
1,11737991047081
1,11270623484459
1,22422085355342
1,15225740631053
1,16517562912797
1,14267884917851
1,21078368126933
1,09974858651474
1,12428692843918
1,13692739515573
1,20583862178306
1,16957130934984
1,14815719222335
1,16796068455889
1,18879111957696
1,10824053601274
1,14042328832603
1,10433454165457
1,219484520562
1,11057497232557
1,17981711790229
1,16136429628009
1,15190288901685
1,12035884580502
1,20448994253456
1,11854484504086
1,17697608621072
1,09635153604154
1,13303495081346
1,13175924530291
1,12900100133203
1,13018338914929
1,20060311044658
1,12653358599161
1,17805556656192
1,1373170435819
1,14529012146763
1,12832480959254
1,10739250199761
1,04304875767538
1,14988077921958
1,08505601575543
1,17762655957969
1,14727249709264
1,17942440334541
1,08878227676418
1,13936736116183
1,13494187612003
1,13740258727998
1,07147362779177
1,1617699346537
1,07559843325243
1,08480055480899
1,02986772840075
1,0850254069983
1,0643234836558
1,07816837681459
1,05834100052862
1,11353779041263
1,0937267447312
1,11339633643679
1,06277561666108
1,10511024258861
1,09110008655814
1,0961413941644
1,07461540986944
1,12773171464694
1,06747175960275
1,09349003862483
1,05956391373628
1,10477215080883
1,02568435764708
1,10670517290023
1,0374882807839
1,04996070709086
1,04851386822643
1,09205122598728
1,03158847404707
1,07842233010616
1,0670879164981
1,09846690206541
1,01980198665313
1,0526742892582
1,00253334367331
1,06041183245574
1,00505150872049
1,0609699528613
1,01837600242597
1,04153010949506
1,01929345521444
1,03486527120337
1,00713829813088
1,04188297994665
1,00830055625303
1,03436642733111
0,963088909864589
1,02990099376823
0,977951055551792
1,0177251976691
0,993233406952912
0,993777778986626
0,979598864234172
1,01167228073822
0,978488490740598
1,00967140296674
0,976350118694886
1,00610652397434
0,974213677280484
1,00241497339651
0,969701696957066
0,977450946951506
0,945638543845007
0,997019076820997
0,967025334013442
0,967304199246452
0,915062416488481
0,967804926402533
0,926356126150969
0,96906352561146
0,915279431956254
0,92707128618544
0,939909525725334
0,920394518633896
0,933907807712886
0,975962012156429
0,883348037071032
0,921589699641948
0,895580005968895
0,922676460205323
0,855502440961527
0,945149509808674
0,911843262607395
0,904147414932185
0,878030399501656
0,899033855427986
0,8726154282137
0,891176464425461
0,87068025485697
0,880985654099361
0,851043983597072
0,897479994564565
0,878394751265046
0,878394804822319
0,847095391071567
0,872662262286784
0,836345269354233
0,872472456802199
0,844301402810786
0,853961571306627
0,811950620902165
0,836995180782355
0,798478032745612
0,840127217517122
0,814001409632203
0,825380271337044
0,800394360132136
0,838706101435919
0,769706199226095
0,82595491517945
0,771217261163217
0,803443629123652
0,772505225429806
0,809221664396135
0,775844495938801
0,809012436557445
0,764839187512183
0,780411875201881
0,766980334066173
0,782218767407537
0,770589309418271
0,759940282359722
0,739950297517277
0,755037152476143
0,7444932758194
0,768003369419741
0,743173641971901
0,770828075325232
0,724028137495943
0,747545737674134
0,707984460155159
0,737144675471603
0,710164116627455
0,729837491436176
0,711743093553065
0,738267759597356
0,726041050381465
0,734773152094712
0,702932506407234
0,721288376486369
0,678122303978538
0,704577234193187
0,696659614549457
0,697376511254992
0,664610102923988
0,69625910139762
0,678956637773569
0,689609640519377
0,667070478679595
0,681824302354661
0,675154585843117
0,682943643542681
0,647772401704212
0,679011347456988
0,64309993774403
0,657798153111109
0,642033285822876
0,656505812789109
0,653911524415623
0,652645263124011
0,638871862191163
0,638745555564439
0,629775223012501
0,64167013672552
0,625667220541582
0,634163676276108
0,628200294659422
0,62717803847107
0,601738983591355
0,610439147638709
0,600416271940706
0,61499634396672
0,61024683659071
0,615107929354456
0,595509649194401
0,606274310593027
0,573495021182058
0,596703875950978
0,583501163090166
0,587552994141004
0,581991838562841
0,579698570640863
0,57211359401659
0,584966237255413
0,565727251602824
0,579370135355096
0,564576850139032
0,565928326230679
0,553566647947793
0,56654187594562
0,552564125171332
0,552671271699904
0,547726789990957
0,560328041021133
0,541496123132124
0,550680599308341
0,528009885653672
0,540109907341656
0,521152806819487
0,530052715221043
0,525284474703087
0,532225748968634
0,535767975099421
0,538971675500343
0,516362816080187
0,530073213377085
0,514328229891587
0,515308631412094
0,49992187756727
0,516977268331112
0,50591092980017
0,513692455961196
0,495694711079715
0,512001107861542
0,487561108732133
0,494787692307645
0,484390556182933
0,491432465121373
0,487798680828849
0,48642499715867
0,482441285610817
0,492197081773584
0,474978644316093
0,492196227391884
0,47368257136331
0,479438656127966
0,459760001692643
0,470825658408804
0,464390768571806
0,472762011777074
0,46741991147237
0,464599705079324
0,454677878588468
0,456631590212794
0,451400399686068
0,455152920045934
0,445040924079156
0,456153245718194
0,445849517440545
0,457113746277737
0,442468050269023
0,444276222268812
0,44095514473192
0,437786548120187
0,427602755907236
0,437268405695738
0,434638268675081
0,434136557500106
0,42094841524917
0,434576101897112
0,418173960068614
0,424313607872024
0,415083012390173
0,420103786363615
0,407615036577773
0,415005096176459
0,412070908089082
0,411010119921636
0,399398582632122
0,414527385186152
0,401175813766106
0,410489458612399
0,404333302676585
0,405056915999829
0,401085659941894
0,40644850480903
0,397492352785505
0,39937240900929
0,388473086941091
0,396276309973076
0,391219921699294
0,39314462806641
0,383290155291061
0,399054282456242
0,386854905034209
0,389013848603883
0,386238418008192
0,392434359768574
0,381481561441856
0,388897338623331
0,384150479620554
0,386326707932514
0,381558517407879
0,389361645167803
0,388592637760751
0,392241068017729
0,386582452241016
0,391918117037097
0,384265748112448
0,390769710775634
0,382272947464538
0,391488756273502
0,383488641532304
0,389310459607933
0,395251556675713
0,39391603533678
0,396679058736936
0,395017732718729
0,393104350451322
0,403496119603344
0,396885473071762
0,40314055594312
0,395233465952534
0,402088186122193
0,39816329771519
0,403199596240774
0,405070691840922
0,411017042179892
0,414804944324626
0,415209494681137
0,411352024586978
0,413327791692348
0,407654171740781
0,422459853678335
0,427123892556091
0,430673855308656
0,420535938447771
0,433704845426442
0,420044989808773
0,429240765150805
0,432594953106985
0,432450137740328
0,437181629684587
0,436039363553083
0,433684793807911
0,448587973803804
0,436302653448087
0,451555799521481
0,443531807097714
0,45382644600884
0,456126317818362
0,46196258773402
0,459202503804221
0,467104761133679
0,463071140962068
0,466549097114026
0,468367001056047
0,48850804773638
0,483090167559059
0,4865289857507
0,486770816861469
0,49062819084205
0,481284078761792
0,506237365411306
0,493205949429017
0,501278990441004
0,496049330590851
0,502530119725749
0,49952255925105
0,502298938273872
0,495318671951875
0,50925027398035
0,504480050634329
0,519536066306025
0,496000842116244
0,510412814533157
0,505970528273606
0,513891074927159
0,506617528713715
0,514138568468639
0,503599834696959
0,501794120298608
0,501295300664193
0,513483949772507
0,498700710367024
0,500883991876294
0,491653147448527
0,504928610028052
0,500665820827346
0,502103610348382
0,505291175796783
0,505730736367093
0,504778969935463
0,512780759065704
0,49934665815719
0,505615727933743
0,507690843065842
0,506772774801517
0,501251113214151
0,508433900178764
0,509819655915825
0,502882567666445
0,499381748300539
0,508617805982118
0,509486386384186
0,5113400305316
0,510679859400948
0,519095803847737
0,501762007754928
0,508710179320834
0,501533046287214
0,504704400849328
0,504514186513459
0,526542078299079
0,510707171009597
0,512285085604094
0,509872198804844
0,512614763143965
0,507796789625272
0,514859036696311
0,503072613327056
0,515038598575591
0,503914534775443
0,509299945375903
0,497803115165805
0,514703344107659
0,502321540381389
0,502373255801534
0,494202083734643
0,496594269807847
0,492585532940503
0,492720536819029
0,493178737060326
0,492859616547492
0,483581001090936
0,489585034175544
0,483120939096545
0,476761677930399
0,472647973803575
0,476281406314737
0,466532352813764
0,466678580105858
0,459857848537724
0,465609000459125
0,461572423252938
0,456719967679031
0,445347194705028
0,453845481184784
0,451627044933235
0,441377946463214
0,434855644862488
0,439799556688827
0,431760631196047
0,427110948785205
0,429767205025833
0,428412361347297
0,41506226436954
0,421617402750697
0,418668665742543
0,417624588969703
0,407037179807162
0,412121014631411
0,405199804015449
0,40121641879505
0,398661920195277
0,407123463677646
0,406022000915656
0,39948550936089
0,390803991301314
0,395461070455989
0,390049813395008
0,392750764561206
0,383474751030602
0,386873156162433
0,382362242676878
0,383485243719425
0,374377888384759
0,376006770562288
0,38077968193975
0,377720818648837
0,370813674578339
0,373379719814211
0,368950498364481
0,366360751839238
0,356208320471617
0,364442227783103
0,362943419269032
0,362419422684999
0,362015216920752
0,357654083937408
0,351724817576517
0,362201874795763
0,354356946500506
0,352912222929373
0,349779420274517
0,350862548756163
0,348684763143351
0,345586243246101
0,344302450039341
0,345746249437328
0,341107475683964
0,342524437474427
0,33632065857933
0,338205598199798
0,340561331708725
0,340893489648833
0,335498414731275
0,331969523485356
0,333686803986144
0,333511219271751
0,325981442455378
0,331538423159462
0,32787086180865
0,324249222101328
0,320577762754853
0,328156038098614
0,323528489269796
0,323812069905882
0,317123548105122
0,320081156575069
0,313324021122526
0,317634219897732
0,320899703916603
0,318020854778381
0,313495027949259
0,318463771220959
0,30957478112555
0,313702705204151
0,307004182515836
0,312801266800401
0,30892440252823
0,306259902192306
0,311437805676097
0,308769247543876
0,302895390504336
0,310068012512423
0,300708606914063
0,301582006543474
0,300531373172249
0,30393168701812
0,302512369991697
0,301718197322705
0,295091888827371
0,298923358241583
0,295815233276495
0,301348573598083
0,297149697296873
0,298056122879932
0,293494736889739
0,293871283946332
0,295991065313316
0,295296581371416
0,290273202523198
0,291434972402395
0,292076548346462
0,296395782964867
0,286136492043092
0,289131510378022
0,286130971322698
0,289943442357379
0,288460780841297
0,289370938005079
0,282761296028606
0,28319739870561
0,285651075740046
0,283289983875103
0,280379376698399
0,287869871950793
0,278544917686598
0,281312827214844
0,281634150973227
0,281943786269993
0,28133058295978
0,283673536933597
0,27874390505
0,280711103542284
0,275526209943552
0,280335638829481
0,279456644772623
0,27613794942235
0,275834737995379
0,281167642135946
0,27369520480869
0,274008742776286
0,277415758758841
0,27880927421627
0,276519238679276
0,281857174603663
0,276397571360828
0,274925577462856
0,273343086395439
0,273073173663367
0,270265005418893
0,27360110971381
0,26993884378235
0,267707101421627
0,267724520569866
0,271400768452436
0,268078193441415
0,268916209351834
0,265849948519961
0,271357543710131
0,269870369566336
0,267377374487049
0,267300740112789
0,267946703510115
0,263920175133255
0,264397544896773
0,266754915816602
0,267404001543899
0,259933268146812
0,262420073197694
0,262331331900083
0,263102284748531
0,259844834906742
0,260527472739811
0,260346945373364
0,260350625419228
0,258197276936353
0,259153540915413
0,255763321230765
0,254208525172709
0,252395542898331
0,257333399430516
0,250384902175906
0,250212244404693
0,250867368476879
0,255518929805932
0,252881446434855
0,252297318803972
0,248430186178235
0,249056664913579
0,251663305081694
0,251627340248488
0,243719303222018
0,247329662536452
0,244425179035768
0,245599039038542
0,24343597269213
0,244711551256323
0,241583542907482
0,24153707771734
0,242628876227292
0,243217933352229
0,240200324228569
0,23990976887919
0,237993734052506
0,240618465082705
0,238043768678938
0,238603870118168
0,233823262263761
0,231829595628904
0,23110735391185
0,236659718592921
0,233411344506854
0,229680920505381
0,228882291478029
0,231867630242918
0,231021470911904
0,228170273859437
0,229677449940568
0,23023967582562
0,224931105752156
0,229645660431421
0,226556816366634
0,22370773459241
0,22378706608818
0,226362015430958
0,222053341967035
0,216064893418881
0,219083230289099
0,220034788013652
0,21494783484264
0,218243287466261
0,217613964830996
0,21491534907968
0,213585882124393
0,216626324643903
0,210247090616903
0,210474263910847
0,211816332553112
0,209718838683628
0,206069787970785
0,209390596260983
0,210636601951302
0,209663581870267
0,204025814298057
0,201904902871215
0,200663788555314
0,205647836971175
0,204586797644217
0,200715759579621
0,202180107421332
0,199895246107603
0,193287104077732
0,195278558477127
0,194747198773749
0,195339754557886
0,194726705643006
0,1947073156348
0,193067694399233
0,195950043287019
0,192003479712812
0,190034797727359
0,190522912484528
0,19072207622849
0,190656362562301
0,18878255051026
0,188776986622422
0,191912500845916
0,190824976526402
0,189974590664078
0,187015754623243
0,184150233991436
0,183541113798771
0,189289785327205
0,184705688231384
0,184982016152553
0,185158380606036
0,182910869486651
0,180113334858759
0,184107715187644
0,18562294535414
0,178304699192996
0,176142763102681
0,179587353046526
0,182610778151725
0,181897749782919
0,176842711576521
0,175755841813007
0,173560602945261
0,174097482707607
0,175207702092017
0,178236675469185
0,175544887147483
0,175291476877795
0,174529698774981
0,173887574775305
0,170737312845039
0,169675618425589
0,168969102662863
0,165100299626558
0,165584537076858
0,169929233853797
0,169660063923503
0,170102117429656
0,168159222023665
0,167167548223977
0,163270935945111
0,16667216607478
0,16699991834434
0,161598971783695
0,162501460652856
0,165011020679614
0,165023189871831
0,163399808810208
0,163890110356796
0,16347784478015
0,163252629922517
0,162922238912638
0,164100420676003
0,164348784332302
0,159642368451238
0,159246418505087
0,15991367081178
0,164602806873419
0,16277322314672
0,162228398409099
0,160331699076224
0,15900025947993
0,158814820165027
0,156425234561797
0,160099291226139
0,158837452422946
0,157433382443496
0,158941797304276
0,15545480850444
0,156487231959994
0,157179126395749
0,157723327184814
0,157963439216944
0,154631514725245
0,154430704182301
0,157467594624993
0,154991167479386
0,154143486457627
0,153257408117793
0,153715997538239
0,155918287548422
0,154601574050009
0,153256528132224
0,153407957711483
0,153253381145407
0,153367516927942
0,151712648230183
0,152746800786362
0,151667928896409
0,150377077878214
0,149491417709407
0,148929350459267
0,149465661803094
0,147426308360189
0,147834575370898
0,146821652074083
0,146671077253168
0,147012022621866
0,147016331268325
0,146744697454554
0,143969987997487
0,144911001494907
0,143746167862408
0,146917995892622
0,145467162624333
0,140360672716653
0,142228490077098
0,141641196053774
0,14449664056048
0,146272556895327
0,141632739226035
0,14031136046366
0,142482705063145
0,142205038666658
0,140647143028639
0,140523197371649
0,140204695215548
0,139524053264709
0,138282994128241
0,140119764607697
0,140875053040908
0,140800740981943
0,138914699400669
0,139863374808754
0,140610446179318
0,137049018241092
0,137119398500246
0,13708279009
0,136931914754899
0,136596604749936
0,138091364615604
0,13689607388215
0,135493922024064
0,136842231380444
0,13767480092286
0,138758828492136
0,134847681650253
0,132368515792522
0,133308230012289
0,134325439060577
0,134026460894126
0,132662610679523
0,130611871101692
0,13081223409881
0,133579693184334
0,130658642218338
0,127946395376317
0,12771362038847
0,129463023883257
0,131399678547363
0,128095352615632
0,126684226802612
0,126206896727089
0,128047247549179
0,127450857463944
0,124028180812663
0,124056229179894
0,125396303131117
0,126928792219613
0,123196898932277
0,121186441167155
0,119005310996788
0,122459650552075
0,122563582386613
0,119762990488453
0,122664553468955
0,120503919631336
0,11725278637289
0,118675563028277
0,118166491752458
0,11744489340389
0,117795897015988
0,118684833741889
0,116506799190146
0,11886477870462
0,117448614276262
0,114774504656999
0,115021994275527
0,114596531477921
0,113229043868806
0,113500758477296
0,113714886644195
0,111623240758789
0,112247976813156
0,111309140063692
0,113811341438648
0,114825937660863
0,112661631384974
0,111879873717004
0,109540328624592
0,11116089019026
0,112474477719664
0,110150234369829
0,107819183587553
0,110497192866206
0,113130732148979
0,1106976565035
0,106674355302426
0,105926575173375
0,108430033483811
0,10964116626475
0,107168580051119
0,105539790059644
0,107828394478043
0,10825142960132
0,104038357061926
0,104858473946031
0,106010346419306
0,102418827434425
0,103555738428867
0,10334930308478
0,103911365450227
0,104745951723049
0,102875917165756
0,102425980303701
0,101379311721807
0,100018893006767
0,101230260305347
0,100357956218454
0,0988153183983279
0,100479269355896
0,100251693519922
0,0992286730614832
0,0997127159117015
0,0978560709824976
0,0971314681289683
0,0974678501019286
0,0972510038765794
0,0962273559768758
0,0953211998598813
0,0955894299260179
0,0950969383730823
0,0959494413796368
0,0967227498728328
0,0950925711069266
0,0958668694029975
0,0951877477222138
0,0959569722971174
0,097017972166566
0,0936778560130833
0,0948137623251926
0,0936298956909113
0,0935195042365475
0,0971088920926017
0,0945759946795502
0,0959208867675209
0,095200714352207
0,0946489390046409
0,0953156240321053
0,0945218408968617
0,0969212457723695
0,0981955246188077
0,0958697198026253
0,0929807055205719
0,091029168546824
0,0936673257710138
0,0919837733710655
0,0923303757433728
0,0902437062941361
0,0912458405401735
0,0901948691579861
0,0836928951579699
0,0831841769492988
0,087809041661023
0,0923058489274552
0,0915212128832976
0,0857397526495396
0,0812040047102474
0,0827189789026667
0,0862218497861663
0,0812826685777687
0,0787224570915122
0,0797829530564443
0,0829206698953634
0,0820242574808029
0,0854424851944951
0,085208786733795
0,0820433921859892
0,0815879900123938
0,0854702185957865
0,0821687214036032
0,0903648701833983
0,0890404766860172
0,0911203492941809
0,0878837463724513
0,0899254328628132
0,0836173527686267
0,0847450644180069
0,083104263798801
0,0849436625480316
0,0858573835600577
0,0831937164963712
0,0786827642995192
0,0843054691762212
0,0771394981648746
0,0828284704183683
0,0752090846535142
0,0777983836942525
0,0789844428563907
0,0800623659628684
0,0795923376342526
0,0841886472552233
0,087861413814756
0,0876648465825097
0,0847165154931839
0,077936189188266
0,0848980486579573
0,0838738431704023
0,092701316054475
0,0761603174470078
0,0851057805644365
0,0745441395144629
0,0988184968535347
0,0775091573823795
0,0912422010585481
0,0716330115805027
0,103743162443401
0,0741085174487749
0,0961404494820318
0,0761786408768922
0,0968255326418025
0,0747089587443711
0,0939490239882596
0,0864318722834392
0,092066996434615
0,0822618210673784
0,0902614001152079
0,0862898850612605
0,0862975407243516
0,085165259215653
0,0863057308173957
0,0822172375014268
0,0875932522427104
0,0816861029519646
0,0869838971580362
0,0814658515259672
0,0854832552816042
0,0794718370765971
0,0842352858874737
0,0827422029702119
0,0836438071025655
0,0811023534044505
0,0861584405810769
0,0803212839046333
0,0812573267213108
0,0799144258959471
0,0823602486824677
0,0794988514395534
0,0840047948269689
0,0810205216038462
0,0825087725257133
0,0791608105754721
0,0823459293355937
0,0812963626797124
0,0857259908920005
0,0790298004082223
0,0824355359819394
0,0801051512034513
0,0806060322271855
0,0788866767599005
0,0851176926245833
0,080053260021032
0,0831145679221194
0,0797901826040078
0,0805876490185695
0,0794843623071139
0,0837596238734709
0,0796260463832623
0,0848617823327969
0,081699381286709
0,0810816344051839
0,0832323423187216
0,0843678232653528
0,0788295380812927
0,0832427318450599
0,0805230520089577
0,0812845331164895
0,0807872914193704
0,0855954951144615
0,0823630719890094
0,0816224194033341
0,0796894045556998
0,084342811562438
0,0784448836854384
0,0830593043662213
0,0804428722563662
0,0827101623701788
0,0811699960724052
0,082683581995365
0,0806236159602399
0,0829416761148223
0,0817194043709873
0,0832239931283359
0,0812626433173361
0,0829608326021668
0,0801368438044361
0,0854305571622404
0,0802017341270083
0,0808180633214245
0,0789976476042218
0,0819517406973838
0,0798871709970306
0,0818030548164399
0,0803354338951142
0,0825298497027184
0,0794741747616424
0,0813465211632778
0,0821699197345871
0,0838045709180725
0,0806550207508481
0,0805861240573627
0,0806420106778737
0,0826501187760517
0,0807042635779829
0,0839986580571035
0,08238280721132
0,0835944176069267
0,0826086079504655
0,0828770260052695
0,0787383037601409
0,0848621144084107
0,0821339305868536
0,0826418602643954
0,0811848599187771
0,0835618577123377
0,0820270968580935
0,0855975554119856
0,0843867689566819
0,0846040966356751
0,0835697532460675
0,0862610818340458
0,0824524445196349
0,0841498603145368
0,0826024430033202
0,0863494575729629
0,0838593588413565
0,0854070681970838
0,0827276621070726
0,084743112247293
0,0843269708156925
0,086345429095197
0,0829543964445182
0,0859522835707729
0,0837281812285265
0,084671256684134
0,0858962197521052
0,0863384582941731
0,0813695828082467
0,0857454822757183
0,08495390737537
0,0879107978449982
0,0860076523425359
0,0882515736307025
0,0846517385029983
0,0866623292693203
0,0871222505226196
0,0864403967635118
0,0823008965196179
0,0862722481522857
0,0843110429106419
0,0868196131111097
0,0836519935722301
0,0841090639861325
0,0832444301762617
0,0880937073725636
0,0858529977416822
0,0875425024085916
0,0838454821493133
0,087140032468703
0,0855658319176077
0,0867049335922183
0,0841457219867227
0,0866433348138785
0,0861367166616713
0,0876842636710942
0,0850085484087464
0,0851979024539212
0,0868578806791571
0,0904254526529075
0,0875558276126189
0,089320670216302
0,0882181167099227
0,088740748873324
0,086659062987099
0,0916610780252395
0,087847878875541
0,0898460479127104
0,0866320498490273
0,0909255421127192
0,0880596556154979
0,0892590265078956
0,0872554935783494
0,090674654076164
0,0898828072390614
0,0902478373207314
0,0899773980737804
0,0902676524006778
0,0882060231360697
0,0897511368318537
0,0905239267716956
0,0904283340518033
0,0867181475752811
0,0886390639384131
0,0880803485130673
0,0903253777792032
0,0880072596816178
0,0895316005350058
0,0886322534498416
0,0908488087713283
0,0879629582133269
0,0894712556308482
0,0863437091344347
0,0878862888787261
0,0877061974095811
0,0896062639378965
0,0845123461649096
0,0882358512882769
0,0862879996734765
0,0859434855786266
0,0846228606413801
0,0884919498509829
0,0843008237006965
0,0857065217952313
0,0850621011472516
0,0872121820270076
0,0852005991734938
0,0873708219346225
0,0836974145174391
0,0863109748827277
0,0844664934980725
0,0860465835559629
0,0817592523948973
0,0841502544789663
0,0833636704582243
0,0840428411214544
0,0848411342564867
0,0869743429262725
0,083801900226446
0,0860976898098335
0,0831430122995916
0,0860810868518208
0,0822301494200705
0,0859078742589775
0,0839361378432147
0,0837370311377613
0,0834375222489044
0,0850296552497874
0,0846503015909084
0,0837637276132732
0,0783609018999239
0,0835721741715951
0,082358349602672
0,0836235054681612
0,0845553607954131
0,0866520778850128
0,0834267056748753
0,084594076309133
0,0825069365559701
0,0853338969665295
0,0810955033628646
0,0826394886292657
0,0821056199413825
0,0849866929150925
0,080908006697279
0,0842310785766888
0,0821460701866452
0,0853941332199033
0,0799645895973165
0,0846636464839233
0,0823395477861725
0,0820933809612387
0,0815372452883018
0,0848273373626569
0,0817806930077665
0,0819292653906129
0,0791405995681077
0,0813007095098345
0,0803710270724389
0,0830146378508718
0,0801093663815777
0,0813084141881106
0,0798258527268763
0,0840772784280326
0,0821966876435576
0,0832260263210013
0,080792989569922
0,0813526943179453
0,0795120290121375
0,0801467304961803
0,0833218766895557
0,0853651740679893
0,0800204580199457
0,0818522715661548
0,0807844114194351
0,0839736621559202
0,0800209397944823
0,0800312878546898
0,0800110349623299
0,0826540749535949
0,0794391085987215
0,0802320767104115
0,0794578899165973
0,0828079463227611
0,0773093422106625
0,0803611480651299
0,0780092947644944
0,0813357228378091
0,0781257174656258
0,0811661832401384
0,0793960803468935
0,0811426710644658
0,076962264601396
0,0827977487634529
0,0769704167062257
0,0806841322175108
0,0799057417226077
0,0804568271121245
0,0776108143220274
0,0796703731412505
0,076988504961878
0,0796865035521828
0,0767580709461566
0,0800343270519552
0,0769035161402584
0,0789403266663593
0,0750144841567058
0,0746576819402954
0,0748769271791254
0,0773895511669011
0,0740458813130332
0,0788321019780267
0,0742638685898965
0,0771298263623748
0,075173612615578
0,078300840167317
0,0732765089529225
0,0756319419821883
0,0726756273943343
0,0761026244534774
0,0725961356513109
0,0783632278153061
0,081918970540037
0,0758985413452038
0,0719960942771371
0,0701945983629908
0,0731624961289608
0,0723754028501439
0,0722102090989214
0,0728906395880339
0,0727783093692719
0,0729421776069893
0,070066883708401
0,070450155560912
0,0715833357547144
0,0694201306420609
0,0680955873900434
0,0700261513877694
0,0692697087253868
0,0691995541945098
0,0655333972237376
0,069845216319379
0,068922750980591
0,0683455726094691
0,0685888542663205
0,0685567965255505
0,0693298556100591
0,0669595257693924
0,0792406650653039
0,0778130133709217
0,0695264176493397
0,0702775030073733
0,0710623186404645
0,0731029185356751
0,0687632383559762
0,072791321640153
0,0691925892309054
0,0708212236180469
0,0661601347370521
0,0674065026717105
0,0655853501584428
0,0662957562840757
0,0642162378991
0,0671542415393453
0,0639663157995889
0,0674917182492955
0,0657578170958644
0,0687250290696252
0,0659007695308089
0,068967894764009
0,0659015938927309
0,0671320388265128
0,0648319106463038
0,0644671195099859
0,0670351008862802
0,0769874279126553
0,0705915709143174
0,071049170762733
0,061799583221
0,0672615620268352
0,0634911301835037
0,0692308077425969
0,0621878568798077
0,0668136261443197
0,0626515082568518
0,0643792048757991
0,0641226623689607
0,0682520268681591
0,0642281997882177
0,0668076328118719
0,062690842007318
0,0671188796338053
0,0586980980171699
0,0639820498936856
0,0608990813524675
0,0661603729514752
0,0594367406605591
0,0675133459012735
0,0627124025880622
0,0721370562584231
0,0557298536757545
0,0756841769685893
0,079358081129021
0,0718718633730953
0,0643454134970935
0,0631517666908515
0,060866795089419
0,0609307674415673
0,0626682797823544
0,062530138598629
0,0622590755526115
0,0604049499527897
0,0619268724853606
0,0629214453352458
0,0611713939090857
0,0642237445601922
0,0617925517688482
0,0609208615018448
0,063220560562902
0,0605231917173203
0,0627555669915933
0,0592394231483798
0,0656715828849029
0,0808688462196748
0,0648175531668334
0,0689302417946231
0,0596269617618858
0,0597725717249548
0,0893937562106817
0,0641378177262228
0,0670445416834082
0,0600340550010229
0,0669776868581166
0,0592697107495538
0,0641535737467847
0,0560167503745957
0,0672816392099906
0,0650184044168566
0,0668960726398157
0,0660168768615156
0,0607269781521936
0,060914181748093
0,0604096698497669
0,0619926222053506
0,0582004457842254
0,0643363097820214
0,059998254928515
0,0605901024418654
0,0587836724038414
0,0576832326736265
0,0624552650903506
0,0557782311464286
0,0665650003027414
0,0642494714253966
0,0607522457084077
0,0589434514513883
0,0658586017343841
0,0531571121162859
0,0732110108460279
0,0772942394204184
0,0606621426746189
0,0658888417203809
0,0566132188192261
0,0644906295057446
0,0577665361971707
0,0638206478398399
0,0574335257136166
0,0601822555059851
0,0564316323557526
0,0633193641678461
0,0583325341582799
0,0614292765961262
0,0570919077192302
0,0625033464511104
0,057288541068913
0,062428703489186
0,0582006162707341
0,059157209882089
0,0619150683090461
0,0612891506181579
0,0838963639933922
0,083425348925605
0,0798184341749172
0,0726362231798073
0,0682048443179017
0,0631628081754268
0,0618312444462917
0,0588230448457927
0,0625430268300549
0,0642446722729923
0,0610182259802266
0,0618522427935178
0,0610970588741658
0,0610216217017904
0,0588662438748462
0,0587851907730665
0,0585445949605204
0,0594772742685623
0,0552842637407751
0,0618559023749219
0,0584660141581239
0,0631637697165371
0,0578415414085977
0,0768075445296842
0,0613412648799787
0,0722833504571825
0,0496229607036757
0,113037362327583
0,0706345201326235
0,079027115369962
0,064733926806494
0,0641032063395985
0,0607036582389043
0,0606839133463125
0,0638470947952768
0,07049724785121
0,0594566428110696
0,0615666556723726
0,0576209826395549
0,0669180956733575
0,0626123945211832
0,0569997595381357
0,0752715342004092
0,102509324362311
0,0693867489860881
0,0722186111335128
0,0506265558435723
0,0828384589450994
0,0906993734188885
0,0676479346783948
0,0719188222431641
0,0635224471885209
0,0654800029689479
0,0634877732035882
0,0637544400248941
0,0627433100446795
0,0705903426655573
0,0632591608162636
0,0656879759203104
0,0637270027300754
0,0625928605620948
0,0727670169863066
0,0659798989588279
0,0810167823989856
0,0738808562486878
0,0637455136822708
0,073600026616066
0,0689127352617549
0,0666340728486056
0,0682967551560919
0,0672922639032375
0,063717756405119
0,0837101367586629
0,0807479535397511
0,0734020912699696
0,0889042017339745
0,0764268256954538
0,0685739028125905
0,0745257332708958
0,0788989805397708
0,0840654885171023
0,0542102171366013
0,102174585951865
0,0903372945729226
0,094898236847506
0,0899169417846252
0,0697392809947791
0,074353634824976
0,0669218554103213
0,0686292283027755
0,0638619366560715
0,100107340031692
0,0622299995808479
0,0851883618146491
0,0544502805973049
0,0995730738642741
0,0752178192129349
0,0827748490221384
0,0693314436537374
0,0761253342628344
0,0653680139325059
0,104641340412727
0,0661617276706818
0,0842894124955314
0,106745645619447
0,106149748974205
0,111294842480341
0,0728843674296433
0,0791428940985445
0,1201318944234
0,0741366011713017
0,0855780293538897
0,0659099647601099
0,0866185335776663
0,0609874088142366
0,0889789902481011
0,114947811615306
0,0834366655101151
0,078487043178238
0,0843081183040376
0,0757885029811832
0,11515972356924
0,0833134490185857
0,0853398231185989
0,0748662759704416
0,0888016338187516
0,0660725652054674
0,161943875754304
0,0772190378959201
0,13018479480386
0,101432972234189
0,116573200544585
0,0972984392584837
0,106189793967529
0,0842237247416656
0,11458947453533
0,109188348724998
0,0987913397015389
0,0773424522061978
0,131282342088606
0,106648934702548
0,0973859162776927
0,107974193851739
0,09112725947598
0,0956334348634201
0,153019776799293
0,162264922261023
0,14328820757106
0,103819334823066
0,112713736179011
0,141578289102562
0,108377823276516
0,108579659140604
0,102674072979219
0,109309521403573
0,105371730159866
0,10439712900286
0,129686291632168
0,106765969617268
0,124620119675382
0,10147143281781
0,122397842011113
0,131984013767059
0,195690319693481
0,151203640775088
0,137562272649112
0,177984534201672
0,145137577092441
0,14308093073808
0,125218125244358
0,124197041904355
0,141138696280842
0,131829627014925
0,133910348413044
0,12942625227535
0,177883625369934
0,138069992617139
0,172735963239965
0,1570168015222
0,153263182682445
0,145907361210922
0,158582125530445
0,38768997480517
0,167680785688993
0,196686072224334
0,158495724907333
0,223927460345501
0,236448875884971
0,193080485025565
0,181605201196019
0,185121976518609
0,17586491072036
0,201053597651128
0,205267867828988
0,210918094756659
0,229892333986494
0,215165586121621
0,211770347984669
0,25635092528909
0,307318426035634
0,312105951513429
0,256734789741079
0,249989376817556
0,275694259983261
0,279787529236004
0,257793951833639
0,278873599151487
0,257463767367101
0,306687683501816
0,337882251063356
0,304823669071106
0,299554801602941
0,309912801327404
0,351389863877089
0,303774783742196
0,410110481523958
0,345841293620968
0,360956110954714
0,329564013340313
0,355253946074349
0,346944910649326
0,355888598714987
0,397095787821361
0,387026140051921
0,382805089033491
0,380132883525515
0,383986694489999
0,395140873779544
0,395195000095877
0,404703511204079
0,397238584744779
0,478661241297224
0,433149453220819
0,661305015947536
0,441006598023394
0,435006830760658
0,41376583091618
0,418888399214118
0,463665481122581
0,439717945953455
0,49496405720647
0,453838297025456
0,42509845405747
0,425230154487477
0,42475986016625
0,433801241331663
0,418145118235841
0,43698050794991
0,410402014141653
0,478875539715921
0,41336442602759
0,498034009780834
0,48257118965439
0,449170418022399
0,421241206944276
0,431334271731173
0,407506843598051
0,434577468475608
0,411182945499594
0,445241413887807
0,444800727025253
0,418546431057283
0,424309098016821
0,407390879895471
0,447657742379296
0,433807191984992
0,413784528236691
0,40879497819175
0,391564847076637
0,407618392473765
0,380021916174071
0,433798382180284
0,444928758424986
0,403413630170147
0,393688649629679
0,382724542713472
0,38164462699016
0,37665274854571
0,375824646237463
0,388843861282529
0,381444164906455
0,377627114453388
0,382292487353461
0,366860230585629
0,374759080465389
0,37110206204706
0,384300895143936
0,373122223614784
0,372739435391694
0,367773748919772
0,366241720068025
0,366398335795473
0,367038970075853
0,365131133462738
0,366147638466994
0,371837107474791
0,375233182748495
0,363900761474216
0,36750811182712
0,360340982388668
0,369771307054764
0,364849953580255
0,363019611832056
0,362776498457322
0,359123019647609
0,361088541516524
0,355959823235371
0,356322334465694
0,354908189109936
0,360552854157006
0,352516368981655
0,352115544693771
0,351834720705539
0,361482974334776
0,345899816808177
0,441418281152004
0,372698869922195
0,366387788192575
0,34644274229745
0,35045224444438
0,338137603286213
0,330095262829185
0,40067816358279
0,365978546743828
0,335688441478574
0,333205680189711
0,322474967205223
0,353518901659875
0,326375835302735
0,321879126808002
0,33044005608819
0,299348865812243
0,386346228660608
0,365927982154189
0,439435499470098
0,406683294812753
0,335294521914347
0,301063024091149
0,335984067805792
0,345824887725959
0,299701495185913
0,301200153385611
0,283555991548134
0,354889936924032
0,301868397084095
0,298756561059067
0,288886444497799
0,281861381760481
0,311333018350234
0,326179708842891
0,297204908846221
0,324266620336458
0,327711803247357
0,313164682017597
0,362493969944624
0,385941403195323
0,317858707675457
0,270081560209205
0,275770168683382
0,268616174937416
0,279680477269516
0,348676323919825
0,266418704821171
0,288807662721247
0,249258286923655
0,260044369014627
0,25767705909878
0,291588487983422
0,262266241727803
0,270350323053327
0,306245895238916
0,247347454005515
0,278120822417547
0,264543533305879
0,319158822346421
0,305465843498173
0,2595761545653
0,235552369765732
0,301447240550969
0,280381393046489
0,258826205195572
0,269285715911722
0,229731676448117
0,244698005214756
0,260790078547166
0,226034945552582
0,263820974370242
0,253461994285622
0,27346825813166
0,312463740850797
0,324657578403941
0,298679736499687
0,23555820503594
0,223162573131824
0,222059365592039
0,227121948718251
0,228647181312171
0,207618703202912
0,274393186447918
0,226936447979507
0,237384828942249
0,289301479254133
0,237870465738253
0,230627639674789
0,230590645483296
0,224153068266783
0,247555925712683
0,270102618557375
0,302026397443394
0,261379033720425
0,263051743772061
0,272616163038263
0,25313053638114
0,258592027116994
0,250652276946098
0,263540407227277
0,262953730065526
0,278392732999572
0,276043715574884
0,277659080526287
0,285907842654976
0,278792061051375
0,324190344277391
0,329250880921326
0,298235345788268
0,355472801865667
0,339331439083891
0,406130453942254
0,335919213957544
0,345231087429653
0,335545943646201
0,341743586250804
0,347761583677583
0,34355825176273
0,369657350800015
0,397604039542064
0,36027645070711
0,377071796891499
0,368632333141751
0,380240635350823
0,381712932224788
0,438080479526543
0,405891800593211
0,486199720289947
0,447463802049353
0,43586362259409
0,414993520607531
0,399082161449449
0,408377361939565
0,413215107667293
0,404822029672703
0,406258127246854
0,408438106828633
0,450143241430672
0,422071348528502
0,418383138751762
0,416746255818643
0,421361899147924
0,418190951993239
0,424922329684121
0,428258343700811
0,428268679915978
0,431056737501662
0,434037838497318
0,431145401923469
0,53086878953188
0,465622047252638
0,462113778026988
0,454593696280911
0,464762774387366
0,459343936533884
0,462112825453084
0,484697493454969
0,48665369964548
0,472840912019359
0,479738115079878
0,481672091002718
0,481095659987006
0,495706753917119
0,519636888021149
0,486806818200814
0,515077961298938
0,476893096645438
0,559287844882291
0,552425284885521
0,529906843308007
0,529428600192273
0,52016358419548
0,514082146233811
0,513241248434522
0,510201361391388
0,51754588999704
0,520524101297984
0,52298688329821
0,51786777577557
0,521931007542333
0,523713891673739
0,518889330255181
0,519791074896457
0,54745975800049
0,521991007145069
0,523904575868167
0,51753563495789
0,524012973368006
0,508491521159016
0,555809047850534
0,538082407113715
0,529669132287425
0,522523905871535
0,53260300155961
0,546626711514502
0,538461271934295
0,513224811856758
0,520696662355841
0,511084627029804
0,521697630373807
0,510772717944499
0,529507051032143
0,551635653843621
0,536783514996461
0,528051828922513
0,526281839266347
0,523756139389298
0,535103872026474
0,536436208170928
0,540325922666332
0,550759536500058
0,546462155815703
0,556170924446494
0,552087979150062
0,549228491805596
0,563195592167002
0,56372500223159
0,567072709670608
0,548610959953491
0,550918953390506
0,539456789665387
0,54556364107027
0,553200502555557
0,53975534858935
0,526081837852998
0,530418331679428
0,521613950724114
0,526517324221595
0,551148123203315
0,522104968699985
0,525187260672988
0,513648906366398
0,502028444766978
0,501296075291048
0,49631792985385
0,494559730462922
0,49091801677585
0,489544228225294
0,482073299863485
0,484647555036131
0,480675237238877
0,483434694154456
0,476119238074353
0,473762788663957
0,471788232921405
0,473828209808347
0,468765029154035
0,474642925176895
0,469969215540571
0,468827939381838
0,470994520284737
0,47438101134457
0,487070465631014
0,491881316499308
0,491341434377053
0,479328549968959
0,47476520391499
0,478435599871694
0,466382270240427
0,463866246324799
0,4649996129814
0,470048360925714
0,464027762060565
0,470288451102951
0,464876282365903
0,465710272940057
0,460079898276824
0,463647723013168
0,460495874368627
0,461712362126495
0,462093458401603
0,465386916677678
0,457513970498355
0,46754232373737
0,466278624476608
0,473352593581387
0,466073991260369
0,473758283164109
0,469070412929764
0,46446590747602
0,465722235250011
0,469780881175316
0,472191126445261
0,46472959408294
0,463044224107311
0,461553092253262
0,461959973003758
0,466723444660054
0,461129913099542
0,459477692286268
0,465111280702511
0,458665307481171
0,456782500506644
0,458574291964345
0,453220451740683
0,450741042450876
0,446466417135189
0,443356375008201
0,43933734824607
0,440630596896805
0,430436757940866
0,425186007760599
0,426766988768046
0,421940817322788
0,416806646529566
0,415570327592421
0,412095415936912
0,414340126826053
0,411795546024349
0,408921099606048
0,405917832994949
0,40304836438221
0,400022981065124
0,404771203839797
0,40240874967243
0,400984927466275
0,399513791504061
0,401695496977728
0,397068853806672
0,399645651562546
0,399448198597724
0,402536192566106
0,400954205372602
0,406506361629417
0,405874768511751
0,405962221192545
0,407850977740604
0,41197059922055
0,411216540989707
0,410304385631082
0,415594267737224
0,414628665281582
0,414130710457929
0,420101639572342
0,420851786489981
0,421473628586671
0,417597063641526
0,422184574313529
0,423203529387186
0,423406677424789
0,42317639815125
0,427346093634312
0,424139776843494
0,423935467955789
0,423713988582512
0,425170470868723
0,421796373664548
0,420560879462277
0,417029092005029
0,41853724403966
0,417357014553883
0,416789092474236
0,415393061506292
0,41603275151746
0,414093580889627
0,412129729790406
0,411344021452322
0,409811756008806
0,406807511910792
0,409107438600833
0,40402471799527
0,401901837436321
0,401583174405607
0,401684356538784
0,399488746500452
0,398261478957
0,398787267910849
0,398444989069091
0,394496577263517
0,393947109551028
0,390991579745533
0,393092840968569
0,390689609206437
0,389413786025589
0,389255152207092
0,38797874954638
0,385490658735466
0,38541769218802
0,382466206540009
0,383294166337022
0,380645022204699
0,378510598725675
0,375398500401668
0,374568242551558
0,372751914508215
0,371011463869872
0,365766325790482
0,366759764515202
0,364809011716289
0,36044260507834
0,356815512301121
0,355362655308446
0,354302446333291
0,351258749512476
0,348731649669764
0,34618934035618
0,343252039705421
0,344138481859506
0,339913322214786
0,339722443003415
0,33885829314196
0,340029497498669
0,336223524197284
0,334865979195153
0,334218772670339
0,335398148735845
0,3324385255785
0,327855543875388
0,326278937497395
0,324353272757852
0,319323535689224
0,316795924868442
0,313583654168759
0,310932988382172
0,304757215447239
0,301194409775143
0,299453788157156
0,297320412445417
0,296354851930967
0,299680823489554
0,299599070388207
0,302565039087504
0,308051495736948
0,311580206502851
0,319654166374785
0,327552141819373
0,336968370532127
0,351415424043496
0,362633890700422
0,376337882211975
0,386858629963726
0,406732599700203
0,417057627801228
0,432523751227632
0,447830417827219
0,461828110788073
0,471581848665658
0,490022614043937
0,501553551684231
0,516889206198177
0,533811030789486
0,546689614033789
0,556409066619565
0,568370467689409
0,585479690864319
0,590066737674255
0,601025801764992
0,613696872047196
0,61925150677238
0,631875537432544
0,638926191974261
0,649523215715973
0,654175286879747
0,661244832943566
0,669056388446972
0,667713602071312
0,666687069419131
0,673126028448878
0,675647434595499
0,677881684515518
0,679938581845123
0,682290775721479
0,67754678037329
0,676535009132052
0,674132879532222
0,67782014301202
0,680155139949066
0,683401432687116
0,688096294883579
0,692881471451422
0,694948573175512
0,701704858116616
0,699558416512261
0,709670667679814
0,716296851449029
0,720293835724903
0,719382626039043
0,723683690107873
0,740442293875494
0,741124091859674
0,745749519928877
0,75819184689224
0,764670853135026
0,777784510190812
0,789030130899128
0,797063799923842
0,808279889108969
0,822991360100957
0,827785814219327
0,833740403283968
0,844200155222609
0,854470736632402
0,862459248704654
0,86311986936073
0,860494533902738
0,871614744078552
0,868141671337542
0,869968266703828
0,872428971734218
0,869569663779675
0,858862417135236
0,848801909941125
0,856298525509847
0,850410682587211
0,856435219551143
0,85378041168232
0,868683455048216
0,875546427764404
0,887621019260656
0,894691759173378
0,901063846040913
0,911711376035279
0,930511949547443
0,948979353247325
0,964574203539184
0,975966585139161
0,980666674104994
0,988441227482856
0,999076671628028
1,03067922793708
1,03790289281057
1,05222451361614
1,06628277868806
1,07180152698066
1,09588594548568
1,11786134863324
1,12622685610389
1,14937379127524
1,17926395541007
1,1919647120767
1,21351388807846
1,2358341995819
1,25798186300024
1,27240506358943
1,29571873952902
1,2913764740092
1,31360059507117
1,33521365094497
1,34971917839328
1,36607895633423
1,38565909723939
1,39829787211642
1,4135681015818
1,41002631991047
1,42428658288227
1,43697024962126
1,46375615098647
1,45847254542892
1,43239967127167
1,43833427493619
1,452895563531
1,43046736008794
1,43634763782824
1,43661938704613
1,42477035198777
1,42918525636742
1,40935442863442
1,40840321880854
1,46406476394556
1,43482063904815
1,45521794037945
1,456118682535
1,45785565936562
1,45582139625973
1,48599273936302
1,51104814196819
1,50714498211953
1,55767000451266
1,56055623107144
1,53113975737133
1,58559459244033
1,61797267766661
1,60013624413202
1,63302742237632
1,69284035962503
1,59204556693722
1,65543497581866
1,68832792669173
1,6624539262907
1,66105191504423
1,69152486936464
1,70577096155508
1,71212883521441
1,68047907067488
1,68895804827327
1,65698012765117
1,78263185648916
1,83718471497
1,75704972233977
1,73475854783712
1,78494670313811
1,80600430099405
1,76742448235659
1,74665988709795
1,80361468678395
1,81321574965952
1,83074361680863
1,71631364395583
1,7077300565625
1,75678589845593
1,7339551502428
1,76101855942424
1,71997819303048
1,68935447160933
1,72716986279914
1,63778360306431
1,59018049203711
1,59296463615505
1,54083397881543
1,45388986444073
1,4247464599681
1,35584301701212
1,31701007062492
1,2690186457454
1,25552532318578
1,20206016084223
1,19551244471597
1,17633491324881
1,17868740239843
1,15304084691019
1,14718332662148
1,13654216658979
1,12274565080594
1,11219120932989
1,10642747791422
1,11329147175189
1,09856092856923
1,09171163448908
1,06648523186225
1,05502525866226
1,04058505050557
1,01507429153501
0,993128239927945
0,968884192270478
0,967698587547614
0,93326771058805
0,905358142724717
0,88227625927979
0,855397331923009
0,840295613048221
0,812601210904553
0,77329892010859
0,73314098749396
0,699782929555616
0,675633073701717
0,642438950796375
0,619127062754965
0,58858798666012
0,55869420030426
0,533774568803762
0,511018699023504
0,493868168839302
0,480185207788586
0,467939145612055
0,446703691302744
0,428887447078925
0,418721259173075
0,407621896038678
0,400637140519302
0,39621353068301
0,387753396860895
0,384148009382917
0,376746718343956
0,375933354062961
0,376522698830095
0,37400380556018
0,370144398804745
0,366137679243446
0,37546851424139
0,369977687008275
0,372463515652965
0,372513235819756
0,377035652046274
0,377731849606659
0,37610836188844
0,378399383303683
0,381552376168034
0,380407300525687
0,371408067531695
0,371611568856225
0,367697836600894
0,365737329031822
0,363718571217126
0,358966159296707
0,36037443326028
0,351457564772994
0,351076503534044
0,346952283667787
0,342961511845958
0,347063015503149
0,344955632058941
0,3438676973535
0,34200101292545
0,349270659146995
0,354431413573856
0,35967810092628
0,359240197134425
0,363255485310601
0,363571994811728
0,360094111458482
0,369663788047837
0,37250945809777
0,371568641472888
0,372470057606105
0,378019966609163
0,379258166139515
0,386258546318412
0,386796952846072
0,388076743464563
0,384050887047906
0,386215432930218
0,383242926963331
0,383151295500047
0,391082407218119
0,390449677120086
0,391504305381905
0,391872176124352
0,394349997538041
0,401418167024784
0,406578196128187
0,410002830328878
0,419481019735644
0,433315393734897
0,435436408218544
0,444522875034168
0,463626763429534
0,476960775987203
0,483733169667736
0,502494355712224
0,515940138124281
0,523757366834715
0,526567733764519
0,530522927715526
0,529058000998089
0,526091525358438
0,523969287985456
0,514613638078193
0,511597560661464
0,497636239942476
0,489685525336285
0,493524470570962
0,480367569973567
0,482190730740084
0,475825862496114
0,459458789346376
0,46018532916856
0,474644018145762
0,471263826658012
0,473993296894819
0,474966928968162
0,470340266415117
0,468779655547033
0,46942734385341
0,462786697312182
0,462608302866351
0,46603332814582
0,455955731582699
0,443994279223506
0,445590360740028
0,438133367376179
0,429743586524968
0,431489292554255
0,42947100059079
0,414796267536884
0,421018076918796
0,421865605983817
0,414300974905061
0,412068328206717
0,402007964197262
0,403575893786697
0,409355046586721
0,409915195377989
0,405379655108535
0,404119276619595
0,399386479482604
0,390378334371056
0,388918594765873
0,387719189348061
0,379038338515352
0,378190611154025
0,383823680418519
0,3807959149122
0,380106796487244
0,378045998888238
0,377103692868697
0,374917673611643
0,376655388035835
0,375581025059097
0,362223656601677
0,368283073858317
0,371392731809125
0,364886069345192
0,356326545043217
0,348714454026251
0,364999390753672
0,361120903650028
0,360220034298497
0,356907981096958
0,340954363057364
0,345388279465326
0,354701360092484
0,345687327562951
0,356307776184672
0,351131506598559
0,342779042119317
0,356111276046376
0,346383468803516
0,361670404265249
0,367360250410567
0,35104208957308
0,365796539510913
0,36505814217521
0,357499064925531
0,368792963642085
0,369944930225315
0,372205100898771
0,364247237931823
0,365736822292319
0,366960483762053
0,379526371385938
0,371160541516897
0,375294955763879
0,386684955380344
0,382724817035556
0,393782629338389
0,404607921385805
0,400714218332295
0,405588338821563
0,417786967383448
0,405940822418565
0,425560504302852
0,440315222470638
0,439982947228912
0,449987131962499
0,449459138234123
0,45828845155141
0,473177714781369
0,488474331314646
0,494920197096713
0,513350899960725
0,531387982190949
0,535346010209917
0,557005846396953
0,557213926680511
0,584155256067052
0,618951080400361
0,626762890322569
0,639706968332569
0,642297308473522
0,637857219976786
0,663859007998867
0,665389933201602
0,639448628349977
0,619623135136916
0,615830539829984
0,618036120150923
0,622828335906872
0,623905488767344
0,614849466099944
0,616859588086258
0,621363142107359
0,616315524152794
0,634745658204216
0,615582818090577
0,583733407268068
0,618054540846307
0,607745297052611
0,615508400614179
0,607322911158111
0,592688823801192
0,573925749262062
0,563434534784844
0,575879789347185
0,58925222536374
0,596809391957257
0,551270294120397
0,53239345082129
0,595331050431475
0,581095350390628
0,553252622480236
0,527497434010275
0,55916543529884
0,534723396122659
0,544163781220697
0,547621309108952
0,542214967790515
0,535667625098216
0,53758201743273
0,547516718954125
0,55584233221331
0,559180695377588
0,535151988236435
0,541217111265378
0,606172550972609
0,562889082686821
0,53669464591074
0,574558764310396
0,581049294194116
0,60054806052392
0,560769585369204
0,544247563969265
0,539660098231061
0,55211638786185
0,58094964188683
0,568668420206443
0,548821825315092
0,538273164668785
0,581800959323819
0,573621480888781
0,590290823102313
0,60119884878317
0,608941644086492
0,618507603343369
0,585584315046399
0,60553029030486
0,612901633097469
0,59234833537862
0,610366453163523
0,627061601165879
0,634414558093654
0,614156951410226
0,67075462497953
0,646307097649579
0,639107572303654
0,679269425955915
0,774862725321838
0,703711115387137
0,671725703734341
0,723390583725323
0,657354226509613
0,74910612163076
0,831505994773619
0,778793754625475
0,860111369319629
0,710603054213666
0,791159426337457
0,817421927479369
0,695170266455492
0,772122481096941
0,742237057970557
0,728158575092251
0,807060923693402
0,756314213031547
0,895996208774511
0,782545251589713
0,803514232779644
0,721195713925142
0,683394711024104
0,716584801670453
0,713674084255952
0,774794710806547
0,643931120669234
0,727672955213386
0,830417898870631
0,662752226618345
0,778253858973699
0,90773224372389
0,830683575993133
0,734973488739454
0,781781731063369
0,725377836512952
0,908184217832534
0,767525005867785
0,921416636689422
0,768260635937742
0,589405009336438
0,610467630987569
0,89518885062481
0,696246251076675
0,658292511317268
0,56619766245785
0,635396432828494
0,7167085595697
0,862724425417338
5
5
0,902242131624432
0,729355607174094
0,553901024824248
0,597198084214583
0,676358711178121
0,639021411140445
0,785158890597213
0,655972106285423
0,859471809168313
0,822142307210024
0,752195384614797
1,11077932557889
5
1,21787238612685
0,555739272813125
0,86444257444681
2,21968366340408
5
