3596
4000,36533379555
650,420452594757
1
2
2
0,0737759369500799
0,0821393603976305
0,066844489390567
0,0803284390880676
0,0846191462703137
0,0748852810495013
0,0843751484835222
0,0700707426862916
0,0697660634100102
0,0805069249219438
0,076999448968978
0,0730201666559371
0,0730234237852989
0,07895651168695
0,0713053249210921
0,079749400868657
0,067993850257862
0,0748029412274413
0,0770888841167446
0,083487109888078
0,0761317168157452
0,0704403820136586
0,083175571181685
0,0811443712850331
0,0798552014333705
0,0899780255393144
0,0737386273554093
0,0771718500485812
0,0729835852813727
0,0780774523418305
0,0737256527725868
0,075734619045338
0,0804883380398689
0,0762036985158648
0,0790884162674281
0,0809845588440193
0,0744334597691164
0,0858206995876735
0,0670322286977917
0,08491995507137
0,0801195224507646
0,0696493941643219
0,0874250825755803
0,0769309378962377
0,0795275338141528
0,0773187467685297
0,0721498126855543
0,0774017481676653
0,0802056074564406
0,0825421272940024
0,0726431425432821
0,0749461418673471
0,0962169888668051
0,0953516520957343
0,0826475299787045
0,102300562327117
0,0889081625659674
0,0727699010070037
0,0786493980085059
0,079451935425491
0,107102845786543
0,103065253890118
0,0663886223868935
0,0893253110730536
0,0630902090888141
0,0813394061209756
0,0712846241505471
0,0803576577284122
0,0690022277645636
0,0783333497884801
0,0780568284746311
0,100205464574535
0,0947037289488394
0,089345792972817
0,0902944440579322
0,0813245303618432
0,0635628774770451
0,0836856574328148
0,064300724698961
0,0972327893637641
0,0855478307744484
0,0919183771427713
0,0738466522832368
0,07225447833032
0,0808468313023162
0,103570371550553
0,070899545365061
0,0862390254275107
0,109410583658986
0,0773371250788067
0,065934253430692
0,0811704098747544
0,0687182423462938
0,0707421495131632
0,0602442478730144
0,0805103090984364
0,0648160143848423
0,0793873200919694
0,0623696829094283
0,100650389663337
0,094090357879076
0,101173597119897
0,136138693244301
0,0745869867208791
0,164529284220384
0,0920775909273877
0,079655465143542
0,139000868229132
0,0877937412397196
0,0881443439847405
0,0598802442112612
0,0792443590065033
0,0709997960844078
0,0895651904906736
0,068024474306071
0,130887451508932
0,10982000211041
0,0766345387444454
0,0715733981664374
0,0793268048765215
0,0556559219216581
0,13041541947243
0,125990020202504
0,0788432098338624
0,100447041650162
0,0795910892482051
0,0843000068142852
0,135303057394586
0,0995827439399452
0,0813601568250159
0,0734435548227262
0,0740412672934536
0,0645379942443522
0,0779398459983209
0,131727740059146
0,0866726832877663
0,0791246467142622
0,0784187131062294
0,119489847837168
0,152905746712273
0,0867957342992705
0,0733501465162627
0,0658437351158432
0,0903838422377812
0,131227188406521
0,0998212859017576
0,0700084331437295
0,110370498201894
0,0947330155850845
0,0722059593054421
0,0778714719382259
0,0729139887221931
0,107663023271963
0,0951255988696114
0,0517887958272868
0,145774878787581
0,157396698141783
0,113288291231122
0,165358600018831
0,0764852784422557
0,101859945692918
0,0723056971710778
0,0759199567846838
0,0658264790809071
0,0823911627912933
0,0589436202901981
0,098539117497075
0,110337396944193
0,0696006673017777
0,0868525368956279
0,122116785997173
0,111992092128003
0,0741420245938972
0,168225836027234
0,0931467704779776
0,0850250249082544
0,12130867264972
0,0878279177186824
0,0682013767210196
0,0857997888805794
0,10939705229474
0,0696826525526752
0,0774445338140864
0,0642005117250037
0,0863085410144299
0,0991986918484366
0,0779773056626232
0,0800924439788355
0,090859865157508
0,0677639967204016
0,122669901658009
0,146940588614218
0,122695764449973
0,0788190709941801
0,0892772164068727
0,0571309530930219
0,140172081595
0,110075127840977
0,0757725278591886
0,0670248483493048
0,0688508939165535
0,0680065748483493
0,0756492553033011
0,0675165537420598
0,0764109237949432
0,0623830303141655
0,142125122142512
0,0871016996999694
0,0754353576711043
0,070858120731936
0,0897217888672821
0,0810506186887582
0,145216686819719
0,111758869325489
0,0731563248424928
0,0794460223944375
0,0663169477208597
0,0934510697797246
0,0939390925436262
0,066592852626226
0,0765882236129832
0,0646604756763537
0,0715535295169412
0,0676522831433262
0,0692854385333519
0,0751072886429963
0,0765567477544258
0,0723546831053151
0,0712200055752854
0,080572824237691
0,0862975747107173
0,0818266611575148
0,0738447620017639
0,0757164869698467
0,0627827382665371
0,092261134402601
0,0947878041628501
0,070655136336788
0,0731054538466741
0,0704454204268415
0,0777003492802503
0,064265416838003
0,0760891310761624
0,0635132478963156
0,0812521386159301
0,0723260766162905
0,135110560167073
0,0693880429941241
0,086289271875571
0,056498107905625
0,108742625455228
0,0847313216151995
0,0704415304472588
0,0720649918226042
0,0754185689790087
0,0621933785660421
0,0853700331342602
0,118796103011168
0,0895545187206315
0,0701490616661076
0,106733044820082
0,082100390043523
0,0720143210311289
0,0863845681903625
0,0659358349634098
0,17729127088338
0,102281034450412
0,0812875832784706
0,168635500223637
0,0917910888544963
0,102610111159742
0,091773032952045
0,0709104532901162
0,243870954176719
0,132441161681216
0,0829557330206779
0,0887719796639587
0,111924263922089
0,0768907230659421
0,0876198955618323
0,0919432390953245
0,100078675808638
0,123373255028024
0,160023213861701
0,176299781038893
0,0561875753433407
0,127198569273922
0,113286819797059
0,0767268629643402
0,0726710026217147
0,0678148010493282
0,0758014867503181
0,108277299029273
0,103502356986326
0,105538609668754
0,0906019937588485
0,0821767369444952
0,137236093288255
0,0790648186100722
0,0733636450195717
0,0863418925407887
0,0983041689632716
0,0680728589816066
0,0839112186946326
0,0688965243062143
0,0863963819092093
0,0773067821977486
0,0849397937113062
0,155043160515474
0,102583848616544
0,0889486408332539
0,129882030477308
0,0749127079335929
0,0759570919679721
0,0686148075289849
0,07628773370461
0,069506441830919
0,0762920040227545
0,0679295114648815
0,105576875263411
0,0796772990151542
0,0725633728059427
0,0761697100398657
0,0646717566724997
0,0734109797777939
0,0742179413268947
0,0671611752744727
0,0713657654151627
0,0766403691267313
0,07257732250642
0,119967099470171
0,119585744979965
0,0614472062851165
0,148470129988232
0,128494112743611
0,0817729378798753
0,0774028035732541
0,0759581612512304
0,0809943377789785
0,0740817048533853
0,0808287661728994
0,070566188971842
0,0756153291868169
0,104686728161743
0,092402138437163
0,0875943837914522
0,101977594126334
0,165589529792304
0,184863167565945
0,103058740708356
0,0920867951544444
0,0636814744126431
0,13389249529753
0,129270465508186
0,107839731080106
0,121939586652169
0,0766547441265186
0,0988734482850966
0,0692000724214622
0,0838567016532198
0,0792187078289797
0,0880871849458917
0,0818211149312004
0,0933055147037704
0,0823625735704846
0,0927943524742015
0,0810480813898446
0,0978517991840768
0,145282853295243
0,106540401727465
0,0927602010805099
0,10609676841386
0,0881025009269304
0,147257205569267
0,146062511511281
0,172367770711201
0,153549055685004
0,146538196980574
0,179460423564061
0,104108788546891
0,10630015216402
0,0841883542625457
0,106868978147904
0,104183023230887
0,106175421191429
0,0937387162915744
0,100450872233107
0,103251109013052
0,11052833469626
0,0939496299700767
0,113947537878688
0,103895490111708
0,149471066474665
0,116031476038804
0,121160556941597
0,11308872819118
0,149347474326324
0,194565126809044
0,187554028736093
0,12701376844301
0,136192425836035
0,123624125590084
0,109888050606443
0,133577848081488
0,121805341726299
0,133980582682339
0,128929997095151
0,176306038652794
0,165793870953641
0,158049841321918
0,160330923636211
0,127238578279072
0,177764731496862
0,155444658179842
0,160561978244473
0,182021693705329
0,149463573869534
0,125044641245118
0,168902776481096
0,175306795166076
0,154588498984365
0,189947808869646
0,135483443730236
0,152304795042034
0,148265548936601
0,166511298213801
0,152520704014398
0,169028969826677
0,162030238956751
0,16384718829622
0,168192516954872
0,163975747285134
0,17645534349081
0,182306820135642
0,175326767462489
0,183491920680332
0,182829692338664
0,159735619851446
0,184217150001873
0,167564742983388
0,208003020158395
0,226116746010729
0,21093855366939
0,217592183837768
0,178678602694541
0,191940282568038
0,179172554700159
0,185198525482007
0,178031724830139
0,193272659920649
0,193269565909344
0,189707615051427
0,201755965105501
0,201788441512451
0,197447571993493
0,204799378122387
0,207395212577605
0,212448461118383
0,206809730161496
0,210529519958717
0,218207173574186
0,212773922572591
0,25158120103263
0,275262498304085
0,290197878303255
0,287982328450714
0,227322813880004
0,239177454704553
0,231509093471962
0,246833418501775
0,235608048986144
0,257651449976532
0,248789491828576
0,261245047848804
0,24784468378312
0,254557929670347
0,247593364863689
0,245391315713086
0,25454283427182
0,270545787578055
0,267077457792557
0,252359299643061
0,257818101701399
0,267323845919324
0,269123948709059
0,304899369950951
0,302206761731547
0,305471974628116
0,292836497844263
0,300500061780504
0,295652570422592
0,279741155326744
0,281379695733606
0,29738266481581
0,302772916582136
0,304313917946344
0,303739521399664
0,314225288619928
0,305523174845949
0,30311550798827
0,310865090004478
0,321825301461235
0,320801239528019
0,309052957654702
0,312310987289705
0,326663091940051
0,332178778999278
0,348458870752351
0,334347879339602
0,336578996027302
0,33127318886142
0,36552272085207
0,352441160850408
0,356378782908325
0,350961293415829
0,348803480822354
0,352804164341408
0,351932121796523
0,355288235003054
0,368852530352647
0,36717193763093
0,375039997446007
0,373875956004583
0,385345360233803
0,380190806739148
0,405459738316259
0,406355100327313
0,395447733342443
0,405711492973024
0,387461749272371
0,390837567361433
0,415438031715469
0,417544500744881
0,432920037661525
0,439968858552775
0,42012567207121
0,41015336194078
0,434846861226266
0,435567044410958
0,423862364722668
0,44136891497515
0,442348451465352
0,430446732869146
0,435192794934174
0,440272994690509
0,437244416584439
0,446652792863752
0,428993280133627
0,445856202200726
0,46088388444777
0,457971707899647
0,478349704295898
0,466060514660024
0,461512918382286
0,485082193449758
0,48631910429345
0,499457980484439
0,493253329454251
0,482355449284778
0,506442544139513
0,49962081678801
0,501149676878687
0,496455131837827
0,49734832059743
0,499541749936032
0,524013027732163
0,505716878455396
0,524124275794799
0,494332986093293
0,506778540696681
0,522199684415225
0,523548535241378
0,523317963117901
0,531291522430526
0,539498254178582
0,541325414668463
0,526474859346907
0,541998833798696
0,530549069354624
0,540723039532902
0,557513586375865
0,568508926495502
0,572953358547306
0,575193590406122
0,5562565222691
0,579335405817703
0,606219926893411
0,574496857153062
0,56449287202829
0,57711833337329
0,577920366984058
0,591263517614254
0,593288405669165
0,608051317240313
0,588631252368364
0,604465759972049
0,615994650804544
0,626347574069187
0,595591710288368
0,600961369336941
0,603648588087755
0,598702525944562
0,600090876065969
0,611890455905003
0,627239977288447
0,621487912210414
0,616301610682205
0,655298345546753
0,638787393118162
0,618851401658744
0,642766763761774
0,642581553427964
0,631531158714515
0,67720644985655
0,678051182400018
0,644624848576452
0,648224247212148
0,667750399061422
0,651671341157014
0,67309256795659
0,679926491622584
0,67508942732618
0,682562273210638
0,659971511643199
0,658964898842236
0,681670615081737
0,676843911562563
0,669411785061806
0,693821171075835
0,68382363451579
0,6906304945863
0,676273131187433
0,680857456448943
0,687948109917089
0,689589258299885
0,681749662422323
0,696717257359079
0,700226912504602
0,686035524101463
0,692796606280546
0,693357275291162
0,701717561625576
0,711583425684566
0,71710228098678
0,713884544330987
0,74000017963414
0,753979573578789
0,728495248595965
0,734494116949758
0,718936753892357
0,733382278606761
0,74993421118761
0,741842867634867
0,753384955593301
0,744474716671048
0,757682304956597
0,736723543517545
0,737890136674448
0,743662220798627
0,744522245462205
0,749241086749519
0,74963924214629
0,738228647469278
0,739311092718482
0,763098253351594
0,761175156882507
0,765369302133306
0,727693266172023
0,740595071041698
0,761677362421574
0,754340142954683
0,763397265002117
0,744032160527752
0,757020803924869
0,762441983521905
0,756600194470759
0,763670892867007
0,76362861247786
0,771162854363376
0,781800087996662
0,780278141268854
0,780245641491854
0,800350410705158
0,787537306710425
0,772763083408604
0,761984541607681
0,761444492201631
0,772305447745899
0,802485701355205
0,769152994854502
0,789021071742461
0,78146080859594
0,773401818861823
0,809371922742704
0,789382623347515
0,78380094216788
0,793159925734015
0,793386480152155
0,787204757453895
0,794579696192589
0,789594205717202
0,78063295840936
0,792225108036762
0,769934612263413
0,796793225876546
0,795543495550256
0,753477197371228
0,758212133469599
0,792571688227983
0,802470210481235
0,802143792294806
0,791813685519393
0,798906765023894
0,800842309560194
0,791758089734581
0,778064895570559
0,767131970183379
0,783508560274289
0,811147498541175
0,789019010367961
0,799013763112806
0,811738200474167
0,817004507167688
0,810415479276182
0,815227734590451
0,803987012630479
0,81744295017188
0,826569354830731
0,784462774979447
0,747405829876968
0,796928137054726
0,80745777397583
0,782825588905115
0,810708998902203
0,791165732003502
0,768803146972912
0,806014679452641
0,802667514396349
0,813196264987525
0,793879680852851
0,78047502726166
0,776111964595033
0,793998073452827
0,802684054472565
0,793669327419547
0,779791977010426
0,810442459256443
0,797639930648782
0,808933392001143
0,821132940101034
0,793918747947309
0,771915220845942
0,776777808589355
0,809744444946735
0,815128881178946
0,790639214461141
0,801164658884558
0,796609290601168
0,782083636185303
0,790552873414701
0,794358668281988
0,778633536055682
0,788061942084554
0,784732251036552
0,79188636032426
0,789210090090389
0,782771220875167
0,785009050863218
0,798735552923674
0,77667582088396
0,757073009754471
0,760727319270802
0,779252334169347
0,769830383501213
0,78862083977588
0,784214372906938
0,781537187808346
0,782944208176785
0,792965925991161
0,763755532934777
0,7680132841888
0,759207593796188
0,762714093093109
0,75899385263326
0,780447146063907
0,757307774098138
0,762617438328855
0,777836193623158
0,759497267380779
0,769293441047129
0,769299825686663
0,749252337247064
0,771899533900232
0,741786233099383
0,756261879415402
0,757541026453706
0,750638293804862
0,747926865819044
0,750604916439358
0,73634128435937
0,748528557785681
0,745834761459228
0,746472112407005
0,74161039287109
0,74571324847619
0,733214488840448
0,731114560658322
0,719866434836055
0,719178142726069
0,710105216957365
0,74202520351838
0,721324185730347
0,717290053651694
0,729149233606203
0,75005651233436
0,734294541766953
0,721243725033334
0,712868405899703
0,721950305196454
0,698817596805289
0,711570982074701
0,704615344764174
0,708899666533786
0,712070337185343
0,731886480249614
0,708665774412669
0,694209860649581
0,711844412396773
0,720496794198352
0,69814015661097
0,689795450370306
0,685062855266679
0,697836495270919
0,689110387866925
0,701095430669177
0,690910109188478
0,688004116043441
0,689402733436591
0,694520163187701
0,675897981682954
0,682094471973259
0,665900593217198
0,671418344593611
0,674349196687918
0,671066528505439
0,666134851615999
0,669102446332328
0,661360716020061
0,658282751978466
0,642004948993284
0,6497569141216
0,64621649179251
0,648669069190855
0,631910442027264
0,635183663289248
0,636905765549369
0,64784442562639
0,624413153299025
0,640079893985729
0,633638176678742
0,626001821235831
0,627411551565736
0,623405298606602
0,629864299841135
0,630051497395377
0,614281718342513
0,610972385227089
0,621106875276644
0,620480163099307
0,60310006017706
0,611838031965989
0,602943963893738
0,596537342006547
0,591913542997973
0,60584264592411
0,601671017293385
0,607130188062228
0,598815095929512
0,582934573319393
0,579435940872019
0,586950900935216
0,580527120822601
0,594882453273012
0,565680826250584
0,569641159303017
0,557462314889684
0,567150826593013
0,55607382925704
0,556811364255438
0,557408829647552
0,556887314638492
0,548452386699346
0,56383551522714
0,551270138091285
0,555654014508934
0,553506737466559
0,55026378412958
0,534691261252613
0,545219493457597
0,528292651662532
0,528040596037384
0,527724833339267
0,533653464345462
0,521087089400219
0,528791536744485
0,520887244351891
0,51902558629034
0,505692943758483
0,51577783820155
0,506197751038323
0,511784695534574
0,501413258802374
0,507865164864196
0,496241499071555
0,502923673598162
0,492258103212495
0,486002082341886
0,493733577948595
0,496551095065218
0,483739269136651
0,486655694063327
0,485936078747029
0,474909213071064
0,466435398009655
0,483645817274721
0,47514479772043
0,47431161203756
0,460885767326846
0,465873647851726
0,457298035093362
0,455312693865534
0,457040290026846
0,459107490337127
0,447484207053766
0,455662787478695
0,455102541737233
0,453536453093155
0,44297988330093
0,44923045399125
0,439179980902922
0,449557876931136
0,440924434307279
0,436631440911309
0,433072383666734
0,427674486650508
0,427172859662541
0,426970485879712
0,42035462246939
0,433476276217848
0,425542372566194
0,418646252061924
0,412228097922306
0,424502513119178
0,418976176858849
0,410562009228328
0,402308805546185
0,410017772830532
0,405699713879406
0,408254492974617
0,402692028974868
0,40244860278168
0,398458801001704
0,406284819993771
0,394718794242847
0,391591779010949
0,392727039480104
0,396566677313929
0,382571568303876
0,38318400991305
0,383641889036677
0,389385487294336
0,375905129137703
0,37514862162728
0,362765293984338
0,373685190267056
0,371923920491992
0,372177645255352
0,367709800380598
0,37119504083841
0,367702024311396
0,36043961547502
0,359483164587366
0,364864301574537
0,351884259490682
0,358659757356758
0,348779036697129
0,353888788559278
0,347596500748698
0,34482332963422
0,348271353190831
0,340497894325418
0,342403563997634
0,346479423452661
0,341628818504059
0,341266802465303
0,333514614110069
0,342182077724309
0,337207098869201
0,340454876069402
0,33062312833975
0,334791412148951
0,331908886671416
0,326668346871188
0,323368386870357
0,327447159756985
0,325152782624113
0,319737171797063
0,31444648181143
0,324115452601102
0,316197941168985
0,322226987465555
0,311131855804122
0,310377461270871
0,305599827401326
0,308707885872341
0,308413957633783
0,304161186877817
0,300100276389388
0,30155313909591
0,295692758456647
0,305101841544488
0,295783622465082
0,30053058380695
0,290468060985753
0,294719214515372
0,284117085776691
0,28985165180102
0,295061971849101
0,291622432661915
0,283426629450126
0,291591512964539
0,281746747909489
0,28588958596962
0,283229561544678
0,275815697944734
0,277006258127843
0,280119874351574
0,274758302772284
0,282934071000091
0,276134472127704
0,273468707456319
0,268690852665191
0,266790971593311
0,264519172577123
0,274114677816091
0,262534103235184
0,265487579654804
0,260068425415129
0,264701141775381
0,25705555400151
0,262209917416265
0,252472171663024
0,25484552860237
0,252017434709514
0,255798353108536
0,251604165824438
0,25561506582914
0,247790593947943
0,257073306543913
0,255790350719048
0,247878872260815
0,247069774962021
0,247984507803297
0,245001813554915
0,249476729072132
0,245718284292652
0,245715107684447
0,238641050991632
0,24388976175145
0,240993092577942
0,246275779077252
0,239790019134999
0,245062472841334
0,237308663536614
0,241057480796534
0,236071222225576
0,236454558725528
0,238037549980715
0,242850923060084
0,239817984268894
0,238756024808778
0,233732788052087
0,242628882628174
0,233862987344405
0,241019405163217
0,237313709935808
0,238588584216641
0,240478434865188
0,246458295810964
0,235015706441962
0,246586450638057
0,238749947749087
0,246466956146773
0,244800114352248
0,248292702709931
0,244494370451016
0,247753041061805
0,246040993735031
0,2500990658394
0,250483837091725
0,25583801365756
0,246329670664473
0,254040345274804
0,252952116772652
0,26397340743209
0,260891128459885
0,256760029789012
0,251235365456092
0,262487386913982
0,255357862927005
0,258759768824907
0,259641459197794
0,272951616725973
0,266159628103355
0,266120891619102
0,271268618380789
0,277014616382865
0,2735054604336
0,277151934382003
0,272774086375522
0,284564864132281
0,278497253262726
0,281084934391007
0,278026226818288
0,289417065773088
0,283390099392699
0,286345423222133
0,286173044460155
0,291592233953468
0,291117074793526
0,293801508970543
0,2975747915721
0,305262174729349
0,299384733253634
0,305156011057268
0,305087676700305
0,311831455205776
0,313489173897116
0,318400331234227
0,309592571469268
0,319983410282255
0,316068181296372
0,329336000424555
0,32724411970981
0,330101900909174
0,319796234317993
0,324954723364005
0,33034355813908
0,330216761916244
0,329019472284654
0,337074099059282
0,330269272163474
0,33730286656651
0,328962282761051
0,343942105841272
0,330815021426918
0,329905777309197
0,328387726302846
0,338822051390344
0,333762373032862
0,331260877158809
0,32517080823084
0,333956484314365
0,326494946159907
0,325354690880078
0,323730361308886
0,329845325394858
0,331737840349547
0,331529174776972
0,328942850511145
0,334780186200577
0,326480750059254
0,338966529520446
0,325658248154502
0,32910032375168
0,325449926407883
0,340670753580728
0,32524422171829
0,334392246761074
0,326126516447385
0,335342154046038
0,330282898931808
0,336889850463044
0,334174154693752
0,342509154920746
0,332046643909674
0,337188829362463
0,330650355392098
0,343625846329305
0,32955906091969
0,33498114333453
0,338394248252657
0,341916058515411
0,330819161723667
0,339482355633946
0,335259128783445
0,333328411518775
0,332379772403137
0,331393129982614
0,333912003388565
0,327380060357616
0,32666689642443
0,336985795880091
0,332495384015611
0,335519816868959
0,328307686878758
0,329443880699223
0,322905141646008
0,328697235188744
0,312742174483662
0,321132642204441
0,322792654229131
0,321348602760439
0,316082445874202
0,319206753382749
0,306233484387692
0,30995398112009
0,310487827617416
0,307648556948254
0,301146284651982
0,305344214499729
0,299457122368295
0,296602624106782
0,295788028002015
0,294770357705528
0,296807457377863
0,294240575051628
0,285909991637616
0,287418718452571
0,275403083848255
0,281428116814868
0,273635619880048
0,274352149893187
0,26938145488885
0,269064845257501
0,259356773164311
0,269942259507198
0,260071673847315
0,260080457991185
0,265425106513431
0,258453529727888
0,259300797995902
0,257390770763256
0,254129509377137
0,257309726269728
0,243953154775731
0,249761456907662
0,251078271826103
0,246115319098362
0,244108072494179
0,245298116625331
0,240062196629666
0,247252938231062
0,240142318083729
0,240355754925925
0,234630956637994
0,232682391717052
0,234650533784854
0,235351065155881
0,229285404905197
0,230493453113873
0,230570842137009
0,233427858835194
0,227280606885978
0,232135492247268
0,224863160517259
0,22428332093956
0,223520389528944
0,217942658503624
0,21763972971882
0,226407326434149
0,219650210686186
0,221827672418743
0,21467883430388
0,219447098242541
0,211315448514742
0,215999577817821
0,214630766978234
0,214844607276769
0,206987499845317
0,21328403773939
0,2097707895656
0,208903166603784
0,208817608831758
0,207834879019072
0,204831308281159
0,204074325148246
0,201141592557638
0,20783017987309
0,199585167168042
0,201394296403164
0,198565333266616
0,20206033542746
0,19343595638238
0,200433436558543
0,194572945608013
0,199337621326201
0,194441847325417
0,19577611427231
0,192220483098655
0,195815259923564
0,192876193966463
0,190905485246449
0,193497317627494
0,188443779350616
0,189440404151645
0,192653221482813
0,190158614666148
0,194539743574612
0,18544602924328
0,189272683068395
0,185908070355373
0,188351150307461
0,185390355558926
0,188771652739769
0,179102384406172
0,18347413275761
0,189219241939752
0,187139740024316
0,178954567423314
0,187661319125615
0,178800400598463
0,188946253610078
0,179986731325311
0,18316713242684
0,178630424944805
0,185153576867792
0,180456722416746
0,176834325776633
0,174963016263217
0,184232903421441
0,174317126791114
0,178241047655512
0,174781677329779
0,179838954979134
0,173901972359868
0,177526133300613
0,176354382948895
0,176462098312692
0,170471528582629
0,174145140299152
0,172010180528545
0,17384952346627
0,169400529205401
0,17107525063531
0,172132161943273
0,174387721551989
0,167085205990319
0,168878493772662
0,166441720347722
0,171188982981851
0,169987855843211
0,168043248890365
0,169743710559506
0,171526645171754
0,164878943291325
0,17038152972466
0,168977009778194
0,172172281312463
0,166780729170231
0,171691419944879
0,168765841397198
0,165777279418176
0,162874432383094
0,170354937284102
0,16766228018051
0,166699748368353
0,165189610574999
0,169822763521013
0,160613416974618
0,167844022658217
0,163189302540491
0,168189346951812
0,163697810298614
0,165076966361596
0,162435067299355
0,166057584401036
0,158864726952846
0,167355362144415
0,162113772361284
0,166042766977766
0,161119305477407
0,164334906582134
0,161343822736568
0,161840276112408
0,1590686939985
0,163223934160706
0,162380903090144
0,161321680724153
0,156661950010079
0,162978336024856
0,155644506339337
0,156615601556644
0,154804738930524
0,158850079344166
0,158442181947896
0,154057939191092
0,151875579682457
0,15947423336393
0,15421382168931
0,153527244685524
0,15089851340057
0,158348493555459
0,149911801939066
0,151608706872812
0,150365213378606
0,154499928816756
0,149561672596987
0,15219281891178
0,148447746185749
0,151206180558976
0,146677587840342
0,148059921938042
0,149109959211943
0,148146779603744
0,145315116285865
0,147695985767643
0,145346835515426
0,14617188896144
0,147243756819047
0,146520056580014
0,144937261184413
0,146157227708333
0,143523880613499
0,147047399648148
0,143646134822504
0,144942529442308
0,142733221001401
0,141864562566588
0,140966190081041
0,140324400224387
0,13820099624603
0,140335365779697
0,140350254181781
0,140378317328281
0,136165891532458
0,142349653308241
0,13795166718021
0,141681192589269
0,134647059533931
0,139945030334629
0,134189284213708
0,141266278578107
0,133354277997128
0,137609426914582
0,133430099521151
0,138024172411048
0,132885145024178
0,131851156421907
0,131669104614248
0,135869502503479
0,130099875183017
0,131239487214075
0,133912874386009
0,128112493371666
0,128253901932871
0,128148529863235
0,123148993163869
0,129310564335516
0,124738822310189
0,125751644193574
0,126745983305079
0,124825180212929
0,122387889885783
0,12669517473745
0,120020098515023
0,123105118417444
0,121214480192473
0,118524479600879
0,117968649205131
0,121289440659962
0,11891454353325
0,119655640544647
0,115268574534996
0,121559649120097
0,119205641519367
0,120782134488324
0,116876940830645
0,11236889437181
0,11395700777773
0,116054517970065
0,115116473093695
0,116293665295958
0,113431156139939
0,115719354068786
0,111606140366557
0,116812566086362
0,110892635365531
0,115863286212721
0,114157288434097
0,114392214209081
0,112405378138984
0,110713166785303
0,109050712377742
0,114809571199532
0,108606119348983
0,113272307246321
0,109858370628582
0,110492035741792
0,10821892638592
0,112313912740115
0,110591815517718
0,107009483451438
0,106959334328457
0,109391335650292
0,10934777320505
0,110393409317157
0,109105422420123
0,109473132821033
0,105583872224641
0,10477005752753
0,104430492361029
0,106860612838736
0,104171929550744
0,106723777451695
0,105896591001224
0,104441892274014
0,101719606285714
0,106191612554545
0,104382196659324
0,104260070222629
0,0995632448899881
0,102382731960986
0,102700908549658
0,108285010418198
0,10063792638951
0,102467300683109
0,0981318572904832
0,100874110538024
0,102671306855434
0,099686976105811
0,0977849804940995
0,100380349294028
0,0991192424700533
0,0986250364962848
0,0942982561500398
0,0973574641659283
0,0990008878072872
0,100546155343062
0,0983992637992631
0,0983634496296371
0,097274400344229
0,100187618354902
0,0962250999597734
0,0959574947582599
0,0952171369623682
0,0996448314954688
0,0966975172488431
0,100324243514607
0,094832302973113
0,0962178542688915
0,0973816132826895
0,0975380872774063
0,093573766949388
0,0956263065749952
0,0946203868502188
0,0972139064452393
0,0964200798894743
0,0942343728029029
0,094436001495747
0,0951655541953682
0,0929999756035227
0,0995962680763314
0,0948351092792164
0,0943703883027503
0,0939264682260759
0,0965019592139998
0,0939595387729989
0,0933105056077528
0,091633498257908
0,0933539626540035
0,0921430920461835
0,0934133428179341
0,0903376817942174
0,0950475819507166
0,0929248593141461
0,0940278554651145
0,0918822915056028
0,0891803727298319
0,0930759713631274
0,0894359787417405
0,0908812443306267
0,088967522087143
0,0885085083681448
0,0875117560242606
0,0891494511551192
0,09182132521929
0,0895588675209189
0,0892565007937798
0,0872878397124179
0,0906610975511301
0,0870368658982723
0,0862036692757106
0,0870021905510205
0,0861237551787232
0,0865133596355523
0,0893720438494194
0,0873678393707978
0,0858798108538991
0,0853994507873165
0,0873367921377295
0,0844249214429564
0,0866359974146798
0,0826643170709872
0,0874345383941777
0,083548766929131
0,0849907910401368
0,0872266871032134
0,0880838975590909
0,0841691151179298
0,0870000042752774
0,0850803596623109
0,0846850970179737
0,08795185242829
0,0850861505820619
0,0835197498503182
0,0855416919352398
0,0834461127738293
0,0837936966209292
0,0843305032743379
0,0847644222272124
0,0831865447973171
0,0876804951867314
0,083542742235994
0,0816789440747504
0,080268221612543
0,0810085187789933
0,0842812737519291
0,0848205743620862
0,0835924115533442
0,08154750238221
0,0826797929273134
0,0816161028735796
0,0795283388114596
0,0806276559643768
0,0798616513458074
0,0791878857813161
0,0791715071808833
0,0780398110405266
0,0759731848678652
0,0796801720869975
0,0778604906422093
0,0770908073257048
0,0804911931003061
0,0773681916824739
0,0778398593202521
0,0762471592844625
0,0780027389542054
0,0742762640625616
0,0736706771529689
0,0740453874771078
0,0749792950489221
0,0753355295304581
0,075331688435541
0,0736850177586271
0,0743004383845342
0,0729238770376808
0,0725522340401761
0,0722250029763944
0,0720993897455659
0,0740238880451356
0,0744426209617023
0,07354198432887
0,0722524586519452
0,0718183620289599
0,0717085911522056
0,0715754401716084
0,0713590290736626
0,0699033152483574
0,0729349748275014
0,0709341561952574
0,0705632808153429
0,0730103122893406
0,0690867589205539
0,0703386255045373
0,068188321835802
0,0675218807431156
0,0709721993916507
0,0697400971474555
0,0693327046930111
0,0688875263398564
0,0708402823210761
0,0711285155142792
0,0696947264825866
0,0685422969702577
0,0687707525690555
0,0688319264707496
0,069054368104847
0,0675424405889506
0,0663660742647534
0,0701862394598512
0,0697799880856198
0,0649037580745163
0,0676636593276245
0,0679743646115425
0,0655355866044054
0,0650832017283777
0,0664188461625873
0,064978435258598
0,0668120283500392
0,0650826874970326
0,0645231439152422
0,0650673018134327
0,0608715920059565
0,0626856370024704
0,0605407451115216
0,0630045864857116
0,0634168230691867
0,0620512772287967
0,0586669055967173
0,0619691337564445
0,063223391043386
0,0620612107440917
0,0619293809236027
0,061868803984612
0,0621438063534139
0,0597685062066494
0,0601629427945623
0,0579139009001816
0,0614193978434389
0,06248702253234
0,0625784513883778
0,0599701053559747
0,060221357495123
0,0608793035491509
0,0624745435240332
0,059193391731977
0,060435048911653
0,0588470533517415
0,0595538237530249
0,0607038475090856
0,062149446345085
0,0586976325179559
0,0613225421812423
0,0587770061605471
0,0633176563122159
0,0594472302433513
0,0649356259265589
0,0610170791221372
0,063457568536442
0,0607181547132855
0,0607473053919893
0,0619746724290318
0,0641976981736258
0,0604322555603044
0,0646890622389712
0,0593519899731085
0,0573963576574766
0,0537050661834701
0,0547078451444242
0,0536411712883868
0,0598186313815837
0,0619342929561445
0,0605048504930332
0,0452883102774594
0,0496681590634501
0,0574746827804535
0,0547059469127592
0,0432400181363964
0,0516019507420531
0,0453697908251453
0,0507531143102757
0,0535710993126978
0,0525950572849321
0,0453656967163364
0,0501764920545897
0,0513553066307195
0,0583142194464916
0,0503451230101465
0,0600368606380982
0,0534630777308823
0,060529113692685
0,051622301430669
0,0622876285763566
0,0464933020874993
0,0608471795810094
0,0482786715071683
0,0606258053581411
0,0450236464362923
0,0644339030416809
0,0473950860979089
0,0623482124127635
0,0460529443314524
0,0656012064702389
0,0419477787965636
0,0628074944480794
0,0382118969277716
0,0607014394451875
0,041175134087198
0,0682739646900771
0,0460695549778838
0,0724021947855906
0,0365174478866851
0,0615028825050912
0,04072774901207
0,0683544532328707
0,0446209490315091
0,0629872938289163
0,0393252723299229
0,0646238075280535
0,0572017244877689
0,0596281125007246
0,0524452533306781
0,0538793644869453
0,0659918825860095
0,0439982399379958
0,0669634110902392
0,0442761555807232
0,0710471058865036
0,0400092961638956
0,0785189685692264
0,0422107043856417
0,0662873349169981
0,0473767921196884
0,0667873178477832
0,0510393006839667
0,0568147170012026
0,054540240776659
0,0562739241503635
0,0565848886262682
0,0553880366882913
0,0541426824967531
0,054804129673265
0,0499754339291918
0,0556371197936495
0,0505384099422839
0,057963621971142
0,0487358137723102
0,0558302542382811
0,0502232218136796
0,0537502015773463
0,0483559235985889
0,0526864280909917
0,0497270872205658
0,0520937833721005
0,0504666475229442
0,0536736686250961
0,0497034855202468
0,053336179311773
0,0481940157473991
0,0516002555564962
0,0507549474039578
0,0489398504384419
0,0481319491052721
0,0534596917049372
0,0481804997914838
0,0509175482735275
0,0504393371028301
0,0516830008577418
0,0489012985342195
0,0536040848442488
0,0473866932337961
0,052126843239579
0,050096177962733
0,0506648379784683
0,050838483155897
0,0525709679475733
0,048638418327486
0,0537516268139521
0,0499757638130113
0,0516427645225568
0,0498187495002075
0,0513213538585086
0,0494875297034306
0,0524506797476363
0,0502039190142152
0,0533344176951783
0,0482082179697882
0,0534234364012978
0,050913737522091
0,0520879344769167
0,0494139726285081
0,0525882206222183
0,0510156450552114
0,052306906906845
0,0492265503995797
0,0509562153132822
0,0488451575201561
0,0520061575236016
0,0498163888853565
0,0515342836464889
0,0482380868136257
0,0500515406978108
0,0501470527201115
0,0507984137107429
0,0469567604560348
0,0506676283136148
0,0502707128082379
0,0501789619262071
0,0485717062210595
0,0502699381612628
0,049013767380126
0,0487235550900514
0,0481025684687218
0,0491839461862437
0,0490611573882502
0,0505996684192046
0,0473917384646303
0,0508686037609087
0,0487311964541053
0,0482187382848059
0,0497914342103061
0,0500117613009007
0,0495782771542403
0,0485134624631936
0,0466852188966625
0,0493087015457344
0,049590712343919
0,051021470641764
0,05093427514455
0,0516682450605782
0,0501168517357536
0,0512081581395506
0,0508210828213932
0,052672354988197
0,0482499350833407
0,0506494961557271
0,0521165963962867
0,0502634151784995
0,049789659121968
0,0511682640430644
0,0483164029907239
0,0497514188761988
0,0521510804833519
0,0532017582703849
0,0510046061198013
0,0527723926036042
0,0514637100656021
0,0505446310594055
0,0491331564740486
0,0514947930150306
0,0511681490991003
0,0523115535726568
0,0507112963891837
0,0492181942510468
0,0492191514416911
0,0513025886136418
0,0504156342992238
0,051749677510264
0,0517458460391513
0,0510318724370832
0,0495744227049098
0,0513949660610858
0,0498840203421658
0,0500444038186149
0,0509327771021867
0,0505696408282495
0,049594344479264
0,0508363197297631
0,048556502069909
0,0493305071863542
0,05009619078883
0,0513421517047525
0,0501486891217107
0,051720795162067
0,0513753641903605
0,0517490037671865
0,0503181239150889
0,0496080022251327
0,0495636862923339
0,0510644827821235
0,050247156017384
0,050680678270715
0,0494019744303315
0,0493255773384207
0,051047045125718
0,0501990653473945
0,0503956442911694
0,0540989529182549
0,050086693402374
0,0500854894144948
0,0510660275810547
0,0515114840791642
0,0522029898967188
0,0517418039978324
0,0519329944014278
0,0501717387715445
0,0514280940270535
0,0513331674419961
0,0518211435971132
0,0541198229463536
0,0522900393821485
0,0520956555841747
0,0511075584199728
0,0494458775151762
0,0503436557837184
0,0539093229292052
0,0523807990193692
0,0508515346160044
0,0511009313390547
0,0526725313228688
0,0503338381041638
0,0502200759816511
0,0511658481603484
0,0503434221903422
0,0514644615560526
0,0520038989874039
0,0521592721372114
0,0528095474595916
0,0495749968989081
0,0517877850765836
0,0504739267873928
0,0488602691620648
0,0500326411534086
0,0498874601871472
0,0483407011090065
0,0485314130575638
0,0492609395514233
0,049867346289224
0,0490050944339058
0,0504744144092338
0,0488510947136428
0,0488612526123809
0,0475863272519121
0,0486664640583385
0,049415677857992
0,0494830266110701
0,0496542127182109
0,0488376015769411
0,0479229481215634
0,0474725349268692
0,0480185897377926
0,0494990703591227
0,0495902372899378
0,0492486794943608
0,0479192182862003
0,0481468002303296
0,0498520038739624
0,0478818778643345
0,0478036974513594
0,0479134095063893
0,0476216243318242
0,0471785911030595
0,0475737935390126
0,0489671396248494
0,0468203678836536
0,0464786021332477
0,0466974058413101
0,0479778287642502
0,0473378752863114
0,0486043264377394
0,0489431660728767
0,0498869667915208
0,0475942514176564
0,0470999854459267
0,04691907501711
0,0470433270230178
0,0468092015069225
0,0468890988993634
0,051107199250705
0,0502260617385529
0,0469942851457272
0,0471817604198011
0,0490656123081411
0,0472802002627806
0,0470823599804232
0,0491429555427698
0,0459926608006494
0,0476729910388353
0,048325561339121
0,0462960363562887
0,0474578863594737
0,0478995158628816
0,0445803751894638
0,0461614087657648
0,0473843423352731
0,0444541545196619
0,0454319570200194
0,0456354286090873
0,0455880388474407
0,047417414392261
0,0483472926705768
0,0463294089149413
0,0442139165221917
0,0456233260302254
0,0469616885321581
0,0490992678023723
0,050432886944808
0,04613808764712
0,0473140984886784
0,046746279629622
0,0472912825885661
0,0479391033902061
0,0465858101620784
0,0456426755931199
0,0459110575586541
0,046586104270575
0,0466928830540582
0,0450999320565244
0,0459326456059661
0,0470946249755075
0,0453146363085135
0,0451128221945054
0,046762236389376
0,0456291796162907
0,0476087367001386
0,0475839396122414
0,0448072536612109
0,0459171434095066
0,0485154482353656
0,0447800136872504
0,0455922914903938
0,0491594112309111
0,0468304990235535
0,0459922918111522
0,0466483983553881
0,0440264095330475
0,0443499422386312
0,0432964863145261
0,046605268482112
0,0458547315919517
0,0458384884850078
0,0448033280137689
0,0438447568612911
0,0442606769229208
0,0430593004715637
0,0430327385708836
0,0454051894936401
0,0436837943453507
0,0432609330922059
0,0434496142040637
0,043751334739058
0,0409299872530038
0,045016223705591
0,0432690668939177
0,0442898604357548
0,0443495554252116
0,0488942118363103
0,0531474412386563
0,0453205012737665
0,041279070162639
0,0424436701428749
0,0416587879010888
0,0427935283544428
0,0436231755732416
0,0429123386847434
0,042382376142275
0,0411417733971162
0,0405653662407419
0,0416162837250768
0,0418014379335629
0,0398422212021612
0,040283228920758
0,0417564438814682
0,0398519834469849
0,0408274954019089
0,0403479550145919
0,0415906386992927
0,0409222148842322
0,0410550080497043
0,0400827118635499
0,0404872075417705
0,0399624711599893
0,03905505224888
0,0536661800144519
0,0542691603521918
0,0415414585249565
0,0416648841859802
0,0451228962371249
0,0429429842327242
0,0406006132995828
0,0433215476600391
0,0425200160637841
0,0397478276339333
0,0391398510264135
0,0403628117759681
0,0395357537949525
0,0382784426626326
0,039484920377545
0,0400210999177211
0,0377412821423009
0,0396170646858663
0,0399629290220928
0,0404083209889256
0,0387789639192244
0,0384404805239648
0,0393073752219072
0,0389792486173214
0,0396392727862531
0,0384671819285728
0,0426934319393363
0,0504600906227394
0,0489953908019756
0,0426865502965403
0,0397110324757065
0,0393472481417696
0,037566469266893
0,0403285450574985
0,0378272599513773
0,0397945233357032
0,0380981826389887
0,0378830990546954
0,0400335564721024
0,0405596585676681
0,0384869009633216
0,0394948255278345
0,0380550826822763
0,0377199078762381
0,0353365305817041
0,0371595696147929
0,0369230762896886
0,0377237821846775
0,035813184125534
0,0410083654556373
0,0413872813388218
0,0416785707381894
0,0359639827631848
0,0543913803992819
0,057685815617459
0,0457512864811943
0,039008257921061
0,0404563810301695
0,0347036543948233
0,0375137087975095
0,0362472573633732
0,0370873417070331
0,0357192451490307
0,0367125399803711
0,0364602702854636
0,0386486539819775
0,0373680350435721
0,0382917544799834
0,0354516320095823
0,0377049112428401
0,0379144799441027
0,0368732159649375
0,0355858037116075
0,0375102086259243
0,0453905839800345
0,0603285121120649
0,0466709796100948
0,0423879645713355
0,0328114873589395
0,0451444213744003
0,0640038651512392
0,047600640698911
0,0368442426976418
0,0393510494176819
0,0393524762437527
0,0357995475624014
0,037045438639255
0,0323902503761
0,0436206439525753
0,0440298808165168
0,0442796089306789
0,0405756316264593
0,0398722906114169
0,0371695534396401
0,0383991613835845
0,0380487401546405
0,0352363974816308
0,0372328503685341
0,0369286708276897
0,0369829532086381
0,0366699170328552
0,0352683379614319
0,0357151061626999
0,034305883469872
0,0468567151040581
0,0441199020045466
0,0370807264179377
0,0363444909715852
0,0366675762319693
0,0323151088458236
0,0562723954779159
0,0512542150146785
0,0419429822596104
0,0370195585834365
0,0359765146309174
0,0376950252296784
0,0366797827741675
0,0353265520598932
0,036081435195725
0,0344834608117237
0,0355192701192387
0,0389488828297292
0,0364683728069088
0,0367891388010898
0,03637776658676
0,036451340059724
0,0340156339011077
0,0369954820633072
0,0348400210065361
0,0376391050640093
0,0358635793351938
0,0439144669995285
0,0657487591393493
0,0656858746579844
0,0615010318626903
0,0517705153974076
0,0461181174344141
0,0383486009327583
0,0401033966886023
0,0349616635543055
0,0395600593049285
0,0387464180020374
0,0411830102722863
0,0364425008746596
0,0405802655256345
0,0344390349315843
0,0346229087421287
0,0315000119566367
0,0368211470524368
0,0331926322129727
0,0380313847195269
0,0337276374571619
0,0397604231986938
0,0328476222621585
0,038060816459652
0,0501075729346047
0,0495542224944671
0,0382139147174179
0,0444726035339949
0,080743152768295
0,0572282721472421
0,055598476362552
0,0402606225697093
0,0429853679024038
0,0337003245174149
0,0368463133152836
0,0418984585730209
0,0461517105129511
0,0347791311580622
0,0381170312684209
0,0330679563558136
0,0421442692885356
0,037458259212287
0,0359873597766267
0,0637297600499021
0,0811009389439788
0,0533022361081993
0,0439779692058234
0,0310491652382678
0,0668940580456707
0,066500075587917
0,046901314153229
0,0419398277837252
0,0435906147770637
0,0377639022744313
0,0375440123123117
0,0342472849008431
0,0408391730817695
0,0482593603488483
0,0369572746182096
0,0400855035861882
0,0362338422819756
0,0379019221814225
0,044424036394584
0,0445193944429812
0,0589502963547506
0,0509816362813772
0,0399934986221481
0,0465394421277257
0,043855066403407
0,040498793663089
0,0407436181478178
0,0386360249155808
0,0379905982563512
0,0606694025889574
0,0540715644556717
0,0544120298131929
0,0659433314816632
0,0523205528557813
0,0398963290461492
0,0465328586745423
0,0594129357691551
0,0510839347114528
0,0340160470047753
0,0796584684436773
0,064385734479299
0,0883394992246288
0,0553029196124302
0,0535455437322843
0,0370327472758679
0,0473816833856055
0,0326255696431464
0,0513796169790453
0,0631240771419433
0,0481021003821691
0,0448237056972658
0,036764089280398
0,06336915762959
0,0545254561036897
0,0536259757495733
0,043873939590728
0,0399731752493847
0,0422579647578108
0,0723636105170241
0,0417353182632544
0,06464843668179
0,0802699005836651
0,0922345412317478
0,0833188741290996
0,0414286310409568
0,0623180875117091
0,0756078062130191
0,0541092058103738
0,0483859083994651
0,0390878807366241
0,0495542084215625
0,0343817158144945
0,0694761754215441
0,0817865331932285
0,0546275959451951
0,0512493637754664
0,0472073985429844
0,0576553591024111
0,0779884379549308
0,058937510299602
0,0468868948880794
0,0488728597604118
0,0465618806603681
0,0551846294017267
0,11876818297694
0,0594028349139756
0,097900569521395
0,0727388967134282
0,0925657097656256
0,0612798020054994
0,0703704811607363
0,0495647297055666
0,0905903523465609
0,0746028099098871
0,0635722003237197
0,0447968802642043
0,101524005320749
0,0641587377304169
0,0695435583430732
0,0557920729824564
0,0575025731866173
0,0621803149682203
0,128996617941221
0,128578235231652
0,108353288628543
0,0596073648469064
0,0822470917683868
0,0919679560883751
0,0695181229609663
0,0584429836011795
0,0578602329300732
0,058989144174898
0,055984977297943
0,0655820949160751
0,0778706373999122
0,0605055599122343
0,0729890845841255
0,0531386819858448
0,079226611620085
0,0979868408966462
0,173656934447129
0,0957351692337296
0,105106342140514
0,106345787699942
0,100222800045519
0,0870604128795408
0,0683206733829689
0,0708360688859074
0,0815016091996285
0,0776435017748887
0,0722341104060207
0,0795747303747084
0,115781328886626
0,0856575592224726
0,128775135131751
0,0875631095987793
0,100764648270679
0,0750355562145343
0,155341308954881
0,235341528697124
0,126347099907843
0,116331424867024
0,100667061583999
0,170269552415877
0,154444281331978
0,120601742572504
0,100331646915483
0,099250237164288
0,0956673064113246
0,118995035647953
0,120260674778552
0,12784171214267
0,137904896978086
0,120548288539802
0,127118569988088
0,17730952308975
0,23931668150626
0,232801124442227
0,150443518051951
0,148240288007726
0,172804977562773
0,16480545212703
0,146336419254092
0,155710535373164
0,133699902158404
0,218488164324004
0,192417246757312
0,18785386619328
0,153250136269857
0,196993094234515
0,190942473658466
0,191328107781627
0,255742791493391
0,211040662038096
0,209267600342689
0,174529237077858
0,207492580062779
0,179721887400681
0,215298212775199
0,233411582390171
0,227994134311273
0,214838429953378
0,205690795993724
0,215023611355556
0,215267546665154
0,226224701540961
0,219492431485973
0,236670448294094
0,292687556945336
0,32887133237995
0,509597962215707
0,254757229484097
0,251550561437367
0,215243996314122
0,262458897733552
0,271414019023643
0,278341919543138
0,310758932640629
0,255598959561079
0,236427930557953
0,228319086867256
0,2405594102715
0,230559339185367
0,236020282913821
0,22951636609568
0,232928821930955
0,277931336100621
0,23620062014954
0,365297225995065
0,284612512506924
0,262443092579845
0,22376735009236
0,245235434338551
0,225254731370948
0,245989357229788
0,213613117373096
0,27072374798308
0,245526497406575
0,245845624901566
0,221154400624744
0,238644645750039
0,27533204797812
0,252808467698102
0,233881243902579
0,226449247252642
0,219208287730676
0,231766945873434
0,204213278377237
0,294214208971957
0,252695476531422
0,237360059685635
0,21595637183795
0,219676613901644
0,213166626187802
0,218797645637681
0,208041427151919
0,233283078786077
0,204959396844595
0,224105952141138
0,211481752641792
0,21129860239572
0,204740440425472
0,215626144776259
0,220871212209932
0,214989540371934
0,21287478600634
0,208731359520723
0,207660245477126
0,214054514789499
0,204598668471625
0,214912577018014
0,208312113610331
0,223015832624434
0,212342138323113
0,209691850797235
0,209928418501385
0,207445334139339
0,21240794888264
0,210862316463379
0,209989703933894
0,20614538878365
0,202457157498007
0,208512355081873
0,203445995684558
0,204383560635591
0,208553527936848
0,200529078534861
0,204481203921547
0,19941908088686
0,205495041459919
0,201762241803677
0,219714872811465
0,30943543067322
0,215073220419386
0,216167632655496
0,181728054801798
0,209573766871852
0,178909667376847
0,201389382637525
0,265214526639479
0,226113175771151
0,191403384774832
0,18643596965684
0,181855600966064
0,223266139932287
0,180670680781886
0,191791860119261
0,174009926802941
0,182521200713665
0,278632187282708
0,248523429545853
0,395545176089463
0,272271899246223
0,207387628271668
0,160758299497122
0,241430206772947
0,199088434322379
0,181753265878233
0,164078410732908
0,161712261446532
0,23737774542975
0,175063617949072
0,176035532153131
0,155259512644201
0,165303601511406
0,214950600366588
0,203104332700955
0,191102606591659
0,231063671463847
0,204144996233955
0,21453817213986
0,252525319876682
0,28266872858664
0,192408543646835
0,153186313275072
0,161820356426307
0,14565243165679
0,196873810687001
0,221173422351216
0,164586916480321
0,184106443147231
0,134025323058287
0,156527004931046
0,150453910411891
0,199202310071224
0,142247513729009
0,196842158891078
0,182504270535865
0,151332833968105
0,179536800972843
0,179435420867819
0,234983508969795
0,212126163768359
0,157314135486143
0,135314402453736
0,226919083244966
0,182484342330877
0,168755879127019
0,164057336930598
0,119369143094842
0,162746048285459
0,156958005839573
0,134064371835331
0,177066924090133
0,164907978044907
0,215101629670322
0,221410533700151
0,266002874983902
0,21514877904763
0,141991585320927
0,128486931218519
0,126050194503082
0,13934266285032
0,128331517281454
0,120794953261038
0,196787514149688
0,118772565644933
0,165946500046474
0,180081492237262
0,141304318956774
0,130027842906861
0,130491201118892
0,125287548580972
0,154336208317052
0,185389820009656
0,217684223204049
0,148818007617176
0,182912024473706
0,162650666719393
0,163336895098358
0,142284078870122
0,150971000388997
0,143433586519404
0,159722457303573
0,166862983475614
0,161569314113805
0,15849594204299
0,167506124419889
0,155299881017769
0,243481479939234
0,19138833252837
0,190816519719399
0,231704638815562
0,231558250785097
0,286255436977447
0,203224390334634
0,209824828627005
0,193440515652204
0,200282642548532
0,205708198777598
0,198396869783509
0,248832920587487
0,242331435615309
0,222200141292716
0,219342464400489
0,221984094029733
0,224518615727636
0,233543892099294
0,295339858308809
0,259526774932699
0,389957351425424
0,28150289127838
0,292813349006755
0,239720099628529
0,243766932457408
0,251604661059469
0,2512881514956
0,245696849842399
0,233116092424099
0,259278702821898
0,28659617330211
0,246040948111612
0,254745214096555
0,245242947173185
0,256254145943826
0,248295193144018
0,253769427067198
0,256379406119887
0,259831331987229
0,262838945281186
0,257404138771671
0,2896325831532
0,370461626986107
0,287366090258931
0,286508896022184
0,272625923846394
0,297929829627662
0,268675944952305
0,289532556006808
0,308648173913179
0,296030171561274
0,29429737560109
0,286530138115766
0,29322974499641
0,291088909317794
0,32365686905668
0,329445872954173
0,288970229020328
0,314671441577821
0,284019937036747
0,405885448373701
0,334475908702075
0,354434738377282
0,322850311287377
0,327543072780406
0,308229853441135
0,31272718220368
0,307406251238561
0,319643335353632
0,324436587268453
0,319328851225737
0,318963035804302
0,310983238629218
0,319961943453805
0,310111908699234
0,324959826170217
0,354632457898834
0,319945984475301
0,320019621886656
0,308926478992754
0,318926399291585
0,313705671225198
0,370569983353551
0,331732355027428
0,335545939660263
0,318233369744456
0,344438462212668
0,349431254655039
0,335582217718308
0,305337974013109
0,317754510215183
0,305452895068605
0,328846974777853
0,2981664004313
0,343771814840951
0,341776528108614
0,333787992428517
0,312148653635558
0,322358179377378
0,312357805211688
0,325724344768133
0,317423192759915
0,326823084089087
0,325847223264717
0,334164147092504
0,337590963929724
0,324009885678691
0,328549678832356
0,348267603903192
0,360574775162663
0,350595979847449
0,324537384817486
0,335128001589346
0,317864668250944
0,332814106971523
0,328497818322038
0,329101179739676
0,306905668961838
0,323269300835395
0,297935220029293
0,332004157355567
0,35083997705436
0,317021372557291
0,327749724996085
0,29698423366824
0,298995311210828
0,29823861329828
0,293170429774734
0,285460510816933
0,293316265255194
0,295158326028409
0,283980191162178
0,286194974614954
0,280240608335645
0,281600685338252
0,281858660072991
0,28427686310652
0,273236320763878
0,277273414031475
0,271729995625073
0,277676203652879
0,272881730525727
0,2775936135489
0,276510153743875
0,278654890984019
0,300829701153545
0,299402847396095
0,307470575578316
0,277340862289411
0,292174769289756
0,281381263338643
0,274650243201652
0,274523663247043
0,268134209732198
0,271482455308685
0,267872208046275
0,275645794220106
0,272854980475024
0,27162746760608
0,268495433732557
0,273922117924171
0,26754345389081
0,271427451388434
0,269037209872427
0,274984276185725
0,26697262600033
0,278856775980186
0,2680494217101
0,287040956549566
0,270357782648295
0,285196938925344
0,272072234494233
0,273718568058147
0,275503428791288
0,274654955081184
0,279922922986308
0,270399424194052
0,271255713377548
0,269696442455156
0,268911042927529
0,275650240459239
0,269524935669161
0,270545620859476
0,266230176409335
0,270987176017106
0,265124474341114
0,266131267219827
0,261835846270235
0,262292463523101
0,257785144213373
0,257546939488196
0,252118985245883
0,257383948388925
0,246811285641402
0,2470942316565
0,242892635797221
0,244049306223871
0,239694636724649
0,241294933793286
0,240169669194849
0,238819143602272
0,237762045250236
0,240636517576601
0,232790666490922
0,231896415900449
0,230127399943274
0,232928676243586
0,228332688746102
0,233643053148995
0,228732887955579
0,231146970679848
0,227426939583259
0,233251507011566
0,229748972935913
0,231021788290558
0,228214815121762
0,23370571101189
0,231041847042571
0,235306289511873
0,238362886388034
0,238824600091378
0,237465369642098
0,238288428331419
0,237602163628193
0,239628074072604
0,239243317391236
0,239849238840895
0,241098469423007
0,244791418711215
0,241463494933015
0,242700221480487
0,245102856758299
0,245168723946996
0,24451392008303
0,247003833828062
0,24531135433602
0,243001434189195
0,245618449958568
0,247935218440573
0,243343236696686
0,245379615005283
0,240999515241547
0,241172370141469
0,242116438284894
0,240004022301808
0,237239485399718
0,241011386628227
0,239833275179237
0,238760786462212
0,237117811758537
0,235674573327488
0,236910181693418
0,236507775346288
0,233064711164186
0,236033325292609
0,231900066498806
0,233981309825451
0,232506891003638
0,23405644764438
0,229287863608354
0,231950153343734
0,22983975521513
0,227569264358216
0,225183121969072
0,226731979037357
0,226864353786085
0,225545318083519
0,224726211508486
0,225204381724667
0,225292980194096
0,22364267375558
0,221636935733486
0,222329093805305
0,221321652862217
0,219188637044123
0,218012852002282
0,219025497901567
0,216974461077155
0,215302391335765
0,211171950339987
0,21382345350537
0,209620378281633
0,210697488309922
0,206401449387827
0,20704935041008
0,206330230381411
0,204178892638048
0,201128789681488
0,201698320685121
0,199055430951124
0,198567215374672
0,198135243810397
0,199531554185166
0,197637590545975
0,198027319336616
0,196528186035751
0,198171860290358
0,195225855378361
0,197130510667063
0,193073016460304
0,193022442685455
0,191983991905361
0,192015394759726
0,18636139109634
0,18733851895821
0,183495560441488
0,184004700063291
0,178448838829973
0,177313874559317
0,176890992195502
0,178504311894473
0,175385000132334
0,178548090230495
0,177244033572201
0,1826677405677
0,185470715069413
0,188543348221137
0,19334801888091
0,197027614905141
0,205421555692522
0,213233810213653
0,219297609911219
0,230668410698554
0,236674837770106
0,247273747130499
0,255961377474363
0,266818159209281
0,272468921306519
0,285191959569097
0,292365473492623
0,305161375782536
0,31194305503188
0,32226782073029
0,331327532998103
0,340575431201184
0,347219762622632
0,357716627538831
0,363724362910751
0,372798643370523
0,377167669593167
0,383944424961465
0,39145143020313
0,398864296768776
0,400787443886985
0,405627459176138
0,407285354608685
0,414872447440919
0,417716812743383
0,419200044181214
0,420208995764899
0,424312370003605
0,422316657236937
0,422384241795921
0,424431387628959
0,422346781242024
0,421825003681025
0,423630041871477
0,425915069396461
0,426677919283949
0,428055040475783
0,427617676637525
0,430440689027961
0,436922033991523
0,434815667709002
0,43923613260975
0,443938038775515
0,446017315580763
0,447128111455055
0,451995503392764
0,45318787848942
0,45957020567978
0,469847094974598
0,471229212980891
0,474928550890842
0,482576900534136
0,488335845150954
0,494752327202136
0,500696293088314
0,5085225587656
0,510113121714613
0,52074934156028
0,529423770218925
0,536163913053922
0,536092577871092
0,544907786666884
0,544614677704341
0,546464830348218
0,547859781770514
0,55689048600609
0,552721542429209
0,556567200638252
0,555282271340737
0,551283424152734
0,549426773340194
0,543954811695131
0,54815776614271
0,546255089958934
0,547296239436834
0,548748828423143
0,55097878821013
0,562420982731507
0,562087839660155
0,57900987873107
0,584457504654019
0,592509615210806
0,600548262430675
0,613864556590039
0,616329490726168
0,631954160126256
0,63796818030769
0,64609973957687
0,661907401831751
0,671592652227346
0,684541173048366
0,692461023926015
0,698731080066463
0,712854084591156
0,721974319549599
0,737931531583807
0,74701701933602
0,759855228453701
0,769097700692624
0,784404417896778
0,802707155933481
0,819510142947293
0,823618467220389
0,837897159921651
0,85474900835648
0,86767036648548
0,864664284011468
0,880395553186811
0,900359042188272
0,904008585787271
0,91376388276957
0,922891201169994
0,936026738038402
0,934342205412317
0,945447808552767
0,94533626579666
0,939555877228088
0,93643881546502
0,938187630909292
0,936143274449079
0,94139973915789
0,925407110448649
0,910159762555334
0,921747025794932
0,910533876125508
0,912961238749941
0,922442704270091
0,922370419185312
0,918379978900245
0,929155529236707
0,940329747949203
0,930747685245589
0,928754704407825
0,953197446617686
0,959628745158208
0,970860327342422
0,971843850627579
0,991384826983039
0,999209061097171
1,00240583846726
1,00417168381738
1,01265573376075
1,02097081249473
1,0230301408673
1,03565040884422
1,02913877658799
1,03600575379059
1,02654668462399
1,01712502407113
1,02380002355113
1,03402046182056
1,04200179839533
1,05408505327832
1,03764976394588
1,0310634042429
1,04655133640431
1,01948793578214
1,02992865229766
1,01142666302754
1,02890252988283
1,03692755019492
1,01257177721886
1,01080154729629
1,01421315098057
1,00565240174301
0,995412779255697
0,990368672830134
0,9779697684688
0,97525754334348
0,959625778035314
0,941206511518516
0,925263598373229
0,911648951009636
0,889646400849983
0,87046353853656
0,844580661329459
0,805140336399909
0,780073139084385
0,752144720002938
0,726450322459594
0,695031000048437
0,666507955859647
0,656123689325152
0,630406354472831
0,620778443950666
0,60712874942688
0,592417049630518
0,584836718261756
0,57744401857128
0,579255083185005
0,574067390032748
0,56626561926452
0,567060776904692
0,559774472745522
0,549750941811223
0,55011508382027
0,536875377877769
0,53084994488185
0,524803558423436
0,512811911282393
0,507484871871869
0,496569048185835
0,490562345719575
0,479309898407488
0,469451501429301
0,456622610186419
0,438970137359012
0,425109756946737
0,413481832704083
0,399740841885542
0,381564478865983
0,369767543215987
0,351613349305918
0,332203809794411
0,318606448739279
0,302375980379456
0,28770731369915
0,273299626745966
0,260330911017031
0,251830258566969
0,241137500700866
0,231618605951182
0,222236870093039
0,214286042740206
0,206734158882157
0,197922061837849
0,189200938505212
0,188997572777279
0,182742482568559
0,183007313314986
0,179068517077373
0,171670550730672
0,171723534011178
0,175443003897407
0,173299950509516
0,172591761598021
0,171041527615733
0,16733767629658
0,170647140633863
0,169821425094148
0,175429746377677
0,172376332163243
0,17562089745505
0,175263709538787
0,175034358960713
0,173125025662803
0,175688416091051
0,178405112261553
0,176324410405193
0,171333592824708
0,17082760421351
0,16904184085731
0,172590083422811
0,166898568495048
0,171983625211336
0,167431811807568
0,162958100858848
0,165037165139675
0,16054033957724
0,162754363223796
0,165200326975599
0,160775737684296
0,162872816922302
0,162899959649403
0,163678967352662
0,169503002011777
0,168633050625707
0,173754967572265
0,174408878727324
0,173192106288034
0,176385816747752
0,177008354951445
0,176691824249769
0,179249192888001
0,183880359823747
0,178361955833682
0,185121351553538
0,185063355501939
0,187057261535349
0,185879123937525
0,18632211836721
0,188800718161261
0,187647807763343
0,188054949632354
0,190410800238336
0,193907885047483
0,190184034414537
0,194315325365434
0,197619103803695
0,196125887351439
0,197331053503139
0,204790865680595
0,214329120603712
0,216143143604408
0,223642165703569
0,233278796255099
0,237657805397821
0,241313293230681
0,248203987254563
0,253578280255911
0,257213698732324
0,264540103528575
0,269950053612964
0,261788463297762
0,25929549211378
0,256572302425573
0,256417673594958
0,248056427477116
0,243439295911143
0,240664765060432
0,240757598223348
0,232937646801005
0,230255478959116
0,225915508742204
0,226478875268099
0,22425687885151
0,223858256299586
0,222629503934069
0,22857537671541
0,224981621105927
0,218802858155039
0,223605058774121
0,227841625041876
0,218118091011214
0,222153494003291
0,216671415890466
0,219422172138296
0,213679919605362
0,214113738429779
0,206355494787973
0,209218057662213
0,212881852683079
0,205339462934639
0,200188073598203
0,204642381078098
0,196923904459692
0,194035465122352
0,196653831652393
0,192397757692357
0,188528565712911
0,194248210238836
0,190239760899875
0,190820424952081
0,183999457967936
0,185176122865935
0,185394426338825
0,18201655352728
0,178390390691148
0,176246320459047
0,171455711879705
0,179622115335525
0,173457445848007
0,172937190558108
0,169789142812796
0,170854266372048
0,171545383849585
0,166141567081417
0,164329548362716
0,164944387514358
0,166997273679313
0,167246398777804
0,160189718459371
0,161618353555562
0,156809766861362
0,164472909416599
0,158579895169081
0,158054982373161
0,159021289516107
0,154196816538489
0,147459896001135
0,153608738828266
0,155420984722318
0,157202785282927
0,166337014599795
0,155913926667581
0,158095132599548
0,155428231595447
0,15490306138438
0,167768250470248
0,160392930287458
0,16439281013448
0,163056925369316
0,163478021378187
0,160877794688764
0,156874545520903
0,159378648695117
0,167173136436834
0,170907104492499
0,16099493643441
0,165716018475206
0,170982837090647
0,174218921676571
0,175338551641665
0,174374656147706
0,179172765217484
0,179791934798937
0,185632406754247
0,186719505022604
0,185202876098086
0,186008436781288
0,18975178690033
0,194660472418203
0,204693120600508
0,191821448218093
0,214600386903562
0,221296785360916
0,223107269898835
0,244312041046039
0,24311776113096
0,242899939097549
0,267454332708253
0,261609100317369
0,279766016540864
0,277501008638444
0,294650265651899
0,291459456456761
0,293746381653731
0,286732658671302
0,30989140863894
0,318317868402212
0,315167370163398
0,307434678629427
0,319413848845984
0,29782128216789
0,284791188877627
0,291982528142756
0,300668732030334
0,30085932976002
0,286906548479004
0,28630530539225
0,27847315614321
0,288112631983527
0,300757614469497
0,279101954499214
0,268977029445047
0,287890489304916
0,280524905424398
0,279534399885111
0,290378398678038
0,277601002193129
0,265479736610525
0,275727912962841
0,272792913342706
0,261628829492814
0,26861876064731
0,256781800004571
0,250817980437324
0,264409966516085
0,247563802996656
0,23443522202057
0,247958360111155
0,255982803767263
0,235205087632522
0,23804973154964
0,230927828110666
0,250652504568027
0,267522094673209
0,251791526563365
0,27086247365268
0,236544195691216
0,241818619208399
0,247814277816324
0,25008534077302
0,254509993369681
0,278180096055998
0,252329104921642
0,260579109981464
0,267679705524501
0,252874131846723
0,244636834275767
0,276039439121588
0,265468736697993
0,250506914705344
0,266922604401371
0,260347164308426
0,235230165866162
0,259405913633663
0,271433673910915
0,293799770722729
0,289150896123412
0,28035741143541
0,273819463254499
0,262010886526049
0,254794020663851
0,299185581116112
0,276497406942064
0,287052535121382
0,27806525925619
0,287871276519878
0,29037599274925
0,304042588313177
0,292844747814157
0,304099076338586
0,309591174018926
0,338327186132991
0,35744932850929
0,340858978644643
0,344218611841133
0,339807192726788
0,340817523678225
0,357647066469556
0,338387378116726
0,390535485138392
0,391586275285893
0,354825389914983
0,360041580650713
0,382657434028466
0,368489349563476
0,395190431130684
0,377850280854249
0,352513339490838
0,360651429011239
0,398294428575559
0,331901055261034
0,341351525745911
0,408068709318948
0,357892498956553
0,295094164607989
0,351883130295443
0,327587610033716
0,339490734990922
0,356954392434222
0,342363582467817
0,336804118013204
0,354570033930106
0,338226587816708
0,338039906331077
0,341205206104021
0,385069171301713
0,319045935905412
0,326554966296832
0,282158776703626
0,317327537494382
0,367675841262952
0,31172829482682
0,358149856133956
0,40036427122556
0,322134404271824
0,394170376543614
0,342407944159405
0,266764756724487
0,379279038147856
0,334851401027752
0,375729613996819
0,323173817071015
0,338702182928291
0,400126472831949
0,400561697476697
0,343052557432366
0,362748597510746
0,442757886720428
0,420480664828985
0,383082800788668
0,288954027879007
0,551554114237939
0,325918220574396
0,409005063534833
0,405710869068525
0,273123307336322
0,522114156132483
0,537503570286983
0,212055738078303
0,513424626155745
0,582109020576727
