3596
4000,36533379555
650,420452594757
1
2
2
0,064300043324786
0,0657636831776956
0,0720512382213234
0,0708314225014503
0,0741677351678817
0,0754836950868799
0,0718262118806089
0,0735437743063226
0,0702468202243822
0,0743217468956442
0,0726828224479967
0,0661990503020039
0,0715548253146744
0,0717157549523037
0,0638800997068582
0,0724440104968768
0,0603160205441047
0,0635733397702584
0,059659926182527
0,0698272604813087
0,0736032805505547
0,0692614438997383
0,0660256325296233
0,072174396070391
0,0787567217131828
0,0769241936749292
0,0703492946301351
0,0800452334638897
0,0761320803255385
0,0702529259932623
0,0625839636028149
0,0746481537880046
0,0695263704099758
0,0757070775093522
0,0652692857117337
0,0692284608589043
0,0697213154676551
0,0796331850534742
0,060990814404827
0,0778768943301205
0,0775850009707861
0,0725716804315562
0,0838309050985552
0,0742059708119843
0,0729241735900681
0,0706439506253444
0,067224097677276
0,0641084076960242
0,0779459584567953
0,0759134993815054
0,0744627168357172
0,0649408326837952
0,0858863624777316
0,087880184853471
0,0761519623251081
0,0960424243626754
0,0883578635338072
0,065151917496298
0,0745700220262518
0,0634031942073579
0,1015671024086
0,100339659295217
0,0678547307768296
0,0729978835795333
0,0571021399114005
0,0767086901221518
0,0676554324143975
0,0749390442579748
0,06482384391834
0,0810107244838645
0,0613917546755331
0,0974813813815267
0,0833518194597766
0,07885002926474
0,0775058404141365
0,0778356310295753
0,0615940979333037
0,0744571134900413
0,059144739395853
0,0933235907071574
0,0867778764041239
0,0868430997989556
0,0684307788508872
0,0678247258499194
0,0747607793911084
0,0979993461370347
0,0618240457971123
0,0912822093163194
0,0970133236138773
0,0902873534646609
0,0658574900856242
0,078348646542173
0,0604436146597086
0,0731318631477791
0,0598205199051976
0,0728304034987069
0,0624897609983251
0,0745824699522564
0,0590840989455192
0,0974358438043324
0,0897394307893477
0,0989158503656799
0,129679996450877
0,081086367118629
0,161858418462306
0,0909314467136188
0,0758529357653126
0,138100887103389
0,0852052337271993
0,090130688603348
0,0626342396357198
0,0781124645548714
0,0703256403911642
0,0892102691911019
0,0531177340836664
0,12547952806287
0,101011413803601
0,0731568578718906
0,0677794760490946
0,0803692469500722
0,0438201911830392
0,143191378655572
0,11803412547431
0,0818475918690994
0,0909388047044715
0,0772350546781428
0,0746899850881639
0,129302688831362
0,102311242719964
0,0736185600017783
0,0715934565001927
0,0734854593315794
0,0605490123813985
0,0747054772910938
0,122445179047753
0,0870355376124214
0,0881051307943678
0,0787543639763162
0,125405704012168
0,150922941390261
0,0880419325163486
0,0743584020491574
0,0535106663325503
0,0915399363175082
0,132735699098643
0,10154179070144
0,0661058186047799
0,109602936582406
0,085340723047205
0,0754762167669359
0,0750183053422543
0,0706169482537122
0,105375060419173
0,085157747169998
0,0514125402958492
0,1754574451298
0,156530044377807
0,121728433949351
0,162084022880671
0,0732895977430198
0,101579438585617
0,0658886295390603
0,0740193350905254
0,0612600294362247
0,0831817824632203
0,054960469285724
0,089892695628584
0,116089359395749
0,0722740671434802
0,0877805409415817
0,118868776177678
0,104740405859546
0,0730416123606673
0,16653257275048
0,0808633448322617
0,0797791504877949
0,115021828041632
0,0867426842909242
0,0583097946695358
0,0907838832404457
0,107483347292795
0,0653098105386742
0,0716743826255937
0,0652045240673224
0,0832296830175027
0,101553092550247
0,0824774351432465
0,0773099260444721
0,0827613105275446
0,0665205538810353
0,118816938943223
0,147756558385324
0,114235528523708
0,0865882512771869
0,0782759816852264
0,0499180689438534
0,142028092253112
0,116136470062822
0,0732793016802859
0,0725290432914982
0,061799700322313
0,0646727347429542
0,0612873012850128
0,0638946706427857
0,0637721949636303
0,0602704943362991
0,130831842606827
0,0870465656913953
0,0755408273263121
0,0628667425484415
0,0784931467555664
0,085755283591865
0,167513517320363
0,107514299684725
0,0748592632851492
0,0797022386058293
0,0661276430367691
0,0920299986492008
0,0900532425975796
0,0704695273429645
0,0698558009143277
0,0657030394622434
0,0672134109995545
0,0665236656062099
0,0618639508663966
0,0739954099866287
0,061976028194454
0,0694438299409703
0,0647623534884161
0,0732735844688274
0,0811228357112343
0,0787056686200393
0,0691789501617424
0,0774363006158258
0,0543221058788403
0,0903481987027283
0,0962522468177705
0,0720208209543295
0,0694595990187802
0,0670005086208008
0,0701652479735715
0,0597967785822317
0,0688262950809241
0,0600499125731817
0,0721057074890772
0,0566932043563888
0,131122971847312
0,0669148197494963
0,0840020719908403
0,0454797094788828
0,106283801918742
0,0800000995264761
0,0712559927688634
0,0714568730194611
0,0716902268371107
0,0535074726827406
0,0771936241939249
0,121371754380003
0,0816524786228264
0,0661758270500366
0,0970454837431915
0,0783224405407141
0,0688851448480293
0,0786621725106196
0,0571843837213929
0,17963160599618
0,0976137932917148
0,0720486214037153
0,167019628271405
0,078682707598249
0,102327606310597
0,0835458579653215
0,0569410019926921
0,251563855483927
0,130146672578989
0,0791835342087596
0,0911043596378617
0,115102871169375
0,0685606825880269
0,0849365251822545
0,0785904647879191
0,096464047860339
0,116211469636695
0,151068261954188
0,177759064805286
0,0454453809900452
0,142773700662828
0,101398524517427
0,074969667112683
0,0626403608373861
0,0697668784450997
0,0638298318760882
0,112305942382647
0,0849450041963492
0,10078707421397
0,0856923974228063
0,0778957833642295
0,128866996130266
0,081423439204455
0,0701432893479966
0,0884576751095291
0,0941791564700525
0,0616093404219427
0,0733276420272244
0,0589534560593362
0,085568529300363
0,0602633081646092
0,0714016584668686
0,151518045355074
0,0953238367051127
0,0796451887837771
0,124035245864498
0,0695570420627306
0,0710236675123394
0,0612260320357835
0,0678406502572856
0,0599072076146785
0,0672639544855519
0,0539499296715547
0,112780283638787
0,067279793932496
0,0675987125117686
0,0676320006850175
0,0586207544250204
0,0674392167657337
0,0679562684822464
0,0594881169741664
0,0706674047583776
0,0641229529744987
0,0654304528349887
0,105915486668297
0,123654459084153
0,0430390501947617
0,130126509338863
0,118122442220215
0,075786863387485
0,0689289082169088
0,0627993031260221
0,0673436852636037
0,0622172522459713
0,0687640516859687
0,0578708962799999
0,0674371086909497
0,095293893988816
0,0818996149389134
0,0752201558833659
0,0849706655893154
0,152167324734596
0,173790305735371
0,0843535849164027
0,0892312963658401
0,0488940205864781
0,132019189394844
0,120949997091658
0,101117830510106
0,110687636177383
0,0549274943993612
0,084038163804603
0,051838866669458
0,0721897533701807
0,058294198435345
0,0701561204819057
0,062808654164607
0,0786013935240106
0,0648171615313755
0,0706437155751889
0,0603704514429956
0,0828317877167464
0,129385537246336
0,0907092350345752
0,0679789625456342
0,081422042888971
0,0564650857746784
0,130059084841315
0,113955532703617
0,154120426654733
0,123655441090911
0,119690394127891
0,156517447586287
0,0777381553577913
0,0824141078282469
0,0627809211514293
0,0787633742381566
0,0777467835808746
0,0746545451860131
0,0670700806698708
0,0713564819625307
0,0678987748032723
0,0712991894687081
0,059700495686775
0,0771806119664884
0,0622412165864992
0,113814834829672
0,073341053356955
0,0857428991296335
0,0694115407726644
0,106791328524028
0,155490091270196
0,150101422853349
0,0918505078928072
0,0898191331960536
0,0799824987402591
0,0645253051952779
0,0813587344277076
0,0758202349236038
0,0877122095380875
0,0737566592534395
0,122426502573819
0,106588351848062
0,105678727048415
0,106787081141736
0,0623545428111811
0,116842981391534
0,100613916291335
0,0907931116659205
0,119081665184796
0,0968397320550505
0,0659829462511875
0,109706687473463
0,110929496928126
0,0959275401742314
0,132773574967142
0,0687411973640496
0,083186818361205
0,0714558135116756
0,0959323455465554
0,069907427618728
0,092810714646707
0,0931965355572529
0,0875334450987372
0,0864090084130527
0,0943711760344905
0,0914193938039611
0,106968675876392
0,100572602559554
0,0892074622889413
0,102152838067159
0,0717043837839776
0,0930123468982528
0,0771148983533874
0,111578947946301
0,129989423145399
0,112681038042452
0,138389826084723
0,0830343682897436
0,0982710796014215
0,0833229772158549
0,084532583992902
0,0759564989460355
0,089816237555088
0,0932818482868663
0,0827077494625422
0,084837023819306
0,100139055920275
0,0805119438011242
0,0888173733761423
0,0915331369595967
0,0916982934758538
0,088560430781114
0,0844679836354177
0,10053255687353
0,0859567730107374
0,124873729783444
0,145984747387145
0,153221089447442
0,163702887762763
0,1039385719158
0,121022862052578
0,0980718849684283
0,108444834882816
0,0926827067417879
0,105365277706037
0,100882111792512
0,108216293420567
0,0979407112398314
0,0983203420257164
0,100587344688575
0,105811950103553
0,105646951656862
0,109856732377107
0,117708085460004
0,107411580829293
0,100015759396197
0,102936904080946
0,0965461217336775
0,135289141600539
0,124228850690502
0,133409997959036
0,113614230996809
0,123403791040218
0,112908478581654
0,108816056854023
0,108804350762877
0,116417022537565
0,1147683879629
0,106730439278376
0,116449252569663
0,120838873243891
0,111794762435387
0,107741632303518
0,105348749761958
0,120931155762622
0,121915652425107
0,112985552406574
0,12551815288461
0,120519494528849
0,123332231978149
0,132931489621794
0,126838528780428
0,140157685649398
0,128341825230118
0,131509800669188
0,142941551828651
0,11735938052372
0,125319960218653
0,136777751131864
0,119812667191377
0,127092498573644
0,12519406240463
0,123088291709701
0,126759909080745
0,124140490183183
0,123963538725747
0,139091810404834
0,137721840527824
0,152094882819194
0,151383207976073
0,142754155040626
0,137936109397007
0,139065659361419
0,135732758318984
0,140921754988882
0,154414235454538
0,154305624240909
0,1532450647372
0,146704808787228
0,147498622954778
0,143543952679561
0,138065983897895
0,150659431592787
0,148693715818926
0,149187386559546
0,145757569056277
0,148815724612515
0,152896951085503
0,146037922012644
0,150325791971968
0,140430872905865
0,144231622804414
0,153586238363442
0,157480711385404
0,1532871719146
0,156749116725608
0,156475199981691
0,157347231356477
0,16223315452612
0,160484516103715
0,160291176040611
0,153296966067079
0,159046277995373
0,151201585374657
0,164066054572501
0,161351093252301
0,165722901724093
0,15811612888979
0,16285907702098
0,169638198117103
0,171953804508872
0,166616560375439
0,163388885577001
0,162381420448158
0,178097639342921
0,170628772235706
0,164605911298637
0,169967401648883
0,166210124655764
0,156614616192086
0,170780220066757
0,158739919032881
0,180680086906
0,180766298791647
0,171668278360386
0,181279818960763
0,175817672356036
0,175930477597545
0,179781889814047
0,177189005351125
0,177343604798027
0,177350326619127
0,182378239330491
0,172022981167178
0,176623437786474
0,208977153430191
0,195199021531514
0,177811747796081
0,195789598247233
0,183941334814516
0,198229007920818
0,191256555296801
0,183390404563859
0,185659452202987
0,192043445364203
0,183137235231641
0,189185530196229
0,182294805352925
0,18071140038331
0,183563937405701
0,190697803039423
0,190860630831812
0,198646702199519
0,196494793501778
0,195899746696308
0,194237411520496
0,199700162979524
0,194413473460958
0,187953767968
0,189433714144817
0,202997239690196
0,19186540739504
0,193983113190664
0,198150258590632
0,204720933640005
0,201205022070717
0,187802582368981
0,190536982364332
0,197637565931916
0,198978352943579
0,197001008087368
0,199497372077506
0,193781760320511
0,200207594915241
0,203036379933684
0,200489614610167
0,190162159080727
0,199170027314172
0,20856652993533
0,200637989705541
0,196717313167872
0,201335800409339
0,1989773944496
0,204569102661397
0,196993919547525
0,200887189338829
0,203951190202682
0,207706200372019
0,208684936389661
0,205856665984841
0,195604021453602
0,205769913970962
0,210112924895057
0,201550920946531
0,211170956384926
0,205400595867885
0,204088966688641
0,200874254789796
0,20229945991814
0,207609581544321
0,210497917024983
0,205760405208906
0,205994673268925
0,201406121347623
0,210158473969489
0,214661234909652
0,200837161938207
0,20673867595789
0,218027718035189
0,206677963074587
0,207574656728348
0,211356731574968
0,203316613786569
0,20983586842714
0,208191611007168
0,203175791873872
0,20880690488038
0,204746240383818
0,200015915697497
0,207442804108101
0,203244555279787
0,207685096063345
0,21686553740412
0,206516231363066
0,199458006913588
0,209955604560771
0,209234764959857
0,202968962282417
0,205458799551419
0,205783225132274
0,203374430081651
0,207831886294015
0,207632826397416
0,210458070743367
0,198567932924024
0,206938957619513
0,218430025525132
0,210388233344284
0,204915981236156
0,205523816569838
0,204789510278812
0,209737424769258
0,205567381620925
0,206982177608282
0,204481785630876
0,198595966409432
0,204493859810254
0,203009925711224
0,201876446046886
0,201217584050455
0,185708315040252
0,191331414443851
0,19837850777419
0,196878125667952
0,200215652443304
0,196147027919314
0,205928274344006
0,208339098100852
0,200030872957695
0,199114203126401
0,200074210703444
0,203442597096706
0,204977650509097
0,205115809696334
0,201478841231739
0,204436856247905
0,203544066817519
0,201451278906773
0,198231883360124
0,206446008792743
0,194985217932877
0,197651235908701
0,198574684775388
0,197395265693473
0,203561813600104
0,201686464316293
0,201543967932869
0,19891778939704
0,195284596330853
0,196876304713255
0,192849231765893
0,194710499387159
0,189253868051904
0,196610023132818
0,196186881097472
0,191606077348801
0,194830271709188
0,201099985119607
0,197306972056519
0,190463544258245
0,199002995177559
0,200508242730415
0,192280390739737
0,189399384398055
0,19683571059124
0,193422534716018
0,185124104284786
0,189349706979634
0,191722168578348
0,188689638978683
0,183613789684062
0,189218941900112
0,190807128377973
0,18653020298339
0,185321815593438
0,192655917332552
0,188315788427965
0,181710086114359
0,189448823735487
0,18726389426303
0,181433535397873
0,193459053234505
0,189448131144435
0,189142976979327
0,188374524377927
0,18814545562209
0,185156650377582
0,182324861045278
0,176796291774202
0,177037146524118
0,179374631487392
0,189112411204156
0,179715852465115
0,180582175491284
0,181403041542872
0,18501901642946
0,182699402624947
0,176874026005407
0,180431771446909
0,181624806651348
0,169473700714063
0,170846202264808
0,174113557743344
0,177373345480108
0,167334420551202
0,176622555015485
0,178557078621086
0,17388721592298
0,176621246040913
0,172909241314667
0,171039622338321
0,175157364909048
0,175442997985872
0,172207974827504
0,172747240709441
0,175525608092221
0,164357136057801
0,162823924106679
0,160327904120299
0,166330390585898
0,164905877508593
0,161147513778242
0,164353814838034
0,164911797845608
0,158213342753887
0,157549336592742
0,160045075136217
0,166378517547111
0,158632788415882
0,162875096688752
0,164414860736705
0,160056073248153
0,154343663963453
0,155087005991119
0,155926798535599
0,154024367147395
0,157419492176412
0,162746103826697
0,160850662050936
0,162052147259225
0,154935181672755
0,152168091213989
0,150968891361317
0,154560602428361
0,147761669497072
0,151600271507927
0,147307923469845
0,152245497851886
0,150412190968191
0,151086797023402
0,15095651155992
0,150124711768393
0,143567011646418
0,153044126695447
0,151611115956661
0,155595702329638
0,151959204241394
0,143438656350748
0,147917304578591
0,151739385441381
0,148151803224088
0,145635240403687
0,138348157113978
0,139284524444345
0,138903364020362
0,14401742606672
0,140460108271624
0,142069138528649
0,141570007771529
0,136158615688938
0,132030260823262
0,133772124616348
0,127924103893134
0,136522421907855
0,134067870172196
0,133936204216025
0,136690932707681
0,133572423688301
0,129272455285024
0,132090490760363
0,13438419769784
0,13707147040361
0,136174651698064
0,136164374606334
0,125668724657909
0,125349258948878
0,126780028431833
0,136373246336496
0,130287977536424
0,128745295136573
0,124307073576222
0,123956826153989
0,124970421124085
0,125647597188584
0,122821493453859
0,125272146743558
0,122290765715172
0,118400624279071
0,120580350351065
0,126557272045225
0,118831694155579
0,123352081427787
0,122550931776002
0,119375755118034
0,120668320473027
0,121116594440702
0,11817395663193
0,117725775521017
0,116755925015587
0,119663819192795
0,116340171457728
0,115121141417787
0,111136507115883
0,119949358791681
0,114164456662667
0,123262807921931
0,114899781337787
0,109428453318006
0,113780549432288
0,11157330040068
0,110034122161676
0,114600969915393
0,107035489921159
0,112838505877798
0,110883062590854
0,11162597021045
0,110161289620965
0,111868679798347
0,108428267974079
0,10934369535365
0,106599753992949
0,106941902956899
0,104327860048159
0,106674712805717
0,10750443481466
0,105394799501061
0,103665442815291
0,107188846986188
0,10744066736208
0,107754497239094
0,101692969731726
0,106793726672819
0,0996200584390265
0,101391761559082
0,0989848383644507
0,100331359885806
0,0982711349341082
0,100308637408414
0,101291081303829
0,105328609890384
0,0972942327615123
0,100426617036987
0,0992372169622522
0,103180194386795
0,0996160003878611
0,0952934280603829
0,0946011420934235
0,0979499086612902
0,0972315082511737
0,098192080955849
0,0919033160353862
0,100211885313333
0,0969856444707208
0,0965676841312216
0,0944947117120661
0,0969647203609246
0,093150133754372
0,0916770601952158
0,0911531796577993
0,0947100172620651
0,0927834098078456
0,095176708893277
0,0920354003448319
0,0906577178396244
0,0922494140106822
0,0932983184543458
0,0906277947942095
0,0939203650408257
0,0919484209117291
0,0929087788383004
0,0867516568944258
0,0908758575965308
0,0884716292032475
0,0910864730522373
0,0884641970298058
0,0937638274729578
0,0845229088378974
0,0836598347215479
0,0854644444924246
0,0851539244445645
0,0882367382494163
0,0885892386185476
0,0829149393164513
0,0885257090685456
0,0859211161845756
0,083900340983727
0,0811087126226293
0,0827062737930883
0,0818541346901099
0,0841530857983672
0,0829506501771332
0,0828032482785491
0,0848883242700886
0,0829624787671111
0,0789493632315846
0,0813588678385138
0,0805439385676616
0,0809588558615089
0,0792684674733828
0,0833213898359446
0,0735061215654099
0,0823327181535074
0,0803375145497841
0,0814897371862643
0,0804450396205365
0,0781421477204128
0,0748295776435341
0,0794187353366598
0,0755178496170236
0,0753456516030821
0,0760256894260872
0,0795978975492977
0,076283389568348
0,0808149370464631
0,078260604059184
0,0749746925312166
0,0719179857177354
0,0769652748829414
0,0751183365431708
0,0748311968484684
0,0756429568325666
0,077880113998108
0,0746010802390036
0,0780838822312321
0,0755341793066551
0,0752224228613938
0,0701809958011585
0,0781943989780496
0,0750361855663987
0,076358797297319
0,0755145291064606
0,0782680942128228
0,0733336672364861
0,0733028501473091
0,073921459729741
0,074488378938434
0,0718601228713811
0,0724907374069319
0,0705238638554777
0,0748515009666485
0,0740022966009572
0,0758713657139514
0,0696026136661435
0,071516949169795
0,0667042130891605
0,0714576019170777
0,066796667399414
0,0700576376131521
0,0694857016654093
0,0712098794483467
0,0646232164643622
0,070528191227283
0,0626498042886232
0,0677146938328977
0,0661109853395069
0,0716877333291749
0,0632312063221559
0,0655407008335907
0,0673730493634195
0,0679193654048553
0,067681623657065
0,0739112735326686
0,0667289187750374
0,0690068729070066
0,0681786410944457
0,0680382673213507
0,0684555725687123
0,0720880940862115
0,0643273666868777
0,0636208864061058
0,0615943174933706
0,0669288284215538
0,0661073673405393
0,0663755064671007
0,066711858392087
0,0709947448567912
0,0663703117653524
0,0636069422044196
0,0648915387876577
0,067723126140189
0,0649656818185358
0,0706677939595362
0,0650771130082887
0,0662088387781244
0,0654355017256449
0,0670553460850593
0,0652892023444682
0,068888490294676
0,0664248824916668
0,0719814263218017
0,0733729841648924
0,0703108555290152
0,068789990159694
0,0688870119552254
0,0606489506101798
0,066066538572455
0,0636161426969242
0,0696314840594419
0,0698035530045568
0,06666890582362
0,0637405945097445
0,073489232171349
0,0680532287692631
0,0695285780841435
0,0656916987734478
0,0709658094940397
0,0692432301719914
0,071908552489856
0,0685770586202562
0,071061043164635
0,067543022578013
0,0736031272090163
0,0692848924089731
0,068432042134601
0,066745356946796
0,07531267903347
0,0717071978858428
0,0744092856603337
0,0664862531280297
0,0704373688023666
0,0723340539490204
0,0758576259880108
0,0685230204120789
0,0718334066040977
0,0723229734162376
0,0752961397448977
0,0696805462695797
0,0769341951150121
0,0734445256827172
0,0736645933615384
0,0727223411453853
0,0756224779609067
0,0722179193924015
0,0760221272490002
0,0742107294023988
0,0784769212028916
0,0768565768626259
0,0753977050607558
0,0760705034283245
0,0792076282247261
0,0797456227381441
0,0819387431958786
0,0732995563562986
0,0786923957099471
0,0800381786420962
0,0831401208181786
0,0771124920826658
0,0819891050829659
0,0775867865486394
0,0782473857482912
0,0781568135276215
0,083801775192765
0,0779134064697594
0,0823939566072954
0,0798898174604069
0,0787402043477243
0,0737868512308501
0,079745542330684
0,0751398171809759
0,0800502370166544
0,073715030490335
0,0824528116152688
0,0783911436409381
0,0785179037621411
0,0772874195133254
0,0808329428718471
0,0757280777958708
0,0759047445297684
0,0740716339341242
0,0810881874869748
0,076634639238657
0,0804373606368474
0,0742256274723348
0,0782383418883062
0,0791276738364955
0,081845338628943
0,0766645746960766
0,0773149409116869
0,0754515554781655
0,0805134312342769
0,0728897940207605
0,0767131139483573
0,0750884176594597
0,0785187283712159
0,0774156230860072
0,0811504827833738
0,0765361309370146
0,0779697000100986
0,076186625000934
0,0794845001918232
0,0811576073077316
0,081175246663466
0,0733860964884489
0,0742153020111571
0,0757365913095067
0,0818199304901626
0,0818877366909293
0,0773050054618692
0,0787484119355855
0,0816152058255643
0,079705094192579
0,0790387915345119
0,0770710380877267
0,080894868830911
0,0784852256050894
0,0823632765724973
0,0802913695334651
0,0803242198418551
0,078313507590318
0,0796019822976791
0,0753098605968058
0,0777448578370101
0,0726817847390297
0,0766089348465728
0,0791028368828774
0,0788054428978333
0,071622133498473
0,0732716099247094
0,0715379091894735
0,0728900543195913
0,0708441926494727
0,0742374550819887
0,0690759008837372
0,0736390218304789
0,0703743578191868
0,0710303531965317
0,0680052951493951
0,0725482878990037
0,0676696204684821
0,0690709174007432
0,0684234613798746
0,0706115823416545
0,0655413317764689
0,0677806034385343
0,0651898993101055
0,0622820345294457
0,0640069880839078
0,0675131063921936
0,0613871682800929
0,0654916716714921
0,0631792111064067
0,0623014517677241
0,0670388851752335
0,0647697329336791
0,0616766811530257
0,0657591648866859
0,0628923542626551
0,0653197259603234
0,0632558833957437
0,0640644818111393
0,0593174659758462
0,0620219101974809
0,059834394991159
0,0639555749866302
0,0587193259376402
0,0652191463885279
0,0631221541966648
0,0638667225374562
0,061662595465544
0,0616395841196682
0,0606974888349742
0,0611726605783894
0,0598876138538306
0,0649884512547644
0,0594919294501844
0,0603827604789648
0,0560864523451702
0,0608769999994367
0,061035078612374
0,0579535643535594
0,0592134150164405
0,0580874118354046
0,0552657760361848
0,0634381509384966
0,0587739541696829
0,0582149299358668
0,0577261251903068
0,0629465826129086
0,0589083023648407
0,0590335659782868
0,0596625589941422
0,0606064496653963
0,0541257449512582
0,0554649922009074
0,0535814550598276
0,0566358679107042
0,0554583602357108
0,0581070701436917
0,0557584278765447
0,0574698765094724
0,0579236839960871
0,0557061946791214
0,0527682528776522
0,0580590503944677
0,0522460994002426
0,055797482187556
0,0547787708870959
0,0571572182466776
0,0522378933798004
0,054084341906474
0,0515925927998438
0,0559894236584189
0,0494536588988208
0,0557453266599471
0,0520296276184102
0,0532018785443103
0,0528760935765776
0,056222770034335
0,0535099206229925
0,0529081004301857
0,0524871264973692
0,057680031985739
0,0519089549964217
0,0542526906194102
0,0546205190137912
0,0543902835758365
0,0509189487063627
0,0546709274278284
0,0489854454002774
0,0561382811083661
0,0516172906669915
0,0557084123665877
0,0498182783385941
0,0559393985911394
0,0541576974620426
0,0547296288207555
0,0500585462114535
0,0558416546000019
0,0538649773781455
0,0541423660751024
0,0517646755057588
0,0495584982967277
0,0539772724656932
0,0535153481501039
0,0515950352882105
0,0545092907417827
0,0504186592269142
0,054878163556132
0,0529030359818481
0,0524010121959741
0,0512902738059964
0,0517475561038016
0,0483229113647712
0,0527627496947715
0,048042984582912
0,0512911640515215
0,0490353540445175
0,0496109913794128
0,0509446935929379
0,0538503059370104
0,0492068203735398
0,0481134256880949
0,0466172036279825
0,0504404061307348
0,0475741799868453
0,0515824493279252
0,0505073684171621
0,0528829996039508
0,0473064564339638
0,0518831929031741
0,048176757912071
0,0502533640565805
0,0481728164277136
0,0508547963190353
0,0471514049389336
0,0487618607453626
0,0462473235077544
0,0517538339284295
0,0512481205999841
0,0531666520577094
0,0495283498960243
0,0516507045368285
0,0486456681173969
0,0509581508080417
0,0479148168683559
0,0503465528265699
0,0487708436405095
0,0515952894226496
0,0485356837510855
0,0519184482492123
0,0491565335966288
0,0535743844231158
0,0511917335775798
0,0500779378463563
0,0536826673787663
0,0486164841905133
0,0486893554392633
0,0495945214750173
0,0508618202319341
0,0489696293977039
0,0505526398006032
0,0512147174976436
0,0475525891953031
0,0520121012956169
0,0487906459962612
0,0492874156559318
0,0474998601880478
0,0500541444473509
0,0502860980820198
0,0480358125639009
0,0457619904061454
0,0514996321842677
0,0495393573699228
0,0451924650390793
0,0476344326544346
0,0508684690908309
0,044253215307527
0,0466365313314043
0,0464208477950747
0,0503141310868167
0,0462664806877837
0,0460111103042257
0,0437435938702748
0,045504353368114
0,0458373094818635
0,0478663345666393
0,0424660252359783
0,0436740218196251
0,0452973555223927
0,0488417236998859
0,0448963861471826
0,0463045687164348
0,0415434387841026
0,044949642317928
0,0470853113930007
0,0449190476232489
0,0479155126896037
0,0470453406841727
0,0415416159480865
0,048773318311106
0,0440365887037424
0,0481917180087549
0,0444802971281005
0,0447167687032786
0,041882302273055
0,0474917446285398
0,0460957779680515
0,0417313214277902
0,0444395748546806
0,0463023239663664
0,0445194432101216
0,0438164981110853
0,0423943350578739
0,0468512621383799
0,044398787058906
0,0503689804539698
0,0441751103191864
0,0493522526164488
0,0448915034337032
0,0468515457976804
0,0458146642320606
0,0409585470932051
0,0446585575959162
0,0493075839652975
0,041767296459088
0,0450134008175302
0,0460044897233475
0,046099242912533
0,0451782057842652
0,0445134124493344
0,0399358289006647
0,0441391517289445
0,0410126616578279
0,0462096615438333
0,0403466290194795
0,041462824762866
0,0429757915574483
0,0423993697186269
0,0396770400317308
0,0414969711067536
0,0393662697586726
0,0412031537546768
0,0395888309292557
0,0411292903133321
0,0399210390126948
0,039390199634512
0,0365419013734934
0,0410024288150815
0,0381176139587209
0,042770439403383
0,0373668895171374
0,0377759245492559
0,0380912960923414
0,0400775376437075
0,0401885275375462
0,0399821996938979
0,0373419958187163
0,042925911023593
0,0409113549328455
0,0427438936623061
0,0416780797025954
0,0417395472133975
0,0433910629519823
0,0419950964470351
0,040200267902089
0,0405213969559497
0,0402286150353064
0,0424198370672549
0,0390748034145808
0,0445701406277692
0,0405524907770381
0,0395982353373174
0,0397771655788234
0,0418852638678114
0,0406712190815098
0,0411329216967291
0,0388067208233509
0,0409428870277941
0,0394740073279783
0,0419283569567499
0,0394693758520636
0,0399517300178793
0,0350129080325374
0,037561075606518
0,039189273064676
0,0421844279384839
0,0415091807394882
0,0405296419726818
0,0420010819063306
0,0417981529106999
0,0360324983867764
0,0401123424611789
0,0375281174434312
0,036676121728965
0,0359366506674307
0,0386384691567372
0,0382031417550491
0,0388599632708984
0,0364293274776829
0,0373846500822334
0,035636911802864
0,0394764881841019
0,0394754991535569
0,0365367760927484
0,0333159946042767
0,0400737941866104
0,0364907359747014
0,0373402409808665
0,0363607068443266
0,0362387611628684
0,0377359268368127
0,0382924437316275
0,0387962670733087
0,0396290060952167
0,0360168149771117
0,0352963819436214
0,0359039441878672
0,0375342027932329
0,0353196666184935
0,0372368617020104
0,0386186601933452
0,0364216612468826
0,0364076232705487
0,0393129698975244
0,0380021413041609
0,0409359736846471
0,0382056787404014
0,0354127080071802
0,0343866423810428
0,0389507962933604
0,0372341816416418
0,0373256208073306
0,0385924911798025
0,0370698213922659
0,03489669056709
0,0401072371002892
0,0373080617590284
0,0363979020433282
0,0372078641009558
0,0378361961992037
0,0374815265049943
0,035905432914025
0,0363369218560062
0,0394542440036409
0,0363617503307987
0,0374408583518919
0,0363627538885746
0,0385596380327433
0,0389489975862525
0,0375438588355347
0,0366276844583498
0,0367988826427583
0,0382170480822163
0,0356205791929955
0,0334020818207288
0,0348511744327513
0,0342795221252973
0,0355149681717745
0,0344815768095121
0,036755586919542
0,0351609155884085
0,0336294834572673
0,0329071596736044
0,035915721620801
0,0371322197763274
0,0349428967684476
0,0324997539050789
0,0327490780848904
0,0328913180590583
0,0361993018806531
0,0339910549873586
0,0354036603085947
0,0362995815736061
0,0345695686856523
0,0332633641881469
0,0322986930796952
0,0333503796740143
0,0373535049262869
0,031810369103255
0,0361379791361489
0,0327847297626029
0,0344083056691149
0,0343678166688585
0,0338908684790397
0,0321492407288446
0,0324101193875404
0,0355297146476001
0,0325144557637496
0,0321952868693575
0,0342720519874966
0,0359113494325319
0,0353838047186608
0,0343393117864316
0,0385162018546998
0,0367836418328382
0,0357268819926759
0,0356081392100578
0,0320445485369394
0,0331628342589925
0,0335979583709516
0,0350439130813415
0,0349621715893782
0,0346686882891259
0,0337391109758944
0,0351758248695709
0,0343393538630376
0,031335516348375
0,0339199509650199
0,0351897519453561
0,0357143622808789
0,0330027231865059
0,0347556243951444
0,0333985954808238
0,0326736869809121
0,0311653874512847
0,0324719819624664
0,0322882355646764
0,031745193972482
0,036279116925346
0,0343078362336844
0,0320112852134397
0,0298090076220879
0,0286347991911954
0,0333738658659961
0,0316014171756164
0,0325806731386709
0,031248395181348
0,0305919135587936
0,0313565952953648
0,0309863714168429
0,0319515412973675
0,032823491337846
0,0317878762322115
0,0322812227852324
0,0319563634646747
0,0322496235052366
0,0298047807389292
0,0311236875443485
0,0311021411889305
0,0295131808224416
0,0308141348116139
0,0310008929488068
0,0313889259375229
0,0300114937537624
0,0325561633985143
0,0317416629991298
0,0325080967832995
0,033342315448044
0,0308149482085008
0,029672853783237
0,0336248503635264
0,0331159217379461
0,0323622709569334
0,0321233197476349
0,0311883977440915
0,0297973546192897
0,0333449056265233
0,0323880882046544
0,0317448252719317
0,0317765609304471
0,0333476738983214
0,0305992236928837
0,030872109670888
0,0327552442397804
0,0334501228949696
0,0303803008126273
0,0324148508089205
0,0320499132099407
0,0321150706199928
0,0306199292801878
0,0326079529615135
0,0295594438310141
0,0310516139010765
0,0315390805425348
0,0302593512007814
0,0296721266393805
0,0279508629800373
0,03156116786475
0,0308037183394827
0,0279593790520048
0,0292889100490018
0,0291460249719084
0,0286469683405469
0,0298213604622699
0,0283662137905646
0,0291259217773328
0,0282964662454748
0,0285627385362438
0,0296219398975988
0,0285718898132337
0,0300159103430544
0,0278918336476301
0,0296705382703808
0,0296431297199176
0,0296960286678593
0,029221727540391
0,0293870125095556
0,0290002674684945
0,0317756973531797
0,0261647283047527
0,0292307261481933
0,0280369748496246
0,0288024074457398
0,0318047737743117
0,0314073774719693
0,0282804450021662
0,0304898092808312
0,030176689356302
0,0322869605075398
0,0306302438189375
0,0346856000395552
0,0331854637948406
0,0332690323044941
0,0303801386246868
0,0324767739627101
0,031624250740653
0,0357170822749984
0,0329564504426701
0,0348809905761009
0,0315676642232249
0,0333878742083648
0,0255002809214947
0,026068009772121
0,0222312897386401
0,0288519115395714
0,0326447933740121
0,0316243794825469
0,0178077548616737
0,0245903645074281
0,0251065643831269
0,0248816980574171
0,0147153201914988
0,0239340173560136
0,0173185676446444
0,0236986895266236
0,0210093992010046
0,0275343059158489
0,018018437819513
0,0256024831837902
0,0254116791091952
0,0304391996962994
0,0227558195606827
0,0331449920647649
0,0254205934008192
0,0336124330698899
0,0216737079861085
0,0336746954126167
0,015692694418476
0,0329341064165644
0,0196288650789566
0,0317466355562896
0,0160272619196962
0,03777319913608
0,0175942310050984
0,0369768583312569
0,014131346487578
0,0381324603025894
0,0128168524061125
0,0361561306965841
0,00558804015418485
0,0318347496033372
0,00607734159911512
0,0436698075339511
0,0167563254795061
0,0487278850168049
0,00658034591863448
0,039256591289572
0,00951363564366808
0,0464002374286813
0,0167241237234412
0,0409773541407594
0,009951014652648
0,0430973085602628
0,02546703755422
0,0376475435288543
0,0252935288513104
0,030584058058065
0,040206822803755
0,0170985025296225
0,0419518058268408
0,0183121298126173
0,0495170760077632
0,0112517974215086
0,0562939152482707
0,0141219405769108
0,0454611171745916
0,0189294204607723
0,0415315460979627
0,0269497360366883
0,0353625410073387
0,0294628798380817
0,0287044819525545
0,0297564788094836
0,0290087275588943
0,0305931366010566
0,0294570544341877
0,0259425111022385
0,0311609604505036
0,023949301298135
0,0325799697517182
0,0242531873521843
0,0317221648765712
0,0235064362852032
0,0273591456214043
0,0237546021137105
0,0279903456470642
0,0220131597489721
0,0286998999078512
0,0240146107577933
0,028889605949422
0,0244975652918111
0,028168066738983
0,0241439763276772
0,0292168050313488
0,0247658375591588
0,0267579533706423
0,0223363673594659
0,0284795645126013
0,0230399877019286
0,0259580224907499
0,0252868357442516
0,0264555074351079
0,0242273499718688
0,0281731231277327
0,0227562455124968
0,0284619603571811
0,025099098257823
0,0279631500037587
0,0262839364353239
0,0274974808369366
0,0242719388493995
0,0282428014103495
0,0257677890756882
0,0267734644289081
0,0246912124383958
0,0268730788894238
0,0235178901463448
0,0268843538738473
0,0238681757294897
0,0288902829150741
0,0233914108365596
0,0260199292947622
0,0256977388599321
0,0255236606622988
0,0229457613089036
0,0271180007072433
0,0253157751406493
0,0273884540385572
0,0243394493735299
0,026556674312679
0,0223759521980053
0,0272796332631557
0,0253032232134278
0,0273602998465603
0,0237696204908481
0,0262732587274615
0,0255185279746392
0,0258993931649334
0,0227710998103363
0,0256995939547626
0,0242678934043227
0,0246977806842989
0,0235747615544442
0,0276689893835082
0,0231925000170211
0,0231000555280082
0,0235108057729958
0,0260047835339943
0,0240548713767271
0,0230387227757794
0,0227353425887022
0,0261769726648429
0,0222860407492751
0,0249316425100009
0,02525098075812
0,0267092423342842
0,0243867266456152
0,0246782755006487
0,0237425025944631
0,0239643547471646
0,0247606306576529
0,024444535258128
0,0244671697305694
0,025419295103606
0,0235062181200618
0,0263072921068309
0,0266998953977606
0,0273219210341928
0,0222735170895944
0,025973232282328
0,0268952159341624
0,0271882385470222
0,0219895959259921
0,0254565169261153
0,0247356130773704
0,0251263161937694
0,0240838842105461
0,0260528923449609
0,0243425212958552
0,0262878828891181
0,0248503801817051
0,0243758778807533
0,025087625253863
0,0255761288877705
0,0239224881578432
0,0247012353009896
0,0241362569856079
0,0250823218380445
0,0240023926244636
0,0256997894208409
0,0247701602046548
0,0246356835769857
0,0234675524499881
0,0252013601342625
0,0238253789249773
0,0256934073780081
0,0236295918358322
0,0234008112033108
0,0236999551784604
0,0247410827214825
0,0230249381042605
0,0238845747231292
0,0230925038433715
0,0244690902333707
0,0238904116918884
0,0245442028435985
0,0229831742203068
0,0235266982040321
0,02301060545779
0,0244239103506603
0,0223002210659579
0,0233836416496075
0,0234734908052953
0,02480524485481
0,0236079780411066
0,0227497985677502
0,0218709054670846
0,0250086692092146
0,0244537784877042
0,0228916942836323
0,0228090042143988
0,0244715638482998
0,0212652864819664
0,0231370006237367
0,02499442312494
0,0253026085066669
0,023513079243754
0,0251669353886289
0,0244048157428727
0,0238538248094054
0,0226275400781437
0,023673110542783
0,0234943499411406
0,0251431514332487
0,0248918204693538
0,0256926210796017
0,0239990850250941
0,0245597519724275
0,0224563235993682
0,0245283683212321
0,0239446708374009
0,0227373302973684
0,0211602446415651
0,0233103393330858
0,0241989623008714
0,0220000551061649
0,0227087501185685
0,0252677622684149
0,0242380908911651
0,024055010752799
0,0244345621931907
0,0227734512740989
0,0223286539503354
0,0252185526057544
0,0240404436666555
0,0229775029707001
0,024141397893515
0,0232568121605361
0,0210171946364562
0,0214755135845299
0,0235346694253896
0,0232263663527886
0,0229954006867102
0,0231413128791402
0,0224248590750341
0,0230931723301648
0,0225286879747327
0,0221624805964846
0,0223423895227349
0,0242079848237307
0,0217081243998955
0,0216975613977469
0,0210507363062568
0,0236232049095698
0,0222983070477498
0,0222228977258263
0,0215850766823028
0,0221141298590011
0,0215966691067956
0,0222499144727074
0,0244925331352201
0,0218990965136037
0,0217360764663329
0,0225416107015908
0,0216014468743542
0,0228091211760159
0,0220166137021396
0,0234337719338623
0,0222822595951623
0,0204643932940883
0,0221404321930493
0,0228936555001692
0,0211551490404993
0,0245061095717132
0,0256394179763931
0,0231444811992133
0,0214449720900154
0,0212935034513639
0,0233956433423414
0,024036269492094
0,0225080750940085
0,0218055305318577
0,0242745901920416
0,0246578128318095
0,0224325796310472
0,0225581788605317
0,0240580744484068
0,0229441461880883
0,0233429302418109
0,0224796329657147
0,02074735807614
0,0225609335948184
0,0212844711439295
0,023305066467223
0,0224773105060236
0,0220442193719957
0,0210119619759336
0,0196085482235164
0,0222097614921069
0,022198011091317
0,0195817485901387
0,0217396347697218
0,0229074530726663
0,0217767851473841
0,0213742794091733
0,0216887143600174
0,0211749731300582
0,0215867374640904
0,0221347087278176
0,0256191372465507
0,0257570170182464
0,0220203586417082
0,0217656414471855
0,0222370765009389
0,0229607379859996
0,0219443678170703
0,0209829980099858
0,0206113226620917
0,0214759061583753
0,0229937666582749
0,0203089220929435
0,0198472163119964
0,02110663908907
0,0223779316004739
0,0208028998128645
0,021248336940086
0,0226100181290987
0,020431745363838
0,0210247004071584
0,0221935644542365
0,0221298571098692
0,0227772959905193
0,022827957887972
0,0210654398818306
0,0219706407933681
0,0249238038418348
0,0228062070989545
0,0223194633833095
0,0226572337714004
0,0216821271105166
0,0213894600434779
0,0206185347889149
0,0230826434732208
0,0220273189268877
0,0216624212439823
0,0211809515742126
0,0202063429150092
0,0203953938925482
0,0190462307042944
0,0205456135851374
0,022305080455603
0,0216695872591747
0,0217409839652381
0,0211335737351911
0,021652618731223
0,0205880092041927
0,0210031050299327
0,020746872569502
0,0216691087032681
0,0235902361707564
0,0239279142606647
0,0278847931809017
0,0230787569355692
0,0203726109975641
0,0222167684438076
0,0200169547891748
0,0196753402458575
0,0208468203194911
0,0213492167754195
0,0207489397398672
0,0214313768101394
0,021214067162035
0,0187441598417275
0,019533490212273
0,0191240120825217
0,0196492330235745
0,0214368289825139
0,0188625976832332
0,0200263798460191
0,0211453598262358
0,020762290020115
0,0192649491005874
0,0198894759730695
0,0200614627679549
0,019555021870284
0,0187035223979312
0,0198838519221471
0,0334565409418118
0,0365740109590689
0,021136078015864
0,0210527585122879
0,0258032270689827
0,0229523449408503
0,0187678175566188
0,0213090729627568
0,0215982127458165
0,0196557665451751
0,0196447637243277
0,020025916001035
0,019603121117804
0,0183148089651157
0,0196038263193683
0,0191668770079139
0,0189362914236477
0,0197686702094173
0,0193173908905364
0,0206432549699106
0,0177179994622433
0,0181579036484494
0,0197197233105735
0,0206502119691281
0,019656459347422
0,0170819383453328
0,0223144116215692
0,0311312049808127
0,0280204364759475
0,0230826699154035
0,0216530472860722
0,0194837564280445
0,0188262372060979
0,0221989575051786
0,0198708765574091
0,0198264689421696
0,0184727560044735
0,0183542017159023
0,0204820003121952
0,0220311359373923
0,0205666384582527
0,0200220348170536
0,0198748903510511
0,0193066836311323
0,0164812629064861
0,0174813306074808
0,0186784335643417
0,0185391213510303
0,0174897649211273
0,0214392718628189
0,0231285226015333
0,0246825692950584
0,0184865775301645
0,0329533330291789
0,0402548874774638
0,02891794251278
0,0211120193005897
0,0212288439869393
0,0191390323081159
0,0183696295521378
0,0181395511378517
0,0196129922195894
0,0175070198966751
0,0194458525358486
0,0180258990338928
0,0184544164799246
0,0173947910701806
0,019968881887359
0,0183480039888834
0,0188201168543473
0,0192403501789054
0,0197721686649706
0,0184163557637605
0,0182704085991566
0,0262598739927787
0,039718405687919
0,0292346127260092
0,0244215169587262
0,0150578890822765
0,0251993503344694
0,046038851105257
0,0303371308898025
0,0187578111117982
0,0214753012800083
0,0194801579555784
0,0193963873196283
0,0184347813265351
0,0156563586424666
0,0255694722476959
0,0267555957207634
0,026656317048776
0,0244197672327696
0,02214595119205
0,016767547831846
0,018942564346486
0,018108016288331
0,0173622171167294
0,0205298574080003
0,0183424701291847
0,0180287481305466
0,019157375764912
0,0173696527111353
0,0175051266013817
0,0161414878530156
0,0263322881042827
0,0274768625565127
0,0188202112463775
0,0197070556802659
0,0213036710421512
0,0154783133951801
0,0360763373455336
0,0347029475021102
0,0229497321335916
0,020220338848521
0,0190487852994848
0,019261094409873
0,0208940791104141
0,0169992844721143
0,018950750510222
0,0180203222896442
0,0188066402778246
0,0194467688320142
0,0180254586049241
0,0192830564805796
0,0185636253039016
0,0192109804063891
0,0172502403698091
0,0197000335315534
0,017419817976445
0,0191543703288531
0,0187842399264293
0,0257783160603895
0,0458513086820188
0,0488866957609028
0,0442346246915174
0,0339137610369712
0,0280079577972189
0,0213587970373416
0,0195585338953991
0,0172811682017292
0,0218734501996837
0,0206252880616832
0,0225936557558542
0,0183156413619547
0,022161867464778
0,0167885442529645
0,0169412193397867
0,014772640187579
0,0201130902357091
0,0145929476516946
0,0190679036053522
0,0159471696302337
0,0208907320019035
0,0147903641400789
0,0213088135962646
0,0312151784871217
0,0333312430470987
0,0201481674001292
0,0263276564081828
0,0603719976071583
0,0428596736157257
0,0357816407527246
0,022855891332767
0,0229477789985552
0,0162426954906334
0,0173828571054531
0,0228767168483711
0,0288996447623717
0,0172656981403075
0,0184194962768965
0,0164176182905017
0,0227535504025293
0,0203826435509831
0,0187736686353706
0,0430754639324498
0,0649277264425007
0,0369940643115543
0,025074566694948
0,0122660719939057
0,0434116364827341
0,0514344244899841
0,0285460847446202
0,0210388561000405
0,0252246449365519
0,0182245814598463
0,0165627514406226
0,0149072107318196
0,020479245599256
0,0290875963843711
0,0196682850510605
0,0192680995485263
0,0157125055697554
0,0185769734360373
0,0247244711612323
0,0250585495215977
0,0375702041315114
0,0309407272766007
0,020771487998877
0,0249226762526416
0,0243888283838338
0,0199584085304969
0,0198717229926493
0,0182826299549612
0,018553725094851
0,039711847946039
0,0348543113508688
0,033933981060791
0,0449485087722743
0,0322697950408264
0,0221970953260225
0,0271688514205302
0,0388503186709363
0,0310063664252503
0,0152343709377881
0,0526047571925999
0,0455998835651978
0,0670169105275251
0,0339547044190359
0,0328990500499698
0,0142651439884433
0,0261672809525884
0,0107392205131383
0,0293590254424865
0,0383078066228795
0,0277482993126348
0,0202120243478242
0,0161605875829034
0,0380074848709795
0,0340933787687264
0,0314872610371048
0,022093479038528
0,0173493984999294
0,0215224086920764
0,0493960972713084
0,0218817387084365
0,0349696466641341
0,0557291929683275
0,0723555647720323
0,0613504004872762
0,0221196550726443
0,0393865913200745
0,0532591728302134
0,03299966554258
0,0244162850309605
0,0203027988368459
0,0243542401276504
0,0103825101877612
0,0400546848123715
0,0593259303166396
0,0299771692894374
0,0226337166484173
0,0226105038238827
0,0325432895613134
0,0523064296968952
0,03597035123511
0,0209575444473311
0,0252510367917028
0,0191989329570998
0,0298130011245761
0,0852231476316212
0,0384177444202593
0,0679167445584516
0,0512281407454715
0,0652775844571821
0,0358782807146396
0,0415355425640716
0,0235898853579677
0,0597205995712053
0,0464636914868043
0,0340497508581786
0,0153963828502511
0,0671330266568983
0,036607661373608
0,0417825129002083
0,0258754025039448
0,0246846468626865
0,0234183991050088
0,0909625236141146
0,100673781899745
0,0749630360400746
0,0260752572967202
0,0449420827482121
0,0576155399027579
0,0343490726019031
0,0215697197904941
0,0215943201673982
0,0237179019945404
0,0168540569891677
0,0252941406416091
0,0371351627170542
0,0216277691784322
0,0321641060441418
0,0147535595894907
0,0358861969931707
0,0540408784391732
0,125511348672426
0,0532073765463299
0,0621379894574085
0,0613589258341607
0,0612944468527391
0,0427383319916283
0,0263567677756935
0,0265843247624869
0,0346661076064797
0,0330022829112739
0,0250632951436046
0,0332400861848626
0,0651536449806289
0,0388973960152078
0,0770341734624566
0,0395155693682228
0,050859829681791
0,021123897144488
0,0964825419818271
0,17657882110167
0,0803926133029439
0,0574278321879014
0,0412813257413517
0,0972524531696767
0,0908510590564725
0,0576395209646564
0,0334979521960988
0,0325313503017581
0,0253674160094883
0,044277476350237
0,0443096980547889
0,0509650317151942
0,0606746120307151
0,0377270354359822
0,0393981146539148
0,080272237055198
0,145916179805321
0,138326360444197
0,054214911681801
0,0513655992803765
0,0723355235567831
0,0645072373126407
0,0403090282465368
0,048036087122952
0,0246933208193358
0,0912354585272592
0,0671793195631829
0,0684583288650341
0,0282883049906571
0,0694717547789778
0,0584415198277435
0,0624587564084231
0,114569028377514
0,0756182841026506
0,065175017202935
0,0330383192462455
0,0565428166885286
0,0325935459523868
0,0583818584927475
0,0706950311433382
0,0706288311184213
0,0564495974670891
0,0442031236048145
0,0496565796306783
0,0482793740597496
0,0552464067169632
0,0480897842945981
0,0652912818037966
0,098219584803481
0,141818136475005
0,262367484383518
0,0781302339315168
0,0790489558840123
0,0394311680609292
0,0797373807324995
0,0844136763244351
0,0997405999962743
0,123133999302349
0,0767724215391771
0,0613914382292489
0,0506251151171104
0,0594979892443862
0,0478937346170662
0,0595879004898989
0,0453304403038319
0,0548966670573144
0,0860804772218671
0,0558330361295979
0,155159774295616
0,0998282479555752
0,0764881831055051
0,0416910845191374
0,0565219720287808
0,0340514246881616
0,0588161974295666
0,0318749933560576
0,0828632677238885
0,0546260956325829
0,0651136008008681
0,0371391152925194
0,0526912624971086
0,0856711217519589
0,0714457922308713
0,057945534768898
0,048482863512377
0,0436126353716408
0,0492313226978853
0,0345225881672285
0,109382644310239
0,0728588825563332
0,0655883640312866
0,0404897793572458
0,0462528255754047
0,0372733874234562
0,0421061691550595
0,0366744569799189
0,0612655673690841
0,034187689491788
0,050860207529338
0,0431735948987951
0,0448550054462373
0,0364180810026513
0,0438028255557402
0,0441183900378952
0,0413172056359602
0,0443983444117371
0,0413507880736151
0,038124994023996
0,0415751487095483
0,0364376663997499
0,0404861512040181
0,0408701149541945
0,0532272134792362
0,0416654019991142
0,0404726371753723
0,0437721111219678
0,0387847286855409
0,0443849966090205
0,0419070279358812
0,0388825630560357
0,0393327014204824
0,0366096789819162
0,041288113940046
0,0375271303718861
0,0358644366331639
0,0395755022900505
0,0357468361406915
0,0398841406008123
0,0326589497700127
0,0444662178187355
0,0412229825384671
0,058211962558288
0,128153190665943
0,0577118644646515
0,0629950602995889
0,0286550811103763
0,0527963429394018
0,0254183308811329
0,0501668161781274
0,101184851528164
0,0748836913641195
0,0471756580334413
0,03860415707681
0,0375430844839995
0,0741804405274259
0,0381887898490592
0,0510220232279639
0,0350624208055525
0,0453787592621369
0,119586472786554
0,109013593513486
0,242455133038592
0,129178020653656
0,079625637093636
0,0341837157632679
0,103490559546353
0,0658984180258218
0,0584812980376206
0,0347378016376067
0,0373372632874396
0,106744717837387
0,0499302103998502
0,0504089573602169
0,0327916181899646
0,0417746436565631
0,0829741963551938
0,0847861362197919
0,0692241126845734
0,105019397149692
0,0857750372701837
0,0999360299112608
0,134729583456748
0,164082590006792
0,0810769155454281
0,0445759850341358
0,0491777354703307
0,0354702442502555
0,0822465464984011
0,100896982911166
0,0585993227464215
0,0737513893832389
0,0284710031313198
0,0483980663993623
0,0435778572108332
0,0938450415872972
0,0374855726279641
0,093173682729119
0,0774171690229943
0,0512230216837667
0,0714157787972543
0,0761582946565054
0,136722836132899
0,115167245807801
0,0601842188809874
0,0361242722843203
0,123632321459792
0,0834508296482708
0,0777305337226325
0,0676852474827864
0,0255921640697209
0,0685594725463507
0,0577943012917582
0,0426322258502649
0,0826591630343224
0,0736592346336978
0,120720901348312
0,122051975429313
0,168739979237974
0,117838428343798
0,0495684108470596
0,0360061707527096
0,0295425638763398
0,0468715167473381
0,0331575445743846
0,0257964277416624
0,0940702289171751
0,024774403946644
0,0715655540166378
0,0766261357288582
0,0485504916053535
0,0332948568624095
0,0321701231818676
0,0236034502150056
0,050629876681058
0,0748442261690664
0,115160433049572
0,0495781504896134
0,076905956903058
0,0521071724275979
0,0520345019381996
0,0270514505646635
0,0363935988614672
0,0260297010162347
0,0390165609729791
0,0425794103365426
0,0363664328496854
0,0324667849927519
0,0409529793369965
0,0229315127726506
0,107914860099405
0,0465259294699475
0,055620548184645
0,0741718891059089
0,084974417543013
0,128271229195998
0,051283968801006
0,0522207361060681
0,0336619174938126
0,0384458912546587
0,0459327968327599
0,0298334509896048
0,0831888775158825
0,0646942323964255
0,0533649078041769
0,0445195016931467
0,0445902825045867
0,0401754566543984
0,0567892293055473
0,0993464973152434
0,0766287417731703
0,180746856637571
0,0810543591922079
0,101781457935741
0,0493158169221677
0,0536698810526595
0,0586770531764588
0,0556501384476559
0,0488339872791057
0,0342342955597127
0,0654558607189875
0,0808504244619539
0,0475299836839263
0,0536297034782679
0,0428254075906601
0,0471595269593246
0,0411841912207401
0,0466340652458157
0,0460301020638729
0,0442401800357041
0,0506287785069869
0,0400008953537185
0,0778463382138341
0,137491443771221
0,067714918907362
0,0646993079276489
0,0507450542339819
0,0692868116492296
0,0449135930396823
0,0602719209754811
0,0792794626182214
0,0643022740522672
0,0611346467268975
0,0494522764276293
0,0551188563832261
0,0434354118751985
0,0826361436131029
0,0785649058807122
0,0522523233161971
0,0695603817095779
0,0370338800223229
0,150083838565578
0,0773285268858617
0,105527101536185
0,0712000735184452
0,0755958120716125
0,0540576274708316
0,0613803159007141
0,0477622823987979
0,060668558453174
0,0586299082603344
0,0586569685606577
0,0582175333364254
0,0511816919960004
0,0584843844593598
0,0464437130962932
0,0682111396793397
0,0861037431283837
0,0591593920887637
0,057335977389822
0,0522660070435158
0,0560104060211939
0,0515864286437591
0,103533005425913
0,0712912565336702
0,0786015895242528
0,058044714705762
0,0854294847200135
0,0902816473746522
0,0733910624458509
0,0502849763729139
0,0576451440949754
0,0484162989225847
0,0668971004682013
0,0399324313396541
0,0851056693268585
0,0814929231533492
0,0756499674645751
0,0509649722922025
0,0580680379389531
0,0489437684433709
0,0607797309168012
0,046980537551809
0,0585621572219729
0,0560469136099342
0,0621275416229412
0,0626027522340962
0,0525405630362818
0,0584910318777887
0,0724744232505096
0,0872599154292558
0,0772526943432593
0,0535604652078732
0,0623044124122152
0,0474416013733875
0,0664766014923922
0,0614730607032318
0,0616965226062783
0,043760618554156
0,0611911400199709
0,0396142364218232
0,0741802339333107
0,0892928101362104
0,0646747034791443
0,0780043372052961
0,0498338062403512
0,0532786191071779
0,0501676088814449
0,0503438858349396
0,0438360066825823
0,0512731783972739
0,0545197399306329
0,0450735792080381
0,0481686168828288
0,0453079813594704
0,0466288543256588
0,0469122394079613
0,0501380708994874
0,0421196211023687
0,0416240880476593
0,0389333506397269
0,046927292859892
0,0415440759278896
0,0448071404887022
0,0431006706446935
0,0464939409265512
0,0713375951474947
0,0707021732039025
0,0789822605350256
0,0488696804072811
0,0613088422766307
0,0488307135171285
0,0465033411759876
0,0423596024582838
0,0418517859837541
0,0427004630362362
0,0399755852657978
0,0447168530949762
0,0422875312154264
0,0420200594199758
0,0431832948165298
0,0443170527995101
0,0434265167751338
0,0441108291228761
0,0425185653055946
0,0455841219915154
0,0428757988653772
0,0515178120357404
0,0439933801416484
0,0619752914598424
0,0427683571094404
0,05640443076199
0,0453225679210595
0,0483193847285136
0,0481141621701756
0,0506663947833021
0,0537324202100533
0,0478580426036249
0,0443216784278776
0,0424734813178872
0,045122951767578
0,0481069896716645
0,0420871886812072
0,0461474528936877
0,0417516540723277
0,0455004750773862
0,0413036477810269
0,0446253042663306
0,0416649976758946
0,0428399609164951
0,0393260336556707
0,0408855989664081
0,0401918053035719
0,0449314790961686
0,0379957996549245
0,0408196148804067
0,0373231006561186
0,0436207971984289
0,0366891828715941
0,0418625371411088
0,0398806498474172
0,0408051272712449
0,0403552702819425
0,0430795073155197
0,0364045013153251
0,0384262825415512
0,0354443128864613
0,0382988099336504
0,0364375587478966
0,0402138585436417
0,0373270050261091
0,0387197687255909
0,0356606022786874
0,0400413387991487
0,0360790385507165
0,0386155101561462
0,0352509174918698
0,0388152568058818
0,0360884116869146
0,0391994271843867
0,0387492911698831
0,0409786504893478
0,0398733360866584
0,0392739700452389
0,037982966718407
0,0395957707225318
0,0400746220441797
0,0397192099050099
0,0388163521978625
0,0388095845148617
0,0382932376961155
0,0380555603885671
0,0431315206201803
0,0388307358924358
0,0395984864398668
0,0411260659755694
0,0387457233040633
0,0376781720626858
0,0382564262291647
0,0405833268295081
0,0379951502894368
0,0405394617452651
0,0386412572582674
0,03900956772663
0,040106822017618
0,0406874392861849
0,0372081359704659
0,0392659283292007
0,0369976331743319
0,0412891117741022
0,0378071165707087
0,0394808155473388
0,037825325421005
0,0386466549823099
0,0391041459826236
0,040003671783422
0,0378529332971133
0,0391365669042339
0,0377704605448761
0,038827747249019
0,0375370207245162
0,0409651979946338
0,0364999282904704
0,0382597633903197
0,0368778913564272
0,0370969463359341
0,0366986001148698
0,0365207591816027
0,0366430932109224
0,0398679504970085
0,0378017987370804
0,0372330391505494
0,0367962705575887
0,0380669291177612
0,0374612021065358
0,0363159239700781
0,0354999657453404
0,0371401354866022
0,0350095270382961
0,0361379492234752
0,0338769492128583
0,0355803290302795
0,0341465494589405
0,0362423499919979
0,0343229986798878
0,0358470962474118
0,0360432497482167
0,0342697429570898
0,0322522363235615
0,0345334370938291
0,0324832087038319
0,0344025684500116
0,0327314903964802
0,0315713363998589
0,0306496404504664
0,0325328730867818
0,031341195578958
0,032448459845282
0,0299580516731168
0,0321413998571226
0,0315504132977239
0,0335186058599454
0,0323100979961102
0,0342454767155512
0,030718931891239
0,0324773257724454
0,0318040783551822
0,0331090353770445
0,030469310343571
0,0312449870067687
0,0308334950945654
0,0323301020658898
0,0306893541726805
0,0328454417185217
0,0306657554936527
0,0331358892234059
0,0335832442267133
0,0347160650314782
0,0340250511373088
0,0341084148837544
0,0373432094806303
0,0390143657726855
0,0388479690344097
0,0412767670368196
0,0420523424660386
0,0449502347921265
0,0445552827385415
0,0465792903676784
0,0465368920980727
0,0508017513733635
0,051942775168461
0,0554816934005946
0,053309356081064
0,0581321099762507
0,0594273126708568
0,0610229384637801
0,0606109880702476
0,0652183406003342
0,0646769203985335
0,0659320715645212
0,0663543272314834
0,0681025966969603
0,0685338975596349
0,069782885035383
0,0691912393689331
0,0731307274948213
0,0717106631105529
0,0724889090986124
0,0718138745297284
0,0730510550193805
0,0723681916945517
0,0732764841291267
0,0708123366364676
0,0729507865884172
0,0719002334025011
0,0723018280155118
0,0677295009826006
0,0688566360991808
0,0694432601790525
0,0688705746445499
0,0710255693999351
0,0714017990526583
0,0719437218295612
0,0727852640953501
0,0744153285097625
0,0746017731954549
0,0747711294444804
0,0760344909580882
0,0747431708225462
0,0768139059181985
0,0771518148260218
0,0790058918646565
0,0804696328213958
0,0816313564436913
0,0819675568872067
0,0841364245734607
0,0836201541533748
0,0861356371995416
0,0870878984637688
0,0882241444443342
0,0867294998177705
0,090741748057474
0,0893434443394367
0,0906751218903619
0,0905681247198024
0,0936763785735216
0,0932611639683837
0,0942326349457786
0,0939070280368104
0,095562332749148
0,0938923242963098
0,0950711309029774
0,0939822413889657
0,0966741990446272
0,0937933562564871
0,094395148698375
0,0933261375754672
0,095569850782745
0,0964837482808727
0,0976707799533361
0,0976980551699526
0,0985616722525366
0,0995901464302947
0,103223844711267
0,103085248243067
0,104947774351587
0,105440065297876
0,107869727220188
0,10684515915815
0,109082972622995
0,10938429901751
0,113777737733131
0,11503400688609
0,119617598311278
0,121350508337116
0,122675047032964
0,123774051065515
0,128220297628089
0,128417331282701
0,129769869721255
0,133219004883879
0,137288262096769
0,140285227724255
0,141902167413797
0,142867200192704
0,143573842607528
0,145123326448789
0,148965133613422
0,150079973086065
0,152129767124075
0,151510157614132
0,1521952421451
0,152470028833091
0,154194737850276
0,153174836464079
0,152548397259468
0,154528397165804
0,156750451301065
0,156565853940396
0,155351866310463
0,15463106447823
0,155295262561816
0,152525946524709
0,151915310927487
0,152104785831491
0,151020842594739
0,148266767600601
0,147875816967091
0,145844056688997
0,148099603185074
0,145607279025516
0,145413828799607
0,145252038074073
0,146651506277245
0,147477637428874
0,148387234540519
0,1479408334705
0,152663098052101
0,150848900718441
0,152409218228448
0,154363122675832
0,154062093878281
0,151554483453413
0,151523963256369
0,152296138390622
0,154330382272545
0,153844426763799
0,152157785190386
0,149414468757875
0,149648049015008
0,14914023356312
0,148971259040967
0,144749496496467
0,146544661526151
0,144371100987091
0,144265168327194
0,141598831310683
0,140194359662547
0,138904988962633
0,13696715833242
0,13730443221102
0,136427952047194
0,134167754455665
0,137216823073472
0,134441499943213
0,133368675716423
0,130118270904869
0,130949796598702
0,125539361194331
0,123911229538786
0,118303593514906
0,118783186767624
0,116238097499081
0,115201402019936
0,111284088431112
0,111226686481757
0,107727634556318
0,10669492385616
0,10317768533509
0,0979760863318609
0,0934195616173644
0,0899985187583857
0,0863694085367999
0,0821153626349093
0,0782830630336768
0,0752482772844987
0,0748820564857225
0,072493124068023
0,0684898983620012
0,0678102876460475
0,0666008461267568
0,0684644699902727
0,0662554711451904
0,0667751572845396
0,0642773246256198
0,0654280958516286
0,0640355911328001
0,064868862021122
0,0643093599905678
0,0632472545176994
0,0590575369705332
0,0606109854339947
0,0603036462475974
0,0573560478109964
0,0582479796805789
0,0567550943219656
0,0553160815425156
0,0564094904514983
0,051947297663061
0,0515527973728728
0,0515523370311776
0,051253498691361
0,0450159542623299
0,0476256233472149
0,0443707601024925
0,0429504767622638
0,0405909536135133
0,0385316393076154
0,0386107605652303
0,0355234307470205
0,0350059402453329
0,0333205061024903
0,0296658878461266
0,0308605876791789
0,0287987062043334
0,0258335936276992
0,0278015104318951
0,0292036283715592
0,0255890785137641
0,0230224778225465
0,0224631806070926
0,0246590534995094
0,0232616106824104
0,0261443828543115
0,0229098698950702
0,0201053703756068
0,0208118118247727
0,0221240361166929
0,0239263871941684
0,0243803291837016
0,0215819572429691
0,0194656450319207
0,0243856825157829
0,0218842758678071
0,0218375208211495
0,0226381671244238
0,0234428680578122
0,0236288436226933
0,0230644351678705
0,0212632307633269
0,0211689624836774
0,0236072297134501
0,0241780699712123
0,0229234335928414
0,0203996898727089
0,0207517289284874
0,0245774504757859
0,0240362100980395
0,0235694439515473
0,0202440325076883
0,0215039505827097
0,022296676265973
0,0194552817305852
0,0223615685168553
0,0223179883400833
0,0205454254679009
0,0200832278942271
0,0208438746634325
0,0213184250541894
0,0224818746863455
0,0227355546313142
0,0265408048319768
0,0231218545625045
0,0206402266875594
0,024276801866945
0,0249655377055499
0,0230089738615007
0,0226857099128223
0,0246556315788775
0,0215556382848854
0,025299387597904
0,0239774509337098
0,0251148335512851
0,0242943770773322
0,0251641232675082
0,0240781527289428
0,0245377293529251
0,02473007181439
0,0278803336468038
0,0271586122119131
0,0255712320285995
0,0266025244429286
0,0257148860333489
0,0272673733523758
0,0246325840002536
0,0250236804282907
0,0321948932341296
0,0282147234930333
0,0291505058817764
0,0313994956202788
0,03359425033226
0,0322589975869144
0,0321524427982477
0,0324848141866653
0,0330970919368004
0,0354061956278508
0,0341802163982257
0,0319613340896101
0,0309990569115443
0,032995763140284
0,0327023602443937
0,0328195658136047
0,0315089320788395
0,0307606737440294
0,0304735908514628
0,028109621543248
0,0321506086739175
0,0306081460474063
0,0303737978474908
0,0300553914862601
0,0269890671356415
0,025918893021902
0,0305202870472349
0,0329199493320355
0,0225757216994408
0,0225573578321113
0,0325596453440511
0,0262686651182657
0,0292015840655229
0,0300847612755143
0,0287212869398932
0,02448377427106
0,0263548087064421
0,0232774531914762
0,0252876513210188
0,0278063640063885
0,0273396059609456
0,0287145630574689
0,0295638390061266
0,0287656465208624
0,0305377722810835
0,0270222999785118
0,0233377751624324
0,0264443871505233
0,0310785714296315
0,0237815776118645
0,0269763997960965
0,0286414116747122
0,0251405520278404
0,0258476876026309
0,0237656773133194
0,0250589696167193
0,0248660542825011
0,0259895602942001
0,0264898832916899
0,0190546669741407
0,0211310444537968
0,0214491283676795
0,0213272965060387
0,0177516736137006
0,0230816576050372
0,025818861549432
0,0220633222797803
0,0213943488112789
0,0228128587715947
0,0178660976903141
0,0221346607128927
0,0168415443745771
0,0221087643050807
0,02056748956836
0,0268390535736721
0,0245006802663223
0,0159764114436456
0,0163850382301443
0,0219047729971955
0,0118330985591861
0,0214988218646833
0,0231752112074694
0,0131782587344264
0,0243206607889716
0,0154263972488211
0,0171231199663566
0,0290566638356176
0,022518058510932
0,0246931025986746
0,0209923144260516
0,0267098111277102
0,0240573496074379
0,0181373287998323
0,0215294390495656
0,0266923255437197
0,0199470144350943
0,0172185605587288
0,0229079627588976
0,022630555067015
0,0266071760069778
0,0265398839932679
0,0275501941237827
0,0228273984302036
0,0263702123243295
0,0292830775167029
0,02924037500195
0,0320077310980552
0,0331896497208598
0,0299212568926147
0,0236476424725474
0,0326622123885105
0,0208071874639436
0,0312270847575042
0,0317161150926914
0,0309148848849054
0,0380621196793318
0,0365983933482901
0,0278586191750246
0,0400669364225872
0,0365623496013401
0,0461712716007902
0,0445993584915549
0,0420778948490987
0,0322560276141838
0,0433492057164416
0,0326316376850155
0,0347802570888262
0,0429458832821282
0,03872704992678
0,0369209144168278
0,0506489949071134
0,03749681829844
0,0359875900976604
0,0338670707098296
0,0359481002786623
0,0359204616341914
0,0386016738712393
0,0393610053239192
0,0263969397518726
0,0286378934320723
0,0432758363423156
0,0322793062642102
0,0194614587393334
0,0379522695067452
0,0405223690337706
0,0323068421422145
0,0305003373404384
0,0388744499140787
0,0321929988098076
0,0248939757514093
0,0327922357090605
0,0412579508345093
0,0381473648925661
0,028384042973126
0,0245946658695555
0,0364026679676034
0,0311545196703497
0,0313302883316729
0,033941706184292
0,0282958968516837
0,0356129622011196
0,0493363090619141
0,0234777925710838
0,0269401215167387
0,0325125075835796
0,0289949923646426
0,050307556966863
0,0274946692492253
0,0400375585368
0,035172228251605
0,0334476890868702
0,0399546398979547
0,046138127042461
0,0441693883428555
0,0383308795819772
0,0270411673348758
0,0420929760036628
0,0303621326161326
0,0283914061826792
0,0369858859580832
0,038864235765754
0,0310453993476448
0,0422356105542858
0,0227262386996497
0,0219386682763921
0,0227098999991825
0,0405983611066406
0,0315805804501365
0,033689530338213
0,0420136165103647
0,0309305448546511
0,0311338520526368
0,0413503861236965
0,0341990031260702
0,0383990338485264
0,0268978450876089
0,0536419610199478
0,0411515448147354
0,042958139057663
0,0311345803171362
0,0245603217751429
0,0475334472568641
0,0637538750841008
0,062245141549839
0,0543468367347575
0,028342647116753
0,0373191881154182
0,0426494981636556
0,0463699428308419
0,034806949435492
0,0733653448476268
0,0518568918385171
0,0497972044817326
0,0407213626428747
0,0683862434656523
0,0434615859063113
0,0629913247365749
0,0692208842864607
0,0659915145178118
0,0629358999767234
0,0446963931128957
0,0547161812944837
0,0483109144616799
0,0581162403783742
0,0840859821538637
0,0291728769649557
0,0508272723836204
0,0563424701818914
0,0845013495134599
0,0770549172023843
0,0586370345633409
0,025807997575391
0,0311160799992885
0,0597620681137834
0,0722286427014762
0,0479851874288861
0,0580923004183129
0,0775318969157393
0,0902825472054659
0,039309585502203
0,0839326721646026
0,0653490415096935
0,0666964646858061
0,080915532057764
0,0686080544806597
0,106219514909911
0,106297469316663
0,03300318753973
0,0168370688961544
0,0480851468383254
0,0642654327278809
0,058803958986942
0,0224694890085584
0,127970660474183
0,0725147534170059
0,0455649868314357
0,0406204794125095
0,0457698380881808
0,109809833633007
0,00767914567789809
0,0528159473338643
0,0404448936325457
0,146322196661778
-0,0397322448559893
0,0377584397111138
0,0105471792951311
0,0416095407467973
-0,0342487555945377
0,104645534730232
0,105484127165827
0,0595551581522499
0,144354267314011
