3596
4000,36533379555
650,420452594757
1
2
2
0,087981351517964
0,0996110584929796
0,0939502521841666
0,0954062583741773
0,100783779398106
0,0944785685648322
0,0981203762492772
0,0902463396774133
0,0944932443610277
0,098992495814006
0,0942106361863386
0,0909898851176742
0,0929121628657492
0,0969980055760042
0,0950754320415203
0,0933338858363624
0,0912846035267162
0,0872449704381899
0,0914026208612279
0,0922535166796872
0,0968797660006756
0,0940050906861934
0,0993129399667387
0,09429430504292
0,0984362287369225
0,101583807288028
0,0879412089424377
0,0960634119906484
0,0959749319251374
0,0919674463826698
0,0877116714785555
0,0974760245497217
0,103664427901322
0,09506700002704
0,0958297210334259
0,0933642793968586
0,0852003725861057
0,103192501352272
0,0898677196105211
0,0953835912848373
0,103854902111418
0,088729527054928
0,101265519920178
0,0989711566304377
0,0961443927333216
0,0928520889085391
0,0860726389868948
0,0971569595693361
0,092883113517287
0,097462047558243
0,0941891869211291
0,0932723714805815
0,115713043722819
0,102894932577663
0,0978750225524351
0,115291713182833
0,103467183580978
0,0847014713004519
0,0902375062311383
0,0947775871738078
0,124595755973507
0,113046457632906
0,0884673054681049
0,0906177953069279
0,0866112728051077
0,100106384083291
0,087908990692842
0,0941296429315002
0,084015812123929
0,0992525275051961
0,0957714238462709
0,120814901917116
0,102839385722621
0,100333637003822
0,100219805989153
0,0978776794135163
0,0808258679103498
0,0957419580903099
0,0798773420164375
0,117160199905188
0,109300355031008
0,0994271310045932
0,0886031246083488
0,0900296283430475
0,105336208185325
0,110088779909075
0,0890589505476706
0,110763384079991
0,116663886698414
0,106142664208115
0,088305746097442
0,0909243987996439
0,0827086566900037
0,0874005312356232
0,0731255103227789
0,0943033905847884
0,0796636276014144
0,0957488411886794
0,0820811665208039
0,10757537093037
0,10507861533817
0,124333055810848
0,141662808212069
0,103909996164442
0,179314143102421
0,0983637921316059
0,108639801356712
0,139609458897313
0,110777999201
0,0974981923168268
0,0761912594891058
0,0923988583836331
0,0909444662703638
0,106125832778351
0,0763331866655749
0,147260747446568
0,117264299400948
0,090864927858445
0,0796690593679146
0,0905902119386209
0,068775675427211
0,142154214346526
0,127170087242688
0,0980940554590652
0,115635789389424
0,090522629331314
0,10262836030334
0,156597146487373
0,108906315002974
0,0939643234645597
0,0834721295922892
0,08913034303859
0,0757565629764159
0,107654771102122
0,144351173448858
0,102470473501031
0,0983380536452398
0,0953608940852649
0,137886193129246
0,160110443872264
0,0977330571602482
0,0879213824687299
0,0728833974627312
0,107765357096937
0,133889792498972
0,115213317454876
0,0888283095861035
0,134266088228882
0,0935431493605249
0,0846503056749003
0,0876873616888661
0,0960246459261561
0,11484108542037
0,0978689946697706
0,0706546517792343
0,206171078290967
0,160028425937816
0,142533566617346
0,15545313055437
0,0972276262306672
0,11128591859145
0,0877533801893624
0,0833203200726038
0,0813176442463508
0,0954298514136166
0,0742063613834005
0,110822061773001
0,126153804409497
0,0899121933492018
0,114878458704146
0,137093432257149
0,122329195564944
0,0948101672278667
0,183245636045738
0,0943203669230819
0,100082377252895
0,139940135112223
0,104515070175497
0,0711053793429906
0,106328171071445
0,115969525185156
0,0889501237505758
0,0961309091470143
0,0778703850616481
0,0969600030204842
0,114541778511058
0,0890375709407184
0,0985811874901773
0,100048554224441
0,0826396932763039
0,143293840376493
0,163851314785536
0,118564422799725
0,106802143348713
0,093777135219627
0,0728315825489075
0,159267817732907
0,115767141581928
0,0884878150647853
0,0802162616223377
0,0771937587707658
0,0871885069625715
0,0801252926072241
0,0848313663074476
0,0764374475641736
0,0831013801375258
0,148322532839999
0,100040663413671
0,0856789297250753
0,0818358194536429
0,10107719658157
0,111429660076379
0,177054652206194
0,12442420183137
0,0905879342788649
0,0949912919585902
0,0871619446174104
0,107974557741581
0,104767766348158
0,0857306294517729
0,0916429471249361
0,0859077192732435
0,0880028713471199
0,0791539300266424
0,0777030369079685
0,0912799165705589
0,083899022090039
0,0896867511006301
0,0801313864969354
0,0871631307512916
0,0987571654384354
0,0848218401698593
0,0922142676717265
0,0917655376447643
0,0730956573821765
0,115572542555949
0,110441798068008
0,087994137056059
0,0939950388658439
0,0884480717403695
0,0905819230546563
0,0837804898040736
0,0814642686476714
0,0850517122098258
0,0923102677262563
0,0951064870483937
0,143208012171877
0,0848825399340646
0,0978945109796829
0,0746177580195853
0,131897259621613
0,09117236034122
0,089071927966348
0,088604355439969
0,0974555567314195
0,0739714809459371
0,101652176871598
0,136836455157396
0,0972523107228768
0,0861570765082996
0,127353285216575
0,0983712999739843
0,0909980345557841
0,0997861368034037
0,0949064606472396
0,198552652745706
0,11242502947949
0,116005196374361
0,162810663626901
0,100303329699778
0,118873950521149
0,0996461409773931
0,0868590252487206
0,253820914835688
0,148742138745955
0,0958864900656117
0,104796606764067
0,127856430564576
0,0865226927495053
0,119324639322226
0,103377672153849
0,12626725550606
0,126988844676429
0,185812425978883
0,182193086121616
0,0749894039534465
0,160434322316853
0,116439200800404
0,10594376027621
0,0926401399330784
0,0961973273881813
0,0882376499155081
0,134556615533078
0,116557505756311
0,134146407993559
0,0982275734902326
0,108365853717395
0,148995435639148
0,0982455135312512
0,0906093855919297
0,102700577241407
0,111199901171481
0,0841252108234096
0,0967762229313275
0,0880488807051262
0,11149791156889
0,0956359779228307
0,110224173390855
0,175804300023359
0,121922682696727
0,118602013398368
0,136691732269948
0,0916957333507749
0,0951264849084309
0,0889971471419521
0,0952117424896598
0,0850292389287243
0,0955688869262769
0,0871387215022234
0,139004688047598
0,0909033946550951
0,0991053387399106
0,0946180632534038
0,089344958198332
0,0950238096463417
0,100683802298813
0,0898395678055127
0,0979141995805843
0,0988067130020717
0,0949062632694295
0,150815788226211
0,147374888566303
0,0876284087212791
0,178081552319071
0,140371855008439
0,108008224902672
0,0968951605689432
0,0981426460550868
0,101141637532076
0,102399972625339
0,105023084638866
0,0979335057831644
0,108103733908828
0,132701016319388
0,116457231488019
0,12367254896175
0,136474994721628
0,204332796885285
0,202151658097485
0,120769872026443
0,123312897934249
0,0973496786564993
0,184095650650492
0,153689844497243
0,148136977852398
0,148115055433162
0,103634723734411
0,131018986312973
0,10234415223709
0,126749150907005
0,114250047563146
0,131049515225506
0,11485332277864
0,131980500649683
0,120019260383693
0,135315733184153
0,119024382648603
0,159467503962294
0,178272043215788
0,146847763951553
0,134872587950938
0,148468961799629
0,129850322612501
0,218258771968381
0,189951605980343
0,239282257240931
0,175157469500688
0,209863849790275
0,200852072167509
0,147091454271562
0,152364047031162
0,134016747382676
0,155069146029752
0,153435267852746
0,150761466589697
0,149532727751555
0,159682447236351
0,156091837516777
0,159863515156088
0,152574460460559
0,162664421919988
0,163104405044388
0,202569035685747
0,159989342483622
0,179670614663709
0,17332814085464
0,215657477009805
0,262838873872156
0,247732170400561
0,174797047466988
0,19379632195323
0,175170946541443
0,166896985144349
0,181541536050135
0,174237793736491
0,197679974363397
0,198201942729298
0,239318702620184
0,227234780057588
0,243546850425093
0,21083789792668
0,188927343305773
0,233410335295601
0,221021621205978
0,234871942381457
0,252603456188383
0,212886034108556
0,200431451456127
0,258084777572535
0,234160341363353
0,233050199981181
0,255556930196096
0,207816293118827
0,224878555602346
0,216370093158693
0,233412712650229
0,211476036493933
0,245246718822832
0,243249174143713
0,243289348156455
0,238789218594791
0,24537692369542
0,249783138786908
0,270084597812132
0,240773413979835
0,256395689299799
0,270537080096639
0,245906619387575
0,256755762722157
0,248352721847036
0,298190115231525
0,289582661283197
0,30070729966569
0,310833874230616
0,258030512013019
0,274566926336133
0,263442375076865
0,282481893865086
0,259214105886685
0,290781631085839
0,282826717270597
0,286298859999975
0,291016402918526
0,296324850399425
0,282597088026217
0,306775363103626
0,2844011899205
0,299418811457483
0,294187856659841
0,299649215118918
0,315752983629131
0,314463321746692
0,350791281245075
0,387678740190325
0,37312377756777
0,391224658867852
0,323974158010074
0,35137659492442
0,309344735290707
0,347559015356698
0,321133710371077
0,35959951426265
0,331567045087657
0,359793500717644
0,338237597477275
0,365327241834651
0,357829488452227
0,361021832487946
0,360424869354976
0,376569758655257
0,379384985790882
0,374406679764243
0,381140541399294
0,376149171916474
0,38211585588536
0,426637102464406
0,384084572073613
0,402990350808487
0,387501125689567
0,411227672618095
0,384568127839062
0,410923303218177
0,39358364891102
0,408459946050657
0,407841525994869
0,419269946967525
0,415734616930532
0,450802157062612
0,416084778324336
0,429727722125549
0,417722400925086
0,434944951141853
0,440159420137974
0,444386802267722
0,451662487062926
0,473777857508501
0,446815984554428
0,494283062239997
0,436830128867112
0,452268625086719
0,465258918670429
0,471321296662107
0,468396184617614
0,478047866947157
0,477228908334762
0,497192755466773
0,462323008128004
0,510877325075872
0,484752159890578
0,489931579295698
0,489390027643509
0,538414391715347
0,518041287526055
0,523380239363046
0,507494295189778
0,547479589110153
0,52948024796298
0,541754246743199
0,522577924093664
0,529605864106568
0,527551830558965
0,55463110450707
0,542253452369016
0,574493177968003
0,554895234604817
0,556800014000728
0,546497509779271
0,545905585301722
0,547026516138351
0,582994930785663
0,589540193503412
0,589244826656573
0,568382557206679
0,616131722448477
0,581492888272784
0,615476668225572
0,605561551083061
0,604797155994757
0,586515488076034
0,623033414294488
0,604086606359417
0,608510187891352
0,629715452633001
0,626488713010005
0,623428461423402
0,670970108284722
0,646541831249952
0,645649467524265
0,612250071658747
0,634838162690376
0,612547710201758
0,648646739315103
0,616437900673248
0,650902249473092
0,625675647279508
0,672087001086341
0,633931687380896
0,669719017917124
0,645675966118004
0,691979357442923
0,663517774151715
0,694865970132682
0,67107614333169
0,714332853840214
0,690803733612277
0,735082475417789
0,706286494053988
0,688934034342594
0,681778843669947
0,721260232402136
0,702843664879492
0,70453128807327
0,708269263573968
0,735198882732159
0,72601362919871
0,748676273118788
0,738575305040874
0,709159342831128
0,721622599700054
0,755455063526973
0,754552510985547
0,788270413883025
0,745922999411645
0,793569321758234
0,765676223248995
0,786907715118954
0,732291211728741
0,787407266646219
0,782104346011724
0,776943515413568
0,746098107487866
0,783218844622351
0,760125147673269
0,806703532047591
0,767204689947461
0,813336319823339
0,803820223742492
0,839567935741195
0,789652682165275
0,817500228038271
0,799471050212576
0,839919829394436
0,778856331022281
0,876188749056127
0,827177842680383
0,831895134825745
0,875538621599733
0,863292886634454
0,828663052023786
0,844255117143074
0,84366748900723
0,880146508421665
0,880384312709367
0,872177495651595
0,851915725588812
0,893205897408348
0,848755609715455
0,865769239476318
0,810838917115424
0,891508104365372
0,876323758799981
0,896702683508379
0,85376794634207
0,86764702927969
0,8703206142022
0,933984179076194
0,901041189477201
0,875087899502013
0,843294968470495
0,901625886509623
0,875702709641198
0,896584110145317
0,883085510829223
0,924965612137199
0,872299491459993
0,889309700450418
0,874207319410976
0,933806965439512
0,898112466695375
0,936190224063712
0,903217006284347
0,901111106285787
0,908161560765319
0,954591484477873
0,933999309813548
0,97087419959695
0,929481260275421
0,981726823143576
0,940601721631124
0,941514411733116
0,947668599141399
0,958936299002946
0,93632305435338
0,970223691436214
0,947341559809919
0,965947628713044
0,926016997083968
0,954863605852181
0,935380011065535
0,962582642100696
0,955788969574396
0,973371239913025
1,00754396294198
1,02573922183256
0,926835102862037
0,977407245190246
0,967792520452459
0,969536151521568
0,973708029430827
1,01215929703916
0,96809106888899
1,03649300591728
0,975815768518363
0,988960070762348
0,989869167104132
1,00652900865947
0,992316007997558
0,981917966013394
0,997902136663182
1,01566173857794
0,978584831658672
1,00263667972851
0,990548731400828
0,995934793323511
0,974548808411742
1,0334821825813
0,996916438698316
1,06649180675228
1,01107985644103
1,023889169407
0,991161499317047
0,992054280899962
1,00596199458852
1,01588737792489
0,967089402475025
0,961445833071024
1,01203363424818
1,01683205857448
1,00076022198907
1,06773604357908
1,0032054333241
1,01806228674831
1,03804196970506
1,02093678190654
1,03198751335654
1,13621902969361
1,0339731232694
1,00408555299322
0,996455859437558
1,05639730420228
0,986298771998363
1,07096862760333
1,01278795768592
1,01102238659759
0,988129445608862
1,01735577644818
1,00430535694524
1,01235366286143
0,98364893670143
1,01984707759326
0,996930301634171
1,04402895599424
1,01269612590054
1,02615760899763
1,01564720834379
0,98473276373383
1,05153594170762
1,0498167896689
0,986085030659366
1,00617048064463
1,04746278362996
1,06795292519378
1,02613508143807
1,07519604695468
1,03095691083894
1,05878087376381
1,05991594929564
1,03901341909055
1,01806666046575
1,0552475945674
1,06409547689427
1,05231400441155
1,03599729644026
1,03279472108294
1,00244968403349
1,03163587351286
1,00915815691434
1,03572499187491
1,02137514611267
1,03568195893687
1,03551775234096
1,01555121001713
1,0753454638187
1,08089950146474
1,02605776030681
1,0740401219142
1,03378323893875
1,05695073174353
1,02080850136627
1,01889554925678
1,00667989386438
1,05914697090678
1,04503632102011
1,0288444518693
0,989694968755334
0,989777608405855
1,04456267147339
1,07173283776356
1,01846263636894
0,990620074627697
0,999900458044047
0,99411825822197
1,01294098940505
1,0384750562872
0,994946716180746
1,02669535240412
0,990535997640831
1,01572593848015
1,0373078127265
1,00840067278924
0,991870258306061
0,988568532409619
1,01897829506166
1,00921135591478
1,0001323685385
0,990797316433721
1,02427624002969
1,03828088915529
0,983027600509192
1,03424517428677
1,01257415351488
0,950168723287475
0,950556631629405
0,998125980428519
0,973926603714582
0,997782292109278
1,01974471618687
0,970961356557061
0,960608891324425
0,994010044640728
0,967727810557321
0,974402542502362
0,995103554679073
0,981160526695953
0,966795714821498
0,965928020466192
0,947541470496337
0,991107402584204
0,987437343569683
0,969574979126164
0,961858432063621
0,974859235146061
0,943476547307683
0,980529431306744
0,97788549538799
0,954642364585658
0,96628877525676
0,939894075191169
0,896719359534472
0,943311126132828
0,947061887718659
0,93279098225159
0,943660685941037
0,958659532393118
0,94323590415034
0,933484557497075
0,932692159753542
0,911047197527545
0,930082910442957
0,953570513562225
0,923613555121886
0,929010826380818
0,906917020119495
0,914109800178982
0,920958652994605
0,928360140468642
0,92634709028485
0,911549411610956
0,926406800172654
0,901404825254747
0,89908751961307
0,919580103196819
0,924367583688698
0,90290138088829
0,899568022543299
0,8861937240125
0,872242264668848
0,871221197616951
0,881371376499334
0,86857398201653
0,881465791858815
0,882570336799518
0,847696257612569
0,869440679846078
0,859990314415517
0,864376555319153
0,872840837546149
0,862303878062256
0,841427581884284
0,818181789608599
0,821201740808559
0,849759355781453
0,858720491211302
0,849060538672102
0,839349699345785
0,816686816086175
0,817614794543247
0,819250424369373
0,820966914017986
0,812116596393782
0,815810873131801
0,815798735462107
0,786888478733629
0,794758589565802
0,789270042160053
0,788713272275565
0,814515150220605
0,795333456286013
0,784087964114346
0,789412582493394
0,791213199138912
0,788873156090266
0,784620092623882
0,77314366413554
0,777513655737281
0,778732862903296
0,783735376568678
0,771070301797904
0,766191118578715
0,759294047195942
0,761994760716513
0,759135895513644
0,743613998723395
0,723317150448685
0,723658727200371
0,731144030488341
0,747802802767454
0,745550566169459
0,743135994393484
0,729237044582303
0,732719521335862
0,734672989236839
0,720875380120655
0,711543900564927
0,707597656141077
0,698779127593969
0,707613779962005
0,718243425930491
0,70293343970918
0,688816098173226
0,694802967248123
0,69495479931236
0,684313801595207
0,681048621052792
0,686157142903508
0,697194526626065
0,683504051408532
0,657976400961353
0,666578109447398
0,66532982205365
0,660720284519513
0,648803501280236
0,668371110473954
0,658939531587732
0,663362610344172
0,652645441165234
0,649887939112773
0,647022124676848
0,633837366103807
0,631520787336423
0,648507146544118
0,632852964769549
0,61347042964209
0,614951040177854
0,624217242282688
0,625302387932681
0,613404997291552
0,608664029835294
0,619750850916539
0,616233957355186
0,612239051604539
0,599771269056708
0,602167287516414
0,601915160532275
0,600797844939659
0,594931203292604
0,594522039763651
0,588608410319656
0,59486841105955
0,587716644950781
0,588441823777541
0,57733067041429
0,583634422791135
0,575196487857707
0,575057007361078
0,564269050811261
0,557526768445473
0,556759037523645
0,557795342386309
0,557144872676143
0,56224353855075
0,548017315915973
0,554630600009974
0,55257513808852
0,548418672603105
0,545392197861019
0,53520416779379
0,540393480015129
0,544166781499441
0,534570354019102
0,533620444988735
0,52935450980848
0,538997960897504
0,527914678432382
0,520832029616215
0,511906496733693
0,514354155027005
0,514982946748678
0,511404145011452
0,509523996313664
0,505776019503962
0,502166311706986
0,508134183380436
0,506841272613805
0,507678980899451
0,494183855131459
0,489645871319233
0,489745754501604
0,497319695645741
0,484939375042335
0,484480089594651
0,477275014364167
0,487530051532634
0,48698741884024
0,475163576331301
0,471478231365393
0,477760021260878
0,476394634060947
0,481660721912098
0,46316958174429
0,468799047388444
0,461523928919141
0,460964365027987
0,458073680033691
0,462115198325703
0,454289155016717
0,452496895737012
0,455914522992945
0,457970687026742
0,445014874497458
0,449677360952406
0,441907092895701
0,442239411571809
0,441239838781233
0,440714563777627
0,431928884266244
0,438355959620724
0,435761596687617
0,438533007452763
0,429574028118199
0,429786021405657
0,422307826554177
0,430112766020446
0,421294939997467
0,415806288698229
0,418688732082262
0,425363031656269
0,420464760981415
0,418342877057447
0,415196182224122
0,415632261541459
0,397429538174884
0,412365641264946
0,405797420793659
0,405324558064932
0,401792936555573
0,400641659466955
0,400480613351666
0,400011756201576
0,391804902156967
0,393642957808603
0,384736776424393
0,393700018525192
0,382094353120179
0,388079557125402
0,387015711854884
0,392811333600578
0,38111586906793
0,390018963968373
0,383436181134532
0,381275259039019
0,379651465829379
0,383048409132179
0,380267355819633
0,377960629736557
0,373503739347474
0,372760397730397
0,371097643725397
0,377594094980813
0,370478394979847
0,373447837945412
0,367873081431788
0,379529065119556
0,367451580647467
0,364457008747365
0,370668000486661
0,370081216166409
0,365279895888966
0,37425277571328
0,366558196029579
0,366700072301126
0,364355577498513
0,363268778747254
0,368974205001655
0,37057095136413
0,370098554519574
0,367899680789319
0,371212222844131
0,370806204271824
0,36163346913079
0,377350176736486
0,373121779618656
0,370312291683914
0,370092779286811
0,377454734833346
0,377455608264003
0,374277651764962
0,373366533893155
0,386355361346181
0,381127828572923
0,379250248430394
0,37554742472607
0,381371122677099
0,373606832029264
0,384224425426327
0,380790963811935
0,385496113569639
0,383268147815933
0,388590245848249
0,386068731597409
0,388984351826499
0,394014531929458
0,399725777113223
0,3906741641544
0,399713144665903
0,399279927248618
0,394324187211794
0,39024554903123
0,411273646586587
0,402843093682364
0,401725183388546
0,409686448316495
0,418867160687959
0,407839292315938
0,411218069971955
0,409640574533662
0,417319886853391
0,415886158178292
0,424335624642624
0,422815621897337
0,431807307187681
0,43036502755376
0,436301910898266
0,429142173449868
0,43809723712167
0,439310802376926
0,443152697769396
0,44506409864525
0,447552482900479
0,44281479040062
0,452653382799102
0,446972514277766
0,461905347641039
0,461208645997788
0,464565555003025
0,462552025631936
0,463414901533206
0,462286662426189
0,473654369278322
0,466517907703032
0,468261182743203
0,460949379297923
0,468830292608127
0,464985613462756
0,472872602620841
0,467597516785717
0,467122491117046
0,466030470986711
0,464424619710788
0,468776026720616
0,458555385898789
0,455686447587406
0,465821909164382
0,454628470979651
0,467407647858956
0,454167638831149
0,467096914906753
0,459316204951065
0,461633446157585
0,4558485427143
0,463580415513833
0,464149147767854
0,467252568332746
0,454600996383776
0,46780275404888
0,460483241872217
0,46545342140199
0,449319724461154
0,468346946539515
0,467626991874615
0,467469684579602
0,458151124809834
0,462289802131236
0,465984521548715
0,473937866640576
0,464657089527251
0,469082458963798
0,467067761694442
0,473618810570194
0,462497529009132
0,472757525319185
0,463235903251239
0,473503618879442
0,46801886659056
0,466775496409741
0,464914052933554
0,462643962705492
0,472118939388554
0,479524400519646
0,469681447716372
0,464800922136171
0,46217027109004
0,468176559632169
0,465341205257838
0,473711765694835
0,468140467986939
0,464045708624083
0,452054789274682
0,459181473473047
0,452521201742922
0,456974998669697
0,452221430932628
0,460855293567663
0,448739197704027
0,449092253046782
0,440964570975509
0,442365747884973
0,427274752278963
0,44467857382165
0,431294575918225
0,434826407499114
0,42254807096484
0,420913952587483
0,423994015325854
0,424399568770332
0,418832915120879
0,422254225398253
0,416925053127821
0,413395476444614
0,403072210069005
0,408901902979628
0,402465064931336
0,410312159897787
0,396160726557828
0,403108921981418
0,396160521838997
0,39418251455226
0,391714941389461
0,387383564479449
0,383662162530549
0,385771744847012
0,379717135468722
0,383539144723122
0,379372359895758
0,377996861622236
0,372792340205724
0,374412176203329
0,376393639529408
0,371880597331835
0,360674311213219
0,367801096231997
0,359256445236653
0,364382025634577
0,362576729141666
0,364095084773069
0,356423235412909
0,358904918527102
0,355266506914071
0,35454987016237
0,357107391404793
0,359325030640816
0,350592971295306
0,350052873905161
0,343434858106175
0,34496933234804
0,349622259271423
0,345396423658567
0,342098475324119
0,343783007796526
0,340256561788197
0,348585312984125
0,336865666522821
0,33715313834021
0,335465065359264
0,335264123700579
0,335583326797735
0,332759982296115
0,329579978506851
0,330601223906072
0,326679752179213
0,330892204199256
0,324374679467223
0,330839247310501
0,321941589925894
0,326980732108638
0,327120370673588
0,321503903608955
0,324167258801703
0,320618057487105
0,319520556668555
0,324067318623335
0,311230758605296
0,320519657214075
0,315060381189915
0,319729507983659
0,313177454486523
0,318002735933523
0,313490505208569
0,313407517614498
0,310695900162261
0,311188143683875
0,307044536020442
0,308836177786649
0,308056691753001
0,311707948744385
0,302732371447538
0,307769148476357
0,303527639339448
0,310634735512778
0,304750272722462
0,30139716238996
0,302701710984028
0,307674988950171
0,303980181462678
0,301677402101634
0,294363325407309
0,298373566220003
0,294564149598443
0,299170222856739
0,292704404098462
0,300776898502954
0,300892070456475
0,2980620088626
0,293545217099709
0,298649453698299
0,296855645785786
0,295453789696189
0,293797230065165
0,295097013518026
0,285604449512381
0,296762537452705
0,287533462024005
0,292203253426837
0,289973222628
0,294992337036152
0,286521053996795
0,292731606343867
0,288069442051799
0,288606998995731
0,283611832008537
0,289617065512615
0,285910657638563
0,290707179224
0,287822029568116
0,285812534505518
0,283692905780902
0,286853552701749
0,281209348532731
0,283880667864346
0,277296096747236
0,284362541466097
0,279701273588558
0,281562594877882
0,278635960987085
0,280807527451484
0,277709126855343
0,284071529139231
0,276800067632911
0,281575017250962
0,276336857580916
0,284665160994434
0,278699694187003
0,280985774881338
0,280206921353864
0,279734136582677
0,280886963036677
0,282443965998827
0,275387140062588
0,278321356736941
0,272934236517005
0,279223799088902
0,270693058662624
0,275443045965568
0,278421956941063
0,274644989810953
0,272634477972212
0,274270752827749
0,271821471226162
0,278953058581697
0,272758177442683
0,277876209515982
0,275199497401492
0,27186630594514
0,270209489646747
0,271669696939081
0,274086224027197
0,270271852848584
0,270278577072259
0,275048544091612
0,269184254396821
0,275020293508998
0,265752636820429
0,267778727826273
0,269018135237311
0,266582918814543
0,264760289107001
0,267004783060319
0,262997419320778
0,268919186240788
0,263076244779994
0,261616742903341
0,262246603151986
0,267252841024444
0,259630355107518
0,259145096690808
0,258589312514484
0,266393535734516
0,256340729580787
0,261415339284219
0,25208192916858
0,259835397302138
0,257203546806629
0,256653904307963
0,253229265191695
0,25727589819096
0,253511628265657
0,255602387047805
0,253294194849872
0,253091166205449
0,252601309550876
0,251144766605489
0,251419522432998
0,254134079152124
0,254139449548413
0,253863108891869
0,245033663767307
0,254848498783718
0,250486004895777
0,251957022227014
0,244372643820694
0,243813775406623
0,24414161460286
0,252486843347383
0,245015072290632
0,245622044561994
0,237426048265802
0,247892926394913
0,244971787082053
0,245331080089242
0,242610338235502
0,244536235271809
0,240663478608502
0,245331878625765
0,243401509678481
0,244130746931472
0,235672498601168
0,238916628957399
0,234364745353835
0,240498362510702
0,231630133205065
0,238856064611275
0,230790080563271
0,23420738705493
0,235230806441723
0,236778083355715
0,231110402352203
0,231777512529419
0,228526059744649
0,228043411519758
0,228610381466043
0,22822225819555
0,225194052721215
0,227387850995447
0,22489463061064
0,224320849223255
0,223594264030168
0,221989542715417
0,218350778537844
0,221061393714253
0,220461666131388
0,220911557883511
0,217272445653784
0,220785845356447
0,213681376603489
0,219270153269721
0,215159618266139
0,217371941458008
0,213800014560397
0,220318629126883
0,211180201222348
0,214433819438358
0,214853709720678
0,21481527681775
0,211868303946628
0,215269088398896
0,211708174114296
0,211019138492245
0,210434500801234
0,21064642199229
0,210829797469012
0,213476407558095
0,204252323658251
0,203530259434245
0,207668550358036
0,21046442180238
0,204567841992438
0,208070221864346
0,20536664765998
0,202900329286091
0,205757721326483
0,212344795209879
0,206054301398316
0,204452989528305
0,200394019184849
0,202401831793413
0,202339907350087
0,206951409133649
0,201166225064829
0,202644987911802
0,195671037611047
0,202668040121309
0,195962488208152
0,200401757273011
0,196985492323603
0,198943070799787
0,199811497136211
0,197644158029778
0,193576982667703
0,199016903728227
0,192209012430772
0,193981650590447
0,192868282795241
0,195190558563917
0,192328156633423
0,198021303528109
0,192634855278269
0,190402913541957
0,188470655719635
0,194572723807219
0,190210704807626
0,190500496403591
0,186184142126072
0,19501269077334
0,188429552024639
0,189097774355595
0,188061690441012
0,190740884786815
0,183655424923409
0,192631345529583
0,187720304752129
0,186868867728147
0,184776702931782
0,187399019856336
0,184578606134142
0,185130569360617
0,184814734427593
0,190110268214923
0,185067778478985
0,187454282355277
0,183893687745403
0,185811499420709
0,184813794545459
0,184778643039625
0,183364623037024
0,182053950738108
0,181965123117275
0,182989229046459
0,179097412807673
0,178868968659571
0,179182153536075
0,182062530243904
0,179606404426662
0,184455286981594
0,176599833062689
0,182322085976007
0,177604182911469
0,180199090176829
0,176184005065147
0,181220009319767
0,17816154273945
0,179205931351575
0,176056411007655
0,180276489823773
0,175370613044617
0,178348763656974
0,178748968564598
0,17837894777713
0,175301203726112
0,17542065260537
0,173260785381939
0,17309577029838
0,17288971757705
0,172332415823899
0,171542701292281
0,171967169696558
0,170374998981135
0,175030422179377
0,170680178756052
0,168571953890254
0,168130767142892
0,170228077284037
0,17180505211958
0,168766582936883
0,167864143753857
0,167953746098482
0,166333483215164
0,171674938982227
0,171355452065917
0,169715980657387
0,165729097014646
0,168074282274125
0,167718380762019
0,166309558807397
0,164971175826772
0,167203907747233
0,16406393690457
0,165733798856245
0,163628543548705
0,165364254359106
0,164809070797096
0,166639870094086
0,164248494043779
0,163274939988708
0,165165188710982
0,164180310264025
0,16311088838375
0,16399006334476
0,16123851127077
0,16498060807488
0,161759704950836
0,161494038502479
0,161179110073895
0,166947521320548
0,15954282303204
0,160693751651215
0,157353411733963
0,161078809249186
0,158506082145812
0,158113477244994
0,158230389549407
0,15464150298281
0,157192418382895
0,161887329289877
0,15578195366705
0,158037738427952
0,157117207430219
0,155446168206775
0,151871210694941
0,153243615739123
0,152477626080541
0,152430884615462
0,149260789608981
0,154388706651404
0,149690395640483
0,15098887826769
0,150115570371025
0,150756293184303
0,15009409869286
0,146811317668771
0,146314296727631
0,147125516154642
0,14429047141704
0,14742689643756
0,143574883066231
0,144871150748589
0,144510924573194
0,147146176072267
0,141670218339686
0,144158084902803
0,144834594199822
0,142041267222392
0,141406551352026
0,144617203690809
0,143205381399779
0,139295027025626
0,137366191516446
0,140296421703776
0,140238686928825
0,14014813146081
0,138338035688994
0,138145844062527
0,137528048299023
0,140198955198262
0,140503879769434
0,137785437380387
0,136982488781127
0,135092771566951
0,134878586410228
0,133819447150202
0,138617710877577
0,134794047407025
0,134491453977096
0,136957030614992
0,135085148286522
0,13402491889018
0,129430144835351
0,132407922667329
0,134481873209419
0,130335727471936
0,130999406059625
0,132659498577307
0,131629446833885
0,127710744901894
0,130825938471535
0,129707069447465
0,128741171028234
0,129080933882032
0,126366026208817
0,127090551907205
0,129048345012609
0,127886920277612
0,124285369278558
0,125229924754075
0,12454288793871
0,123634957080905
0,125735188449601
0,125448928802919
0,122758691040442
0,12170507567188
0,119510855396091
0,120564667730887
0,121490772148235
0,123050707054145
0,121117351435104
0,118548627656493
0,118171860970842
0,120941849372199
0,121759163998342
0,117230262944403
0,118039334706757
0,117363172446262
0,119293867995468
0,117956288624445
0,118093867736566
0,117423573807579
0,118904458580474
0,113746066143435
0,117435501738864
0,117563756351266
0,117168417507512
0,119349771175998
0,117178113399712
0,118503525938409
0,114171771295687
0,117007399254507
0,117705420343646
0,118113943471302
0,117692728142131
0,117865098651429
0,117134114683521
0,117193563388963
0,117049461108801
0,118363178114094
0,119822933719472
0,119013000564317
0,120897716330492
0,116247039041852
0,116683740154145
0,107320485192525
0,106122334805852
0,107322794265155
0,11280506529375
0,11265396200393
0,112740404682587
0,0961665085462821
0,106099207986831
0,110666924439921
0,108533357761722
0,0982619137863453
0,107091932581991
0,0969003168097401
0,0998818848033628
0,104456958161231
0,105499574219745
0,0970059612248084
0,105819096499131
0,10418705599184
0,109246247713626
0,099872171689141
0,113027929526084
0,105091638803857
0,11397454539081
0,102319629567027
0,116360602991406
0,0943322635816813
0,113806057744746
0,0998334135119515
0,114165646257819
0,0938412235671083
0,11268990400619
0,0953206720939206
0,113926676517852
0,092746478658734
0,119064469920648
0,0919026033050341
0,116354770966373
0,0804250995536371
0,111623418965515
0,0826914810154942
0,125022690988036
0,089768115506156
0,126913228586646
0,0847286643586823
0,120675688284898
0,0835051404712831
0,126196528000193
0,0870903992060009
0,123890965614981
0,0801285871715703
0,120809036713227
0,0968042553004055
0,115215628256061
0,0929708993718545
0,108955529592554
0,107889976303817
0,100293414086119
0,110306033750959
0,0929116584039212
0,121583404674736
0,088546108517302
0,129705491726285
0,0866589440122272
0,117647909518922
0,0925828495852685
0,115735974157708
0,0939265099977704
0,11012164976965
0,0980648068276095
0,0997794284524159
0,100866893975073
0,100586292849768
0,10098311078144
0,100594831455317
0,0974960206322053
0,103075000505116
0,0971467878465897
0,105658905089896
0,0941348360371484
0,101096433764353
0,0958227049255644
0,101068959903351
0,0951711861835686
0,0967475341383142
0,0944759012704871
0,100191876305773
0,0936570106768891
0,0997255823127841
0,0951466170587257
0,0999926852610641
0,0946352010347913
0,0982501104741819
0,09367031553779
0,0939205101554139
0,0913489717997196
0,0985513559313357
0,0940796352898774
0,0975447934352444
0,0947282256170953
0,0989674409283011
0,0945756491603162
0,0977062799051566
0,0943691137886097
0,097137355491177
0,0933151449867412
0,0951084394804123
0,0949597401682269
0,0967945343699541
0,0928377228366752
0,0960826235223768
0,0943322025228005
0,0973861318693842
0,0921753075681857
0,0962649045029553
0,0933868023808734
0,0960237535977774
0,0955494520650818
0,0989531729586529
0,0929060119984814
0,0953788797672373
0,0926539210866271
0,0945851357034188
0,0933670285579188
0,0977690546114129
0,0951124002187939
0,0980084746588977
0,0929485873135787
0,0952170797955929
0,0924952312044814
0,0959675177909177
0,0926078392709407
0,0948896172891212
0,0912170071327646
0,0947682316153057
0,0944094747357414
0,0939410655084449
0,0903276844578072
0,0940378678315342
0,0919256699708314
0,0935348662980639
0,0903228056672382
0,0933482987480748
0,0903811684220283
0,0937373410091174
0,0922097073700782
0,0954481612611744
0,0928324026432902
0,0944846312005163
0,0905297853513371
0,0918741994960804
0,0929348041754582
0,0938633895930934
0,0913310762362331
0,0953972404758495
0,0930324490230288
0,0938113880312079
0,0923337530972999
0,0931771229797307
0,0919893726681856
0,0926984469101557
0,0896272224426576
0,0922481397354118
0,0925989659691279
0,0962672114074137
0,0940353828568661
0,0968543618372553
0,0933956945821646
0,0929759428100111
0,0944165380897356
0,0963660773129522
0,0936774365209159
0,0943406218756301
0,092275468834644
0,0953245385089885
0,0943385691277402
0,0964100711232508
0,0937722626420876
0,0955851482397903
0,0945194180552353
0,0953179878781739
0,0937136708193633
0,094961447300075
0,0924094538798808
0,0962242086119089
0,09400078937879
0,0946950780084651
0,0933519563611807
0,0940159819399438
0,0938571856642078
0,095072650923024
0,0933459198833077
0,0949783861713518
0,092699032466829
0,0960035090574037
0,0917575692472068
0,0922847432543971
0,0927407018650684
0,0963758048372533
0,0940161505541263
0,0955673759675745
0,092513341758812
0,0938546055524119
0,0959342644396042
0,0965381320053988
0,0936991721102613
0,096751170974006
0,0943732257832537
0,0945740887550723
0,0936434748526684
0,0952367128399903
0,0943570487576867
0,0962964739817164
0,0951745704587836
0,0952168789395649
0,092399300536096
0,0952601868134423
0,0962366685202269
0,095701637562072
0,0929181186426303
0,096064526963238
0,0941693148472546
0,0969558462420257
0,0952248191380486
0,0963635832195605
0,0973173491740916
0,0976807407202239
0,0966489276807204
0,0971886505084094
0,0964828550676285
0,0971978777179177
0,0959774431336033
0,0987039721487722
0,0961728698150707
0,0998407611195637
0,0959306256056669
0,0954064028438015
0,0945312746601911
0,098861627645378
0,0985499045726323
0,0942566715091121
0,0959895709858509
0,0970768703056258
0,095734994009233
0,0941423891173662
0,0929839296337883
0,0950305606218058
0,0954310910468421
0,0942910420048157
0,0947522698961618
0,0941204530107859
0,0919152645266632
0,0980358223049748
0,0965417511670094
0,0937482804943906
0,092393894666341
0,0923442301023066
0,0914761685491452
0,0909822005050265
0,0932322689352899
0,09226082352455
0,0916604058509963
0,0944084414083484
0,0916657253941476
0,0908891393123922
0,0915387354751858
0,0911439251646456
0,0901305508750343
0,0920474597945376
0,0912695917720791
0,0906926738822079
0,0882422944923035
0,0905005669463087
0,0900355909000004
0,0908334166914098
0,0913532195766984
0,0907069291526774
0,0891555427878475
0,0883810635942453
0,0900626494717297
0,0896620407858364
0,0900979272720104
0,0891169137750729
0,0880170508259305
0,0890331908361034
0,0890048405560391
0,0903706698228506
0,0893546480087004
0,0868480883941009
0,0880804513500335
0,0907270275345736
0,0890893809858353
0,0897540168168681
0,089216667267238
0,0886985750362585
0,0876081079526893
0,0874081573391539
0,0888571460837583
0,0879569690341778
0,0875642925611819
0,0866090022605145
0,0903450233620798
0,0890991555379378
0,0886499034470369
0,0866443694893481
0,0876020736449738
0,086844337432517
0,087427656881502
0,0884532785355538
0,0843184641049288
0,0872012199452428
0,0859894447818604
0,0862659589784517
0,0858879146921587
0,0853800803731934
0,0840201170685327
0,084178625605456
0,0847763035967676
0,0854108216822831
0,085841134131525
0,085933623572486
0,0872094045447469
0,08538494278203
0,0859354851758286
0,0862324776066344
0,0849963727562078
0,0850345977636086
0,0853844374803198
0,0889702983128317
0,0882076984579252
0,0841625589722368
0,0852188446056899
0,0847510269755717
0,0858195771352445
0,0838440331836505
0,0823394869695309
0,0832501308755097
0,0851050357464757
0,0846476494436179
0,0818982175615593
0,0822718755082893
0,0824863838201412
0,0845007335814191
0,0831022063734665
0,0824032590145126
0,082250040157928
0,0826447613640588
0,0833072103611164
0,0833893089394407
0,0828706326072092
0,0818044601031222
0,0833208758076482
0,0822378769000986
0,0812426540815624
0,0865895655197803
0,0822918148153888
0,0805366805600446
0,0810500289364839
0,0801290909319793
0,0807830188694935
0,0813421757081795
0,0810908027218658
0,0806853591888734
0,0821101972874182
0,0804857830724049
0,0781708676476115
0,077577950378683
0,0776311631130735
0,079894931157874
0,0783284393902419
0,0785712522727993
0,080005981836413
0,0782475497539778
0,0772945715655302
0,0782748004154759
0,0786149632286315
0,075245507466025
0,0770483291713979
0,0809321516969464
0,0824546128089638
0,0853606175872531
0,0770529292135071
0,073772278142154
0,0747149513251966
0,0737068909709767
0,0748674712571639
0,076449715944097
0,0740160878411385
0,0743849066970536
0,0756827024152108
0,0750677550156095
0,0729801065328586
0,0738155206740425
0,0714815491242338
0,0700513337009439
0,0722407173180541
0,0732143526618022
0,0725136356535814
0,0709178985669583
0,0724056232769478
0,0714540908229348
0,0700920222360628
0,0708813551594098
0,0718170019206657
0,0698470838531686
0,0689986550085383
0,0853430533201153
0,0892443882483492
0,0715113108136475
0,0715738133059463
0,0749571072469069
0,0746756089694386
0,0713834117284014
0,0713074108278606
0,0714311085852418
0,0727369380321428
0,0713625696925016
0,0692122592612163
0,069359819409115
0,0678106321147633
0,067875467593902
0,0679259800723134
0,0673008122839343
0,0703094967856066
0,0691538542936495
0,06805509822804
0,0674310351652955
0,0685169008718702
0,068766543557365
0,0693984432747359
0,0690639132414523
0,0671899068111371
0,0705749599382587
0,0792174457728351
0,0772079388040677
0,0723828790095287
0,0678228571498524
0,0660853602572148
0,0679904451599017
0,0682400409530146
0,0677676769320298
0,0681145323125349
0,0666814832840557
0,0653463875157644
0,0677220102492241
0,0687992931893013
0,0669946844307323
0,068251334130409
0,0673429792285054
0,0670211024587631
0,0638412213933408
0,0648016893678394
0,0665864022072326
0,0650302383288206
0,0648976396250589
0,0670896627139245
0,0668436813121072
0,0702024205083478
0,0641450317112146
0,0778365597205559
0,0863348410418524
0,0709658487096915
0,0653361625596286
0,0659449202906942
0,0647595142431451
0,0649124637869267
0,0641509052310383
0,0659049256335835
0,0638778848993978
0,0637054220456856
0,0631198466183269
0,0637455406990227
0,0630431393922767
0,0644810286011354
0,0641808278098244
0,0653674670184635
0,0642902531651841
0,0625078160527278
0,0626999152497419
0,064248707207535
0,0714321865501345
0,0852006931420098
0,0732142029150685
0,0693076307533318
0,0623504240974446
0,0702485320327247
0,0899648567814747
0,074453145037268
0,0641911549136862
0,0677382825515414
0,0654589643883891
0,0642793993067533
0,063847315147237
0,0615778515485654
0,0695768659130742
0,0722339292487475
0,0704102427982224
0,0674755108793343
0,066586302367883
0,0632800140844595
0,0647665669421875
0,0643610538198204
0,0612031811031405
0,0641659290857617
0,0641031947499289
0,0616447196459256
0,0622671443657971
0,0619020707113719
0,0617496978122492
0,061823455411868
0,0726288555020145
0,0728797041257271
0,0638340540671592
0,0647293846582925
0,0631698373331498
0,0606519155915063
0,0801357548661882
0,0814803228551861
0,0684037814185386
0,0645197504903066
0,0650584625649938
0,0636858393041386
0,0636545266236914
0,0605014717912957
0,0620667667290853
0,0620629814648043
0,0639355974977525
0,0646136216903654
0,063604178767841
0,0635641045306457
0,0631980141295391
0,0621644549060658
0,0594727364694955
0,0630154328732339
0,0622953552703574
0,0645413494087739
0,0653041146238065
0,0718519375773307
0,0916392767738387
0,0947654712974103
0,087592347130405
0,0807303206007964
0,0725946985202888
0,0652643883702563
0,0655848013583915
0,0627449220336783
0,0661952091561992
0,0656510468434801
0,0669272591752112
0,0654667173415365
0,0678942740159038
0,0637147227174206
0,0630065613200836
0,0605240603671712
0,0651301477538267
0,0601723715972011
0,0641096150210063
0,0616960545283908
0,0661714744703739
0,0600146504687517
0,066464440837281
0,0764446513928507
0,078418267426556
0,064151546639274
0,0747011703929446
0,108860881307636
0,0898213132950873
0,0806448070824726
0,0719681945414925
0,0693712126429654
0,0631564894254601
0,064983781729946
0,0713933744473856
0,0753979244002178
0,0640721692441784
0,0643921792730939
0,0639490866917231
0,0721464738358755
0,0655689150923963
0,0644457886712781
0,0948916544132211
0,111781445584097
0,0834515321518034
0,0705780841299869
0,0623559625302042
0,0961165774671124
0,0987343583020438
0,0755211055984283
0,0709739260782692
0,0744656695240971
0,0662698001651609
0,0679602954804975
0,0637212224762813
0,0708946606121677
0,0787672044244794
0,0678371364419342
0,068044471820652
0,0641877281485498
0,0685635141271464
0,0742014620841106
0,0756904736617972
0,08774179439857
0,0827073550821334
0,0734518454384571
0,076133534392609
0,073500519468921
0,0687597742528406
0,0715438783512982
0,070292040001215
0,0700218422685179
0,0902707918027567
0,0879606627710077
0,0881440904741659
0,0982903454783208
0,0838830735915586
0,0717789003651948
0,0783094798388891
0,0947682568049134
0,0825774934894979
0,0693033061661962
0,110683540033588
0,103369815514423
0,118104332715618
0,0870449254504847
0,0866969112583076
0,0697038379370456
0,0794086272290185
0,0649160560120522
0,0874113706333152
0,0933202258607725
0,0830392842600432
0,0732092999913703
0,0737054829284457
0,0936093544781086
0,0916546864142725
0,0852397787790588
0,0777750816224041
0,074914069455776
0,0796780623903463
0,102978992616308
0,0790209125479232
0,0966597951387355
0,117716482944222
0,128923537369264
0,11686515761584
0,0813274107630547
0,0992106080513058
0,11262086898079
0,0919774539816584
0,0805036185653534
0,0814292012273508
0,0846907835911788
0,0729050955961146
0,104007861112906
0,119700667997367
0,091880917621566
0,0873855229997354
0,0857665993009916
0,0978300542085412
0,116495636240196
0,099034667903177
0,0848741418225272
0,0911191173867348
0,0836895147257663
0,0988624868400318
0,147846453242716
0,110524371040443
0,138070492762781
0,122737019228766
0,133018329751224
0,105908611180699
0,114299464885986
0,0971565568579651
0,131680159386223
0,118148232973835
0,104206246526659
0,090500175532863
0,143860928852218
0,113032811257234
0,114615862666204
0,099973418921462
0,103848146408292
0,109166377205919
0,17900158644548
0,181589231507907
0,155667021287759
0,110317522266565
0,132194809029952
0,139357970293262
0,118112186359655
0,107176514030365
0,108808055006919
0,111165798480879
0,109469506453831
0,11707031708959
0,127868986789998
0,115833749068882
0,124259564435728
0,108054296045875
0,133216013228113
0,156549849312042
0,223753987497371
0,149365142733609
0,161623610599416
0,161342000534946
0,163253524750308
0,143139004265872
0,127631732270364
0,129466753800605
0,140171981724501
0,140298371400194
0,130701470133699
0,142155114254437
0,176697920519079
0,151506358768649
0,190483742095497
0,156686268138694
0,165652507646934
0,141161822042604
0,227423524016461
0,286025975557723
0,20346071470771
0,175199016405938
0,176421679623012
0,246266041924432
0,233068831377793
0,19581123454336
0,180479380866484
0,177703341389725
0,176402788145538
0,196900615792691
0,200676635552053
0,213070285609824
0,224953663284065
0,201348377360844
0,213194625695358
0,257022655714532
0,338368074452038
0,316634106646335
0,241095810563634
0,238408317805822
0,269013017598256
0,26366085905181
0,243323989451711
0,254287672147038
0,240207393517048
0,308930539625854
0,293746063517454
0,294283427247812
0,261880717928987
0,308615906515523
0,300150103920043
0,307521528390467
0,367779022661081
0,333409295997383
0,321780547607477
0,296881527663306
0,322041476789815
0,304673413785575
0,344291455043351
0,355151242025724
0,360288203294198
0,345213336253575
0,340049473091998
0,341787742505889
0,353442860488219
0,363864028185636
0,36057705509567
0,380602076262699
0,428160405191708
0,470649173843522
0,59691112023093
0,405418372297834
0,399538530659649
0,361077404485152
0,411209038371397
0,421110111704086
0,433372386688477
0,465615209081987
0,41230140236963
0,393006692908681
0,384895491425208
0,399753173905353
0,387826292522804
0,396961063074831
0,381222637302207
0,396244249863481
0,43274807846236
0,40185204510261
0,506040892050466
0,458901902313464
0,418744623043031
0,370162453616218
0,408573581526342
0,377814943906347
0,405958488804856
0,378196814231221
0,424115744137298
0,401424498784363
0,410512584781335
0,372745526697096
0,393164435172401
0,42649586075363
0,407114658244332
0,383932554434607
0,371314125579497
0,363351662784482
0,376036096374834
0,352741735240767
0,437068161642802
0,397937704670482
0,37780100741115
0,354530111903256
0,359344268681924
0,347751744097068
0,357090113606984
0,342542754831629
0,365455800999822
0,339258249692589
0,352987882656179
0,341879391742639
0,350805297263309
0,337111784409674
0,343385462894141
0,347923317849122
0,346499072415849
0,340575102163557
0,340394068351536
0,340584395315446
0,341314487961777
0,331377000629511
0,341203265050002
0,337800200225359
0,350606182688441
0,336477678126804
0,338523505672166
0,336079119654845
0,33281115358388
0,340333001744553
0,338881071534315
0,333950609027779
0,33425199803809
0,327428902220988
0,334365141386689
0,327725517782607
0,327559237770192
0,331384657856631
0,32807450761214
0,328898639631504
0,31877186499506
0,330593915949416
0,327330924714205
0,348388641066389
0,42709909475673
0,340260861574415
0,342275112385013
0,309775707268305
0,333758982286744
0,304128079059382
0,330946872291411
0,39337543824178
0,35256558950992
0,315733916943067
0,308505225850071
0,306200160146213
0,344822136285742
0,298235347042717
0,313433398344298
0,291967323375634
0,31143623874633
0,37019330205031
0,372245062221121
0,511209989567318
0,380696334403819
0,325819802440623
0,283654303325774
0,355413770109236
0,319732140805168
0,303197177512479
0,276484082697069
0,281206853998801
0,353682252304969
0,290390357762379
0,28808189984606
0,267146447076159
0,282131804739949
0,325063910157121
0,326830644603066
0,304207791322745
0,351129570325941
0,311680679180566
0,332855023104532
0,374497398950562
0,403991891193888
0,307250639903677
0,266859681499005
0,267484180746233
0,256341099947287
0,311511784468753
0,315937621845519
0,270697802443588
0,286395905062887
0,239805214026014
0,261895262992438
0,258390172784609
0,300647768555377
0,242606487828608
0,307046367446743
0,278293263907196
0,2590788248982
0,277663264232334
0,28727812258958
0,344304552331941
0,324105479095099
0,25217531921518
0,235725614860415
0,324503520652927
0,28242314484282
0,275038703492104
0,258023427413946
0,218701342009148
0,264841249699033
0,247674675969529
0,235168117102608
0,270497678513322
0,25952864749166
0,309794627016385
0,322789708885076
0,366357940218817
0,306080878182438
0,233415170029419
0,222306854230534
0,21089469467749
0,229571350067318
0,2147834799921
0,214570076289027
0,281922004830341
0,208988022417176
0,259215206004693
0,260621212032276
0,233743914461715
0,220560714127884
0,216347148382871
0,216821626555639
0,244592237175658
0,280540971673429
0,308997143039737
0,249034639878527
0,277953455442738
0,252865181708426
0,261999937944199
0,231970311338437
0,246117128583072
0,237757711730435
0,253015205465498
0,265530083061443
0,25623620463041
0,258754128764854
0,266827961753858
0,257943363427417
0,351537968605557
0,288935941154178
0,301190616018245
0,333743662100793
0,341916068043503
0,395625068711981
0,314145547838541
0,322160521537164
0,305111498059594
0,316195078983814
0,319931297899286
0,317362861299959
0,372187066711141
0,355811154327978
0,34711310683131
0,339450688687209
0,346153285869671
0,347130956321124
0,366355717720716
0,414852835244868
0,394934353258712
0,522725892100074
0,405630032302489
0,425498669324846
0,36976877835221
0,375769493987735
0,381736181345239
0,378436651978848
0,377416393357369
0,364361837413084
0,39847510899023
0,417005684028876
0,382659670073126
0,385782297731377
0,382688435881796
0,390550191314308
0,376658292451269
0,394822663691547
0,391591594633312
0,394206211965785
0,396760053164233
0,396651633459576
0,436711146398172
0,507354481633202
0,424296037639645
0,42238768345316
0,413805514839877
0,442969957041941
0,413436733445775
0,436577179096112
0,454125671326395
0,437139846392668
0,438274762070069
0,433523730113569
0,436622571610497
0,430440611249813
0,475722226536945
0,474619238460802
0,44765734095746
0,468373617702995
0,436527539869817
0,563505637948758
0,485728115715385
0,512509308052164
0,480098917869015
0,490174152538677
0,46202435870666
0,481559791252857
0,460926849064522
0,4775459491335
0,479967943440283
0,476061009441637
0,476349092675233
0,473774371600243
0,481225594676223
0,465108698285187
0,487800909224956
0,513414376448686
0,47880436165492
0,48107917338631
0,470300287190399
0,473350483360713
0,469921890464805
0,527089346859154
0,50033882035823
0,507858321746159
0,472055871230818
0,505261690353243
0,513155871744194
0,491817517031472
0,47118200433795
0,482326063719857
0,471161268573379
0,49092465656193
0,457236936932213
0,515091792454277
0,509500285126788
0,505488704039122
0,480767231981086
0,490820755598502
0,482674038263832
0,493994894556838
0,485256100458673
0,503852890647483
0,498245512794039
0,513072807141599
0,510608941051401
0,503080924069044
0,507629612519146
0,523561839039355
0,529963652368345
0,532329044858939
0,502497723176039
0,51470092590146
0,49413950126099
0,513482489124372
0,51060207157475
0,514054916863317
0,482958338687339
0,502670224429426
0,474539902783917
0,510584147025567
0,523652242789161
0,494269912504491
0,510923044713978
0,477508937277846
0,470142490930551
0,471777497244012
0,466825875860848
0,460036790924603
0,462315987694442
0,465855118665869
0,451981934916549
0,4549658198092
0,452086434946439
0,444645559377176
0,448708729689602
0,453322138873412
0,440835659605068
0,445335552417606
0,439439537666364
0,452934707115929
0,435810277327704
0,447002873351924
0,441294698687641
0,446794638580614
0,4694428197727
0,467158271254255
0,475573415345793
0,443957755563943
0,457592609988891
0,443393935010645
0,444749621706291
0,435498236586686
0,436466294734351
0,438326830397331
0,433376923917905
0,442567686506837
0,438237709288908
0,438252316551636
0,440389282587493
0,441530648443811
0,434020254629574
0,436776676543373
0,432778514698116
0,437495278652634
0,436293863889566
0,443977018099
0,436992262362143
0,448842075091536
0,43780474256366
0,449500015751911
0,438799785596147
0,44514291578992
0,442365765326545
0,442845405068601
0,450029908712961
0,441687965299703
0,436747484747807
0,437674110847916
0,43732478491468
0,440550505459159
0,43527260758545
0,44087709286529
0,432086740054422
0,430436352483642
0,432867918734157
0,434413722737704
0,427269290990332
0,428129238355347
0,418438287758267
0,420678197361069
0,413358895328191
0,417818655943189
0,404354734868134
0,407304614769059
0,402365092422165
0,400505089087068
0,392396693024696
0,397348014811666
0,395589378917795
0,392248609595844
0,386344802752043
0,393711953373611
0,383092367015482
0,383268460359605
0,378496335570858
0,381161125643332
0,375248540043193
0,383839036790252
0,377827326870649
0,379013669889945
0,376192161344311
0,383442280097829
0,375807998896382
0,380834495764096
0,374291580317757
0,384777833702296
0,379842104965684
0,383842837261706
0,385039156594287
0,387741997433939
0,384830311018517
0,386222769232472
0,388045295248379
0,394250211229538
0,392502944353284
0,392316561814933
0,393372764089579
0,396046655835394
0,396298096372956
0,399129168679312
0,402117270453937
0,397835935649384
0,402128862732966
0,399738620887654
0,398563192450669
0,39992180240358
0,398399822194814
0,403179314166978
0,397670426518686
0,397938716538095
0,395676502119686
0,396586393183383
0,397165171597345
0,396367105152121
0,39162768846791
0,392380086988618
0,392949630987597
0,391151890746074
0,389061269237532
0,387729244394126
0,383338127778699
0,38406494516667
0,383912078774028
0,382594023232798
0,38155874754236
0,38114132667263
0,378753870186754
0,381845606854542
0,376130544102634
0,377991025875938
0,372871982514024
0,377499173196762
0,370821803665954
0,370443887437809
0,371417493665496
0,371405506006634
0,372646514056137
0,369028948834714
0,37020685040315
0,366405746475581
0,363553575102922
0,366658292962311
0,36027112409923
0,362025289061514
0,360086286203889
0,357508776027581
0,353193096164342
0,35457801649349
0,345696533847721
0,349053408601467
0,346756528102631
0,342857447857638
0,341071687163201
0,34033985017514
0,336996174633482
0,334136721756864
0,32991247108181
0,329750888017685
0,32817490509975
0,328992984621284
0,323523448032195
0,325418486538746
0,3216727393584
0,321377726714903
0,319159467386276
0,319458610459732
0,317136314435554
0,316022659354973
0,314465543822297
0,31202791617178
0,308855168414957
0,30856612471304
0,30260087189674
0,301389878643408
0,295071427084973
0,293650171258924
0,287584516512798
0,28525412177162
0,281892044222074
0,281355095475598
0,279682931633355
0,280399122976296
0,280853341843281
0,286317157492105
0,287312160731033
0,295025760855333
0,296195910158762
0,305842536520554
0,312776890281447
0,323178563850349
0,333939998358227
0,344758195274465
0,355982084989941
0,367442974448194
0,379117944082937
0,393169544512885
0,405939657798738
0,418714875195341
0,429548781187155
0,445998426427399
0,450160184764873
0,47029423310274
0,482849691440208
0,491474418794947
0,504718300334823
0,518568813036546
0,528747598389173
0,537488487872911
0,54415691643607
0,555167019355975
0,559156472551051
0,571175069384161
0,57740136994279
0,585526466402982
0,589491549267035
0,597302874469085
0,5995669164268
0,602797121236244
0,608441892492729
0,608076564706697
0,608091057644909
0,612133272875909
0,611464135156853
0,612929656276858
0,611022800728268
0,611311083795781
0,608532131835869
0,618101050382242
0,616312346718021
0,620783790736914
0,614145252470251
0,621462521677818
0,624886634726183
0,628068176922805
0,63397668138865
0,639289973304975
0,638481901400668
0,648970087756037
0,648067286878219
0,650301194096259
0,660979340183568
0,666906767630959
0,675386114038694
0,684727944766514
0,683257953781621
0,700333866754136
0,704862838451353
0,7153113443446
0,726980352448048
0,733827971028096
0,743858360795313
0,74496038049794
0,757212114968256
0,76945832251423
0,776607739663618
0,777754498480873
0,780877596000645
0,776611663270884
0,78173729866086
0,781656801182397
0,77844177555608
0,772052893562656
0,775079922642238
0,770415239668519
0,767893630480512
0,760912121332114
0,769662857162629
0,770778965465523
0,776574486681756
0,774766293777933
0,780766946998508
0,793355283765238
0,804687209290084
0,81145683342289
0,823116000739779
0,833762280866903
0,847821557965518
0,864440317084974
0,870527874008037
0,887697052022539
0,900655139151074
0,906654451638554
0,917128567932256
0,928394340429645
0,940252644607701
0,961112539190389
0,97521416205148
0,973289453239684
0,992102444677007
1,01513651080498
1,02563288788691
1,0513236548794
1,06749151483936
1,09333093328565
1,09307595734519
1,11811621881099
1,12970025691723
1,16231008976349
1,17851177305615
1,1913473672242
1,18181422152822
1,20599967230542
1,22836739028121
1,23176510064111
1,25138762215813
1,24360539165226
1,27793054666473
1,28749684573523
1,28209549912468
1,28982198046866
1,27334596197183
1,27249609379193
1,25825658046922
1,29983924393093
1,29579145336014
1,2736819625641
1,26635443137366
1,28405586675381
1,2816207871494
1,26755715585647
1,28665153727116
1,27123429409305
1,29742878781673
1,30521088030411
1,35411103950478
1,3277826440241
1,33513141972792
1,34442890193659
1,3281734221144
1,35256937833112
1,39699740086308
1,40793495509249
1,43097887959724
1,46149339532374
1,41047505102063
1,43007275731244
1,51354877558884
1,45039923374074
1,47955226260074
1,5103034557645
1,54328823511992
1,50519264559715
1,54972166323358
1,51322799139756
1,57938803857999
1,53336317775791
1,5776474043823
1,53835653473623
1,54100531320408
1,53314900294622
1,53882234933291
1,53285517409166
1,58171916021938
1,58987991220736
1,65627449116897
1,60529868435972
1,62046408620632
1,61857009125661
1,68152852512562
1,56347292527823
1,65774396610392
1,56999292600815
1,65642560389048
1,64944779850099
1,68395358283218
1,62908467056193
1,62795411237861
1,53505028410811
1,60733842859421
1,53057657649685
1,49936578625901
1,44039040609227
1,46107138224637
1,43104703292516
1,435912041098
1,36191128048243
1,32415688185019
1,28388276875724
1,28393001376932
1,27689478874142
1,253379831219
1,24141025163818
1,24649075045362
1,22470729314387
1,21768598770361
1,22096621546485
1,19762748384348
1,18657363513199
1,18057509646161
1,15849769342159
1,17718251009429
1,16927027420799
1,16601251586243
1,137613790241
1,15817398563818
1,1278601520671
1,08758088453733
1,08271939518046
1,07197364609767
1,02484100727187
1,02086150983653
0,991185268342542
0,945662299655462
0,916306219661881
0,893117910892084
0,85409334255775
0,826877672029552
0,778719759508429
0,757335131417105
0,71966852815096
0,688560810432527
0,664083969851604
0,634130235831192
0,61469295799787
0,590136540976213
0,570818854211894
0,547218594694692
0,525621974182897
0,517292332644042
0,504531334762507
0,494495334838766
0,48149733009219
0,473297152896775
0,464162878753554
0,458645978469093
0,45971117821798
0,458939521099121
0,447604656818631
0,443924949669172
0,440613413307408
0,439255451411606
0,444502963621316
0,442226993815596
0,442887332313972
0,439503792772551
0,448069480518064
0,445987991317279
0,436209504717585
0,444371454490893
0,438958875802697
0,440446129981867
0,442676363497076
0,434080636441349
0,429993208802473
0,425659345649369
0,416612128870507
0,424036662297798
0,41077411273698
0,408484345843329
0,409978911264006
0,401107117659832
0,39979334457264
0,404499579410252
0,39630344956593
0,398962068247358
0,402150856773102
0,402981326224614
0,405683220538852
0,409301229614229
0,409790399594985
0,408984026500908
0,4174623351732
0,419378836741478
0,415015379151946
0,41893498177075
0,41873965689227
0,420691466721902
0,423871279669233
0,434207260241166
0,429028205603124
0,429742211950634
0,431717292948797
0,430262609608473
0,430523529774824
0,427947876783186
0,428123277266531
0,433010759859549
0,432579179549183
0,432786915711773
0,433140934877722
0,441713027602702
0,438006933744994
0,447922992823378
0,452116105156015
0,469718371384081
0,469122854013325
0,482004100777432
0,489911345405207
0,497124276914307
0,517914034523225
0,534981112473083
0,541557629816146
0,552769785127505
0,553062621007339
0,569698582993442
0,562414416157759
0,573422711139097
0,567150145298083
0,561327829503275
0,548244342373795
0,548495941120305
0,535428796615465
0,530477178971039
0,515469466281938
0,525331430142641
0,519216211719633
0,511591538997612
0,519432041532029
0,508260137273849
0,505961888422083
0,507058546438271
0,507826276932172
0,513040927308325
0,498071529668628
0,508359520193962
0,511444629391645
0,512187516997591
0,491347366756082
0,497573623692375
0,485389955926881
0,492137337343421
0,490705173218064
0,479227534673618
0,48054908338439
0,470437915440555
0,469820515911277
0,46555776781129
0,464902567067338
0,462612410208963
0,45768041764636
0,450622999578022
0,451605047099628
0,456732855625221
0,440725996803615
0,4494878947375
0,444966818763332
0,432907340263076
0,430988907573008
0,42946554429598
0,422966819268879
0,432610858700338
0,431827970104909
0,432970325013748
0,415441364815006
0,420714258952042
0,417803202962219
0,406051522207448
0,411439121542606
0,414579196525877
0,416636672483224
0,407888929514026
0,402797574648492
0,400659865614417
0,399356479637709
0,405493106962367
0,396515905680327
0,3964762947506
0,402152186938613
0,399459929456162
0,386696010650808
0,386128426251156
0,378737063922769
0,390461061479702
0,385105735664107
0,385466282761301
0,389651011087617
0,388761506506508
0,398359129429826
0,39532734266162
0,392984815384302
0,406817945128262
0,396644464271356
0,404639260906975
0,388666673757763
0,393042500670106
0,404233280697352
0,406585742027585
0,399184407077843
0,399719984430411
0,397116609799459
0,399333517418311
0,40148112426357
0,41907677076496
0,414042469428048
0,414358109188161
0,429119858550876
0,425212946016059
0,425512399980697
0,429316488378182
0,425358550623742
0,437686596300214
0,444665850096121
0,460551273785903
0,450273490596704
0,45870214537974
0,451031180935753
0,481625745446738
0,491662708238426
0,522798439226624
0,513386313958027
0,525902560086996
0,546048498129917
0,54634666661134
0,553968501335347
0,592502084446851
0,588410283549204
0,621888046117957
0,627380394435899
0,616412877157601
0,609980994692122
0,646582416608093
0,641512654883631
0,661590709289546
0,632960377365922
0,677115363971185
0,655237348211928
0,648351052485724
0,640688173977109
0,678752087344579
0,683320105924065
0,665534282282984
0,702853041988934
0,670771352453471
0,62718949194755
0,672115952267154
0,631937329241231
0,622889798170419
0,64795039369203
0,621539617081867
0,604603175581711
0,625198164902064
0,627999086745687
0,644263505889665
0,617916931676835
0,623837436752321
0,624972774665181
0,597413979790494
0,560010975638535
0,596163825784528
0,625166253751233
0,634200356144144
0,611272956444982
0,603519905841882
0,582255315206582
0,584158722263318
0,606986619247031
0,58705987238975
0,594817773672655
0,597391108883651
0,564032792259347
0,592165445051228
0,567934787932702
0,588886014779811
0,583929111226507
0,602626183900421
0,599099262369911
0,61203178246909
0,60730599468487
0,590580509726642
0,590286838408111
0,617278474301551
0,582687195277766
0,591312245017469
0,62710345555672
0,59714538030102
0,558579724732787
0,613352203650428
0,600717018068102
0,597872331717714
0,641007162580152
0,650788923965115
0,595019402506566
0,583466281862887
0,598703940546405
0,66137046589425
0,663971639552811
0,681608257266036
0,606297746598549
0,602084697547081
0,665562222663086
0,724944772553976
0,719410931349854
0,688007919185105
0,670297487936327
0,679455324002516
0,685682685366329
0,776114751275583
0,723717180164715
0,745300788565548
0,741513833281431
0,735901859934413
0,806285546434397
0,804276357228719
0,771802063532905
0,823400180006881
0,765996016469027
0,863026911766122
0,805447003153474
0,768315099531876
0,755408309026553
0,890848978961069
0,851031702524942
0,818943348528828
0,751534919093835
0,741121417434594
0,813971035249501
0,801104281622527
0,772413281587149
0,794613208361154
0,798854475569377
0,708435984630375
0,749353453448159
0,848564281085745
0,851076974929338
0,839756452384987
0,669398051018534
0,698585648492606
0,697647960671737
0,849439615536507
0,882186555056674
0,825609470828992
0,757864354409902
0,765088710229128
0,734416434117037
0,94610395086815
0,923418165945785
0,712845908904894
0,808715718965533
1,28625358966268
0,814759812759496
0,831210859826041
0,894895175493037
0,61624903717913
0,685787482906108
1,08238956120251
0,993091990929306
0,696503186099817
0,654251517323165
0,72802589083445
0,949914941147783
0,772807977650518
0,836904753833966
0,801485295717334
0,665948322032874
0,845157998133048
0,707238462708867
5
1,13334092864173
0,77101641522879
5
1,06683961697297
0,608565297463227
0,914766654890992
0,797928680366854
0,587240386569861
1,09856659833296
