3596
4000,36533379555
650,420452594757
1
2
2
0,0404982215047708
0,0518753229093361
0,0325844213291327
0,0542579985179852
0,0372664298397177
0,0432699115587486
0,0400099611349762
0,0479112369875728
0,0331957980035941
0,0523231750888439
0,0352473297228635
0,047172272529937
0,0316338090301517
0,0407086319428212
0,0310749653333894
0,0454913827233935
0,0435033727749949
0,0504928303411092
0,0305634558688084
0,0502676136710693
0,0371622959269571
0,0443334212540651
0,0344186229834743
0,0514945298537746
0,0385744846824528
0,0470962121135285
0,0219343505058582
0,0478672455213418
0,0440241760023612
0,0529413140966089
0,0331761639493584
0,0509529978042488
0,036822616890581
0,0442229096160615
0,0358015927129999
0,0462198006968178
0,0348560773016845
0,055142307465927
0,0310385659873627
0,0529157707921006
0,0347354402011673
0,0455876008805536
0,0356823102297519
0,0493454129366993
0,0408375485757899
0,0447277496683305
0,0371325577369455
0,0505727528630606
0,0335286789841052
0,0486646636963647
0,0379009535265601
0,048657541907584
0,0480987664252242
0,051298735102068
0,0558946272728939
0,0616367233081339
0,0317258606371057
0,0471177160317028
0,0363695370661187
0,050586118430336
0,0617343056853152
0,0379189974249435
0,0313053200136054
0,0487001982368152
0,0443671464679386
0,0439992956377809
0,0325072129693018
0,0434857777976837
0,0407662185029554
0,0456450807305282
0,0331801398050253
0,0762915489173926
0,028742345718729
0,0484979920618789
0,0503194133675607
0,0491507155352322
0,0334300273016777
0,0470886688284005
0,0363734137951076
0,0653024031462204
0,0468439657583115
0,05269012933274
0,0297839602718146
0,0440974319414046
0,0504111888795988
0,0455043342595916
0,0283242975478506
0,0706698486128948
0,03572543500632
0,052449310483314
0,0253448594020239
0,0533621886046047
0,032427581876708
0,0504293495654542
0,0298666609356382
0,0463040577628489
0,0307822571823835
0,0461278108435834
0,0266036746752917
0,0662482119622113
0,0400401670343842
0,0966518071016806
0,0317936264643741
0,0671460418329285
0,0797153802720515
0,029133620829516
0,0665125845062417
0,0504185767332772
0,0399256825400408
0,0417308053917854
0,0363014936838099
0,0490202809716445
0,0397792148946034
0,0445653769535385
0,037161418627141
0,0847991126766103
0,0219354716089325
0,0474744826714007
0,0282937946098047
0,0490160973041136
0,0350410005194908
0,109783555540542
0,0272626161566442
0,0583072992046634
0,0450260862535513
0,0500415642517407
0,0421308275954402
0,0877157246682935
0,0298836702334086
0,057044775238806
0,0262221547966474
0,050163060873626
0,0217702188722221
0,0750888890511211
0,0472461868006843
0,0413463840499158
0,0376227884684849
0,0596641037297233
0,0809206664226584
0,0614342866063254
0,038469289491072
0,0485257604912367
0,0350735322525716
0,0750488746845111
0,047986337428143
0,0560036638906231
0,0426541124855202
0,0660459720980857
0,0139302243519856
0,0469084149865341
0,0275690274746012
0,0567206244877404
0,0471370162175267
0,0482888359248377
0,0500949610612511
0,160570135309224
0,00927801014555488
0,103596645745617
0,0386612301634904
0,0416473314653297
0,0473328875627405
0,0309352193538554
0,034769838671787
0,0359247116648208
0,0327766202689765
0,038397417703525
0,0747777135846188
0,0359494577863214
0,0310622079837647
0,0723781394704326
0,0459259836694548
0,0508749368620337
0,0700666731638076
0,0840771973107577
0,0155444254043003
0,0814367865765999
0,0449046419974969
0,0373876649368696
0,0307575270907438
0,0771090712469477
0,0259646563462598
0,0416640276561765
0,0385892061608226
0,042699698960454
0,043433957794559
0,0627160919386451
0,0302576960068622
0,0503354526015935
0,0280509589992256
0,053448318850947
0,0640211654419739
0,0769501214937698
0,0234499942291931
0,0513088731051112
0,0336189468752525
0,0545303209412418
0,0661534578161967
0,0306050679339101
0,0414984029492879
0,0371382943196596
0,0285941450525201
0,0413012047164543
0,0288039904047891
0,0434947770274649
0,0308185963801793
0,0658539613168138
0,0589323537543478
0,0349886893995761
0,0415393081269964
0,0433337208010517
0,0425655912498147
0,05389481147497
0,0721135810839549
0,0402252459707537
0,0431694733496954
0,0423096559670419
0,0474014303160337
0,0569229418562299
0,0433456102440013
0,0467965045577228
0,0318577909148831
0,0399480593800311
0,031087202780403
0,0449689772017527
0,037743584211777
0,0370603454967436
0,0297061634130445
0,0463899378476581
0,0310863599108925
0,0435807170845583
0,0412625441903086
0,0399903412349521
0,0356795830796423
0,0407887379174571
0,0306848549292194
0,0739318169003983
0,0312126295002013
0,0421215883229424
0,0406835448258282
0,0374125091642821
0,0318252639124636
0,0405960931797399
0,0325537321955579
0,0458799198594623
0,0370288293763779
0,0632386018840221
0,0476069494524163
0,0287914736703562
0,0407950864949464
0,0370125605638677
0,0764215683632379
0,0300306491546334
0,0420649980397299
0,0344533893651471
0,0461732709378418
0,0347106967769129
0,0551821057790869
0,0575253364172043
0,0298369687946078
0,0483805114862922
0,0550827324544432
0,0398970030370202
0,0423563922528491
0,0538905870522166
0,0659857158628027
0,0749092113538612
0,0321836873040727
0,095315259361522
0,055192310207336
0,0266066083003139
0,0507726039475999
0,0418810751325416
0,0740909375799198
0,127128721189566
0,0367884334951467
0,0413132908649761
0,0470218089792479
0,0528394378434955
0,0272681975830943
0,0674669049030111
0,0411484403600223
0,0857227326600387
0,0608526416074967
0,092786264942556
0,0495681619729275
0,0407422102313892
0,101172345959825
0,0339191622039104
0,0474637002430751
0,0341172138968151
0,0343866056570561
0,0417032926753325
0,0622075075613217
0,0428228600908064
0,0608257923053741
0,0363852883282585
0,0643304799510802
0,0635752727349702
0,0393902236511091
0,0432531819009223
0,0503489074710877
0,0501360390082951
0,0336536273229812
0,0396974140898379
0,0305793553034078
0,0547708436764182
0,0334897604949365
0,0751672470384147
0,0712936098135501
0,040857548073055
0,0514442270751515
0,0560078788573971
0,0286656372696974
0,0416729562033533
0,0418351443742288
0,0469253486192882
0,0392569849760194
0,0466716322243893
0,0461097276919083
0,0611958952045963
0,0262633484038085
0,0502601568702011
0,0320452124097723
0,0503736178398783
0,0408251950368973
0,0473418993889667
0,0320517323468293
0,0441193211187302
0,0366515608538148
0,0480865978969395
0,0719706141150457
0,0627823183349442
0,0503021880747675
0,108039232046888
0,0340029049357663
0,0506542163538022
0,0398199310361043
0,0434571049403991
0,0411672913593043
0,0481495034266004
0,0409468835623479
0,0489735801025996
0,0568604992623542
0,060942406259962
0,0412726362382908
0,061633402496927
0,0807607923541662
0,0982142907557464
0,0649523946828935
0,0549373830495402
0,0473270304027817
0,0527995123461347
0,0893090435329365
0,0456840274323335
0,0757922566988087
0,0597355771079283
0,0441347993279927
0,058660393431845
0,0354815100070973
0,0542278891815486
0,0425757148378611
0,054134772263891
0,0415696942894755
0,0640524044610934
0,0495015034916782
0,0678059011409376
0,0440199015769386
0,0796240371954901
0,0648374628434056
0,0550066763322837
0,0488039352944452
0,0672450637990431
0,0614407638462561
0,118820873297777
0,0720779549459086
0,118827927442892
0,0710685880663549
0,104567730732786
0,0797029680003536
0,0660414391380207
0,0713171334084121
0,0644300923736198
0,0689316763903475
0,0731891860238704
0,0667340667789496
0,0684686799484446
0,0676903989142203
0,0747735984994355
0,0678879361096339
0,0784680559398884
0,0733968322079464
0,0808838571184541
0,084690197547787
0,0673284916558083
0,0846902429987155
0,0861776211336546
0,131487327319759
0,128491415173642
0,0955915080487213
0,0782802583915089
0,0938118955415652
0,074574547908021
0,0815703738581013
0,0891184380685112
0,0856220495234601
0,0991761699591865
0,0981544602793946
0,118905279955361
0,0974394142397759
0,124125052413658
0,0958910832597638
0,105750204795428
0,114163866998786
0,103008438917467
0,12709048656064
0,115852850720979
0,0971881370771235
0,105965572847604
0,130277227282142
0,115305719621785
0,11808304591806
0,12061252150614
0,0926997702853649
0,120679136913247
0,112807677197828
0,124188026620698
0,103909574602218
0,143182038870433
0,114558610859393
0,128358476384563
0,124699756676504
0,131958508290604
0,13429464906913
0,153786794656874
0,121560073238378
0,141299714937039
0,138874698741027
0,131566138739236
0,133231531696125
0,143951574244691
0,181397216129389
0,157511638614957
0,163629013882728
0,156091957583512
0,129045271764484
0,150642159297366
0,142250849634593
0,164030505258958
0,140253567972991
0,176813265447301
0,157713250215127
0,15684679958995
0,150629075613483
0,170231192175818
0,162451561097283
0,163121791576803
0,165452444912608
0,171995467145184
0,167385346776977
0,178245629338602
0,175769430827215
0,181092406931456
0,213317516911291
0,202106225236188
0,20426699858557
0,205076058866288
0,185055784897042
0,208343215783228
0,175678180566903
0,207168656892863
0,197723765096307
0,215326860859165
0,186826003839193
0,211122773371432
0,20219718233676
0,210253943811753
0,19910716002476
0,232007873756116
0,200040461856865
0,228546589568341
0,215041726673647
0,23464705390222
0,215895755095885
0,222690209738712
0,225525825627663
0,25542402881182
0,230687916561753
0,25915444328632
0,226046464627335
0,239333847065884
0,240551199253708
0,25311292988729
0,230575944891543
0,25759401594867
0,252901822104776
0,260525920753082
0,269206784031528
0,268954488852463
0,252636881859322
0,273831873545245
0,269424956863575
0,272473811877543
0,281291777077458
0,281773025910094
0,28472730136615
0,306973824883466
0,282612986379114
0,291750060456379
0,269529760071268
0,305205646720101
0,295487573024461
0,309682703565054
0,300604773576647
0,305065477513308
0,296918841698429
0,306790372369677
0,30261699618219
0,323343059540819
0,310168252365748
0,329950673334943
0,308235081374417
0,316714753007167
0,319102925329492
0,340410183899175
0,331307255153941
0,355009554801112
0,322207641803648
0,356774579842912
0,34519033754561
0,346163677556175
0,333606730447687
0,334074835450803
0,352162262464017
0,365633946297002
0,366389546178621
0,384013558306978
0,345328790307361
0,377314982873996
0,387894661037684
0,378325542927803
0,367667475783226
0,367370482127336
0,367693322373155
0,386696152368362
0,378043945021518
0,395467560878857
0,382022238474117
0,394560448155038
0,40956001619866
0,393470175428516
0,396268708526095
0,406290973774574
0,401616419672912
0,410465624472605
0,392605456353082
0,430228665403277
0,401525468489647
0,422586618254926
0,405281874811425
0,434083940305453
0,422299912610008
0,468709097584211
0,424236441162265
0,443205924529834
0,433156249549954
0,457938471141252
0,441207630887503
0,453125621141903
0,429078297686699
0,445393160815249
0,446499232688158
0,482388440707923
0,463060065849933
0,471168329619116
0,463694560863759
0,476079850328671
0,462888898010327
0,477770926410474
0,47140927971273
0,486275983518676
0,497602484645747
0,498600953375739
0,486887373680648
0,499791281408489
0,491064010719851
0,494274344123488
0,506356942930559
0,502742216177019
0,488763706260402
0,506424538833776
0,493372064776837
0,522380973896861
0,50740108547909
0,526293482988035
0,511922635019644
0,53239959212584
0,518167385066932
0,535215610907209
0,515439071364629
0,531835968166607
0,551703896517896
0,529636033178198
0,517314391360873
0,543487012951919
0,520434318599028
0,53551146179263
0,531796664093791
0,538210666264144
0,552363300687613
0,567690543090223
0,540573593530263
0,550824439619415
0,569185844746647
0,57054745291118
0,555076751923438
0,58527442989476
0,615117080460753
0,593717477355367
0,577516564162604
0,581664199885542
0,56203182664812
0,583835805699386
0,586360441989438
0,603043382952267
0,578558272570747
0,589112937517987
0,593034302748655
0,62026057070052
0,591774992483804
0,615357483319594
0,587364232130514
0,60981515527048
0,594102695209504
0,597837166414579
0,590763261996651
0,606927001887366
0,602825033282212
0,610952707205694
0,615730055052644
0,632218209034799
0,598533126410149
0,618369082850015
0,612822285328929
0,599895727003996
0,621798581358134
0,651722433950114
0,63520050891891
0,627634066411745
0,623341368184856
0,630868835049803
0,628004886171808
0,638823043457674
0,616138457808046
0,653165580782346
0,6684326630493
0,667642205344942
0,665308133899013
0,670968933085984
0,630454093810407
0,646274383288919
0,641158110253938
0,6555973102527
0,653894363544839
0,648590147697837
0,63465082612909
0,669078252785557
0,65782818824674
0,655431290689114
0,641787010669592
0,663878555662677
0,643273664095119
0,679310011481625
0,677372922982871
0,660481307962638
0,647627625745252
0,681749393692855
0,660712475333741
0,654052131093794
0,665378970236467
0,67754995147475
0,67636935710787
0,668449424754801
0,662431234386221
0,685206409244046
0,65868928526914
0,675485933108196
0,675398447414419
0,688236591672209
0,672125435285223
0,680266174323938
0,663077957657034
0,688750528138246
0,68662229641563
0,683101781809877
0,676346499789482
0,686393215651326
0,689098250682054
0,681662345971225
0,680735758365654
0,702244347512989
0,671108494789576
0,700667117836355
0,678279965727529
0,677219399041359
0,689098991210254
0,695249386457305
0,695094856742202
0,697813420104692
0,675028484697404
0,686289784232397
0,676453544114895
0,69311186056274
0,695563909621177
0,696627472121771
0,692998440655689
0,702373445197561
0,693040471233525
0,695903110749902
0,686779573650037
0,696888800053535
0,686699779599999
0,693434501484569
0,667007338368272
0,68844265591449
0,704435477930743
0,685770201442996
0,673096768010158
0,706502002656303
0,687065536853583
0,680977911608103
0,676366385864254
0,694672891513495
0,666144181527791
0,695620103009982
0,702095403545389
0,703001355436766
0,69268857232619
0,685202139344673
0,688742055521315
0,67372575273959
0,681188997788435
0,70283213470782
0,670430088797312
0,681639292210675
0,686687197751945
0,669070604228508
0,678918204248751
0,690889468529189
0,694436478411592
0,686891308843231
0,675216733506132
0,68521680792108
0,680793602169729
0,685064031567796
0,682388603081571
0,692416752474054
0,675724360393281
0,672848360570235
0,675995414188284
0,671478552653257
0,672411655969502
0,686523706131137
0,679124773973486
0,684979866867187
0,687631659752467
0,677037074255691
0,67645459951309
0,678537481957467
0,666561291268167
0,675497858790315
0,676539946372205
0,690660531375985
0,688175577650865
0,687795493955653
0,675568351545335
0,679583562650606
0,674425554456392
0,682702953011729
0,680445458016294
0,661415508082937
0,669509091067623
0,656872909035878
0,677444097663858
0,664441080954669
0,661721704517574
0,674331048301456
0,654055345325719
0,659261842537093
0,655191321497391
0,658667059312015
0,657225593773912
0,648661097932155
0,646801339259637
0,658548183970417
0,651291209759327
0,636648799781823
0,643187756968674
0,65851262214152
0,653040191481179
0,630633005241515
0,643711632979192
0,644708063307818
0,623670509369645
0,633854051233934
0,632062387715716
0,627321961586732
0,64505977343529
0,650302963855417
0,637143345315903
0,64412381717549
0,638189782614136
0,620350505070145
0,630656022710179
0,629918765615597
0,633504698528096
0,633219677738653
0,612396365662981
0,61309403330659
0,608291121657893
0,612810591782309
0,626367273294967
0,61442120421607
0,60925721638861
0,617325915155049
0,620498652685311
0,610733912345918
0,603522371220969
0,600920233027704
0,617181403266665
0,614988947964944
0,587713200394635
0,595348342839216
0,610652843093401
0,600480166631321
0,602924727671509
0,592959420893128
0,579420576648152
0,589062535268682
0,582866230832334
0,579983853144531
0,586356980523173
0,579008246207246
0,58011481669889
0,569445982479635
0,572444493585801
0,575064734187071
0,56472178627245
0,567170056271137
0,564068039585142
0,55876221243689
0,570511000312882
0,560897864504476
0,556698549708285
0,558780729249108
0,5602804415608
0,557077141548451
0,561653534801288
0,558790154456628
0,554416599051303
0,550483230810087
0,55692380097025
0,543395614348094
0,539685661027569
0,544079112899751
0,542428587872062
0,533784616216286
0,5161547069984
0,522874455512586
0,530669442834885
0,518293653140852
0,527664558002182
0,525658744626667
0,513526378173974
0,506477963176525
0,513807131011918
0,508774590930108
0,510290810563395
0,512284888928303
0,516155746920221
0,50394735588445
0,504404544085822
0,502485705750892
0,50476220229979
0,499791042348759
0,497460492097502
0,491782854814819
0,495777500070247
0,486384850098578
0,479338105753497
0,479630760963451
0,488386512590582
0,482967038747735
0,479690862153548
0,470071615809944
0,481381455285166
0,488153910192578
0,471183775663619
0,465674778089054
0,479515032431904
0,466083721634644
0,454215736835755
0,452174850774588
0,450481257500043
0,448598675120588
0,449643304668999
0,445456016390064
0,447897262965137
0,441990568704047
0,44379174029473
0,436995920581813
0,44591219501549
0,438871035883168
0,43633162325884
0,435673024668766
0,427414072295445
0,425360429201618
0,429402634400141
0,423008201949267
0,432120560838356
0,424828667231124
0,418254741019732
0,417344810848347
0,415159353401417
0,40736320404842
0,415869463927315
0,412168213866664
0,412178554237529
0,408053598387265
0,412938093502695
0,40251487295884
0,402782582552462
0,398271705738508
0,39427904775364
0,388235993678561
0,389898825916683
0,385856099479375
0,386372247666048
0,381217620842287
0,384196076716127
0,384422241660788
0,38648940365603
0,37782699288773
0,377043878525022
0,368451697983643
0,373357029552713
0,370682984365226
0,367183880361241
0,362320687080185
0,369279316853491
0,359151141930777
0,359708244628715
0,356559092060404
0,364792383976283
0,356616379238505
0,35590364655758
0,356914207050463
0,356514359097767
0,345640609164623
0,350814950649515
0,34680872587852
0,3434237960427
0,340928054516463
0,34813129601345
0,340131890964365
0,334856064469219
0,333988613494324
0,344439539603413
0,337458689088027
0,329775651592907
0,329024371886254
0,331569978725685
0,326589652806675
0,331246701255081
0,327106169455531
0,323234653517863
0,315313611879078
0,318908000874434
0,311213489555981
0,313345724989923
0,310796875018918
0,317118103323414
0,310075104386601
0,308848699675853
0,31016988707638
0,306061391611468
0,302746805162473
0,302386240418284
0,294799030915107
0,296867247724137
0,294446582950528
0,293638949070332
0,288115296073336
0,296462372461542
0,290412169392791
0,290887748967745
0,291337197167237
0,286784985084136
0,279716882047222
0,28993768894713
0,284411088584716
0,285978890475765
0,273252682778333
0,281880296122146
0,279524398536487
0,273445419299463
0,26921775009534
0,275157824147907
0,271129693965951
0,271569745856805
0,267853712274889
0,27551319013875
0,267481250235027
0,263779339372237
0,261003675175379
0,263634761245231
0,257303887519775
0,261679641442342
0,257979594153322
0,257768023951011
0,24655940785596
0,254535191396525
0,248709446341228
0,250145416687906
0,243964210288788
0,254147787024292
0,243306018744074
0,245398016370079
0,245103894340207
0,247579973898397
0,242216706093
0,243331008146694
0,234647025185918
0,240277634886842
0,231584619371484
0,233456040740091
0,232546097234885
0,236590916709646
0,230416658059191
0,231301175789195
0,225722632026427
0,226867168235842
0,219988838024111
0,228283303614739
0,217799712841518
0,222469698843599
0,217953212730442
0,218754707423727
0,217992132157933
0,224419740582231
0,213831146347677
0,220906398609816
0,213756301469699
0,216650037119293
0,21137380329267
0,216008502110966
0,211338661877869
0,212796345496252
0,205764280480811
0,208809193005829
0,203889471347779
0,211918048861775
0,206771059499334
0,208966989890912
0,203545198318514
0,207650469629763
0,209235504177616
0,206169881686434
0,198285848728515
0,202393018114389
0,195707648343306
0,199319857094791
0,195886245676727
0,20762196260418
0,199112022325058
0,200119563992185
0,199295309352391
0,200890582542981
0,194341711451863
0,204739324273616
0,19606973465012
0,197966066677765
0,197817841307506
0,203606346031897
0,192805844175054
0,205564075853679
0,199211973278525
0,200812355272848
0,195548755386859
0,201371824340714
0,19862338875776
0,207359578059089
0,201766155884761
0,21291724522043
0,205269542149013
0,210057235724317
0,207394984448518
0,21364391548753
0,205986815376249
0,203194608757662
0,211287726685945
0,219094594559182
0,208634379499919
0,218195741219643
0,213848193577281
0,216581908120019
0,2159032407622
0,220639211109135
0,217167477122922
0,225783348161715
0,218920760628943
0,226317917993345
0,219400205787613
0,229057895375656
0,221802880437105
0,228449213440655
0,22410723221367
0,233962646075311
0,230090321538414
0,23800904060814
0,235814315131861
0,240333776029874
0,236619797565446
0,242995415507711
0,241754253730013
0,248334058918209
0,239718603438001
0,245004999030729
0,24307508593585
0,248843968917625
0,25112275694777
0,255328449112459
0,252232410364558
0,256703755750141
0,255316238294932
0,26829540178535
0,255701448696861
0,272130276634937
0,265431213179744
0,267723649660668
0,263832295704223
0,271171728580728
0,271664124642764
0,279502689326409
0,278355182982717
0,286070842701943
0,278040980052136
0,286071573924315
0,27656505614262
0,28521219587673
0,274690978194276
0,276744294179355
0,271033405909193
0,284497239916929
0,282603142442964
0,291092493752693
0,281403031995061
0,279344786786719
0,279965246884495
0,28154241058794
0,272675877726539
0,281544065240228
0,280116462695588
0,282544218006194
0,270557740914373
0,282415642755335
0,278580712733275
0,278141731465919
0,276645817469404
0,288516225543373
0,27523587055701
0,286257184668718
0,277913690316187
0,286380065817121
0,274467242211856
0,288422319539088
0,28062187125448
0,280251180966368
0,271698726633492
0,282216238594645
0,278761809360608
0,287278130806719
0,277013323588957
0,283585182193976
0,282165520752153
0,291403736951236
0,281104717838065
0,284041516180501
0,284393105191756
0,290489920188131
0,281108694685258
0,292565840015967
0,284333557209138
0,287506427746889
0,276996045235027
0,28596917443165
0,280064416916025
0,280715160446972
0,273724262661741
0,281531892929489
0,282311810153058
0,281526103787723
0,278460405051033
0,284032464533477
0,278223134294483
0,279725809630634
0,269160245384207
0,280642097864633
0,269077657563609
0,275952672674071
0,272227446935415
0,271179236762935
0,269853539827747
0,270381188045622
0,26753403639738
0,271108354452082
0,258350981237865
0,266442766210931
0,25912560551389
0,257029834272659
0,249971964923398
0,257870800799757
0,24719405878745
0,254088143396113
0,243308042445573
0,248185820643686
0,235491503296473
0,238070075421801
0,233490292663127
0,241016271769632
0,231094969625087
0,241235666734768
0,227765831155716
0,232812965934986
0,219402825625276
0,224670575829476
0,216119974629873
0,222066703292929
0,219135847945034
0,21938528789938
0,210507709224047
0,216806664992803
0,208802252925345
0,213738862251248
0,200845100430802
0,209616887544302
0,200472896923924
0,208523165200276
0,20209082402255
0,201318301877665
0,19539592430559
0,203802252676156
0,197060129765568
0,19958235747037
0,195635701714579
0,197896469885844
0,191776638212917
0,19997377847857
0,18941394131174
0,19100814522358
0,186341117538538
0,191868707126963
0,184006448490205
0,188588279993517
0,182834691929007
0,187671666308945
0,182707029410846
0,183871622490468
0,173448048815895
0,181200672546845
0,178819030673459
0,179940049406346
0,172652973249451
0,177864184150648
0,170756172409216
0,177613317422197
0,176990540083305
0,175147791256356
0,168801452863271
0,173059275748147
0,170283811795608
0,17258988801288
0,165392073810984
0,17221916138347
0,166632680730963
0,169664445555282
0,163645665778255
0,168215265676933
0,161098228246767
0,168668553294571
0,16087503020988
0,163197328863447
0,161454805989856
0,165350239373688
0,157712847780544
0,163142418132028
0,161003096372592
0,158381500392631
0,153379210667575
0,161811225090118
0,151997286672037
0,158773214355241
0,154920518001357
0,15579696623759
0,153699344151601
0,16227048633434
0,152690880575346
0,15560553784393
0,147628121238632
0,156963782066071
0,14943648746085
0,156016962603145
0,14927270981934
0,156560748094051
0,148307008555914
0,154210032478886
0,143808070683663
0,152500730817534
0,146870498955795
0,153556691487264
0,145494714587039
0,148047127866596
0,141805042581083
0,14891051056692
0,139486285010745
0,14462667410514
0,140221017303918
0,145312089436575
0,13726603227726
0,143966384246997
0,142590640751508
0,150510011595942
0,138415269549125
0,145096592517583
0,136709422683862
0,142168779555673
0,141501551841094
0,143009029769628
0,138102561788271
0,143712957070972
0,133244441518923
0,143047349128217
0,137447049332605
0,137521292276161
0,136754420918617
0,141838667649611
0,134392458928789
0,136955685863641
0,137632546047135
0,142109808562179
0,132706199641838
0,139171897952037
0,128562866873253
0,138158701836147
0,130367038006875
0,132349673314987
0,132852363291707
0,138295521322815
0,133266518286526
0,139071313777651
0,131128454020811
0,137621962485636
0,132235231273992
0,135630631210948
0,129990678439328
0,136582697463254
0,127510088519964
0,133783084987305
0,129509222912604
0,13605772705261
0,127500965392861
0,136064903375183
0,130201789140849
0,131617958946846
0,128110411965788
0,138156998305963
0,12770609082412
0,134037785353927
0,129882565443464
0,130465568817659
0,123573538327812
0,132921262944007
0,12848989601754
0,134922060781081
0,124751178019252
0,131523315488865
0,123886813932569
0,129254700698276
0,124892242169365
0,12851202241337
0,123049289786389
0,127032353056547
0,123255157438484
0,1284674877468
0,122906901769972
0,127990099325894
0,118309023637838
0,121763472726515
0,115133568374188
0,125698105768194
0,117245475294257
0,122730195955411
0,119654897328669
0,123295552320097
0,119817559842045
0,123489393142475
0,118439362201171
0,12311838379752
0,114315115160554
0,122107659020917
0,115736373540523
0,126142819115981
0,11321907581322
0,122327951408573
0,115803482424323
0,122118046860997
0,115304181491694
0,114703760015769
0,11328400373619
0,116900458955099
0,113236655499054
0,119052271251409
0,116868021828178
0,118588501461843
0,112646010254316
0,118104164173025
0,112730670851486
0,11171495756605
0,109101835824204
0,115688109462408
0,107510493771664
0,115342923732098
0,103998715316105
0,111645627517907
0,103862387685399
0,111236697106515
0,102790232133881
0,109033228682803
0,10451334711876
0,11214919918636
0,100405904863845
0,107837896141832
0,103953653861662
0,110133025996164
0,101383686303933
0,107221179233173
0,100722701947498
0,106713686186711
0,102794484144777
0,10790348460307
0,0982064316823417
0,106076441938739
0,0976366035796922
0,102842672538166
0,101367295780116
0,101867230336782
0,098546942860228
0,104266044329659
0,0980029186566725
0,10203378104918
0,0971924600612624
0,0987301057572365
0,0953931381687623
0,0962326896532586
0,0910668244150391
0,0977948388354643
0,0872629560294978
0,0972959693550824
0,0903808378791577
0,0978285834422394
0,0916608057808101
0,0975164551856018
0,0919775587890148
0,0950440668935952
0,0880530639956899
0,0938680620487432
0,0942103256648436
0,0911747230997433
0,0891289145141658
0,0926188888215537
0,0922772338358408
0,0936452504748694
0,0878821368597692
0,0915753281181793
0,0837661282342431
0,0932800003477525
0,0845336437699415
0,088933624188779
0,0850155254402783
0,0915817947861398
0,0837720715949499
0,0932962173017255
0,0833474269528831
0,0915014004613321
0,0849371963227659
0,0854156077182546
0,0837396331428803
0,0863521377703151
0,0827725958732236
0,0853009174009869
0,0788097096056785
0,0858281199233372
0,0818724910648689
0,084119344918761
0,0797648890605339
0,0877116097898632
0,0825030756157637
0,0854596779167768
0,0793841244311716
0,0848570384364152
0,0759015244658672
0,0849887790565564
0,0822069720405986
0,0822704071215784
0,0787696469863455
0,082396130938032
0,0758212403025181
0,0820023024267798
0,0761499506753852
0,0815399236999672
0,0771293550041113
0,0791459764116834
0,0742553399656316
0,0796556104369494
0,075569687809751
0,0760382735213749
0,0768400280435381
0,0801562863975919
0,0776243811157385
0,082815298696888
0,0757227971712769
0,0802380583746811
0,0752759003106442
0,0796888015318632
0,0728735718237947
0,0786070574679634
0,0711685533185665
0,0756833819062074
0,0713177481694074
0,0775529700758987
0,0747658976861909
0,077504305735554
0,0717416390366623
0,0790331938896278
0,0726880548159081
0,0755010542583915
0,0732213100667737
0,0736327450735347
0,0708704173893048
0,073910057536771
0,0730045639443217
0,0774987846662115
0,0714882033656403
0,077470837479945
0,0708381765161217
0,0749542676109205
0,0697391188212413
0,0729521063202192
0,0702167202242921
0,0778334682037451
0,0694043221538503
0,0744955110551153
0,0695998572319957
0,073233419694169
0,0690833143616226
0,0727750274961223
0,070288189029616
0,0704583434073095
0,0683804333489292
0,0717551074344977
0,0701135564082467
0,0707408065862944
0,068280447826266
0,0722679257915845
0,0676090138607635
0,0732197583302499
0,066388030309642
0,0690200499893186
0,0684528022200846
0,0720209285234926
0,0662920426007173
0,0681353800920779
0,0642786804632963
0,0705179785208726
0,0645595619992847
0,0704688462817848
0,0658748220848195
0,0682036826649615
0,0650689943126953
0,0700583675039667
0,0607922622725339
0,0698049043703591
0,0639050826720104
0,0675997842280479
0,0696026831446316
0,0674966371615269
0,0658443901504166
0,0659395943972753
0,0644754529389158
0,069231646331531
0,0599405090651687
0,067477475622906
0,0625126172358994
0,0674601173674786
0,0661282860639249
0,0699222262017987
0,0621343902749065
0,0661818964987201
0,0628471592038165
0,0658022740215777
0,0647247270525057
0,0676187912730021
0,0618207416804507
0,0644338242178171
0,0634958759794306
0,0655909756572999
0,0578669937327538
0,0622356660192358
0,0632636575832134
0,0637621608512897
0,061996872105826
0,0648924250722613
0,0588524874785029
0,0643276070920515
0,0608470690898546
0,0616742763028466
0,0612051377421666
0,0620885294550856
0,0589830937926458
0,0621210153509013
0,0579861471209276
0,0620085080871654
0,0561357077329481
0,0621305933452658
0,0575826452672267
0,0596185582849708
0,0571205134692603
0,0615437487928147
0,0565170436534594
0,060958544595132
0,0594228228573536
0,0601247919454697
0,0592030798975549
0,0611034257540197
0,0520089652290591
0,0594823230962794
0,0551720520400403
0,0600243586386265
0,0569481620920071
0,0580921163553276
0,0547600692014195
0,0581599976567137
0,0522600018091467
0,0579453294121847
0,0529268946098596
0,0584101962958504
0,0515945600014565
0,0546873484242752
0,0535111728123309
0,055777132254408
0,0535806666830702
0,0574463672110396
0,0519060412822095
0,0546693620941964
0,0497741771174806
0,0555973808793801
0,0528149765910988
0,0533446501138096
0,0531030426538882
0,054966936443399
0,0475913471978886
0,0557674663784538
0,0502337392378599
0,0551303930886254
0,0497438012833019
0,0532071709741709
0,0487064944611406
0,0514073906570595
0,0480591241860089
0,0507869659532769
0,050333613277132
0,0550283513683858
0,0491087206739477
0,0517242321936357
0,0456091013702202
0,0511024749178507
0,0482706979454129
0,0522912796104539
0,0446395665797149
0,049683638291592
0,0445991940770823
0,0521128613574273
0,047469285540805
0,0497859151813837
0,0443305341759492
0,0497110234625057
0,0439530018227477
0,0489563756897392
0,0451121294402909
0,0491623066515784
0,0448913737594241
0,0495758540312168
0,0463484183635313
0,0494501603786479
0,0459869827622665
0,04743407668981
0,0461979577643486
0,0485795563483464
0,0441190323877722
0,0465364636073959
0,0415744061096479
0,047196585124702
0,0420696021034058
0,0476459138116567
0,0410015093617889
0,0472675504756459
0,040838096930285
0,0479711886598262
0,044379853933208
0,0448815140842426
0,0398070722414499
0,045440757414488
0,0427613647371512
0,0440322431030764
0,0418424121473756
0,0436301633055274
0,0423424018807663
0,0458969351180416
0,0391691704769227
0,0460761620650089
0,0418182917586785
0,0456710358476855
0,0434021008296701
0,0430584381091239
0,040438630844181
0,045766518377747
0,0443355497991905
0,0442806616535297
0,0419437606398049
0,0486457429928678
0,0418445069880165
0,0440419386388212
0,0441736139000848
0,0467730429391749
0,0440610034820317
0,0465727017736048
0,0398225477532483
0,0448299581378151
0,0405103455268449
0,038214896477572
0,0340469525302314
0,0400090496141694
0,0394075695625348
0,0454810073103544
0,0385637782879449
0,0374462996017314
0,0352199059287753
0,0433610762556075
0,0341919668243032
0,0386833994643161
0,0395917651613339
0,0429631584819841
0,030343026916599
0,0424815705310593
0,0301311706752013
0,0421171210822107
0,0318168074734981
0,0414868418608401
0,0334450800641537
0,0394359438178108
0,0380103434112347
0,0419317999717416
0,0375146705817464
0,0444215005772252
0,0425737781409766
0,0422348426057288
0,040756364581609
0,0418656649099466
0,0364151121055349
0,0414349991463177
0,0396865358810708
0,0412018175666911
0,0389568217723324
0,0418491376015199
0,0382488797649442
0,0419926819754847
0,0288537319457521
0,0407582591932584
0,0255611438732808
0,0408385716682308
0,0351057405065743
0,045167681438005
0,0329427124348532
0,0419770823484202
0,0229476109402154
0,0440665781937155
0,0323168271533395
0,0497890732302528
0,0238046525534192
0,0427980514516507
0,028202797260352
0,052465507857698
0,0241440564244487
0,0484554411078183
0,0270124578325133
0,054398389738154
0,0269013957188631
0,0440277752709538
0,0336985790805695
0,0466162414058489
0,0326389835688972
0,0444596889188275
0,035211567616267
0,0404165082127071
0,0385623091928681
0,0376539775681335
0,0381326174573009
0,036927082349916
0,0398484925379016
0,0391347270600403
0,0356417557822215
0,0376649829189956
0,0326339588519724
0,040388639302683
0,0356807064655854
0,039726825731397
0,034005789503232
0,0357354860783995
0,0314669317764539
0,0363522045568319
0,0345401869226419
0,0386715453288006
0,0357655977418386
0,0368375231746982
0,0347208479943494
0,0383017435686446
0,0343952465366975
0,0386967771290112
0,0336333410324647
0,0374066332570923
0,0327721119166053
0,0372657339875283
0,0333052982297612
0,0371279154093229
0,0323678400699169
0,0374960786316314
0,0332652029242442
0,0392060422196509
0,0329242492079454
0,0354457481027746
0,0362648270355887
0,0397645531207217
0,0328240707987972
0,0367542540523543
0,0354705340924174
0,0386948397247876
0,0319360435312127
0,038429200687089
0,0350974900600551
0,0359303315317784
0,0330634007902684
0,0356607320453475
0,0350887129748981
0,0385267866392067
0,0333576066492095
0,0361040941850799
0,0320651170856557
0,0363434175883807
0,0319144554997167
0,0376708822399976
0,0335827462687364
0,0369248868344723
0,0340933607871695
0,0377675597128413
0,035085811745914
0,0352359066024654
0,0369890448833324
0,0374134849192003
0,0331747492044824
0,0366774589820913
0,0342540650608871
0,0388562912426535
0,0349845752059436
0,0340010559865482
0,0347484899417852
0,0369517019832484
0,0319671455262946
0,037080223286912
0,033029533867645
0,0359504484050029
0,0333726544564626
0,0353692048627518
0,03418604286501
0,0341242121876531
0,0316520411711353
0,0363494305679645
0,032879038021623
0,0392297117361185
0,0337608075716787
0,0391745699625238
0,0350544692839376
0,0355002988769836
0,0343026285911759
0,0359249243585641
0,0336353211538665
0,0358463453520624
0,03479610417376
0,0354714689171961
0,0337521372218342
0,0332354182663356
0,0336718293652661
0,0364025627209192
0,0328006101191819
0,0360592683939054
0,0323151335087926
0,036136630042283
0,0326868243649652
0,0353711473733699
0,0326420324422298
0,0366266730717202
0,034723489928033
0,0348545137016002
0,0360339181157673
0,0401252989235735
0,033273072124467
0,0397193127733389
0,0367278634060352
0,0379086169221848
0,03378121294428
0,0372426874028275
0,0322440475078668
0,0390026477543723
0,0337839348683649
0,0372020753644929
0,0343796090396982
0,0391030111026402
0,0339062044837511
0,0376818221685207
0,0331810551336462
0,0384670773254894
0,0356509111771913
0,0369430599865079
0,0328123199068303
0,0353375066908867
0,0319249098598938
0,0368833797580946
0,0321124974683618
0,0375789941476358
0,0344721345458843
0,0358644299119555
0,0345878124344934
0,0379617503616458
0,0331279467690161
0,0391515286030098
0,0322737595464029
0,0365647001535515
0,0369403398578576
0,0380465946718709
0,0361084915974887
0,0364621611862429
0,0338164097891364
0,0372057361554074
0,0342244118613388
0,0370463021245427
0,0330418601548333
0,0379204151955563
0,0359732324685201
0,0356151351175311
0,0349690055931552
0,0370776138906311
0,036057138974413
0,0388676806082457
0,0350407711046566
0,039101614264378
0,0349966382883518
0,0374394457662691
0,0344580682082096
0,0363013048506396
0,0355687287522145
0,0371049746252171
0,0365207961826313
0,035960315738414
0,0354187960070071
0,0374048501975704
0,0359783183955479
0,038163021228409
0,0372025182769085
0,0381235292738302
0,0349004667060485
0,036743954274475
0,0347142340319077
0,0373800225585655
0,0335130094796327
0,0359579389075979
0,0351435209216314
0,0390433954206041
0,0358926700638837
0,0375798986600073
0,0370592461654184
0,0402828140772041
0,0354575089780159
0,0374156526260407
0,0362463733352549
0,0374092516296935
0,0338821584010482
0,0361970691155025
0,034844284769178
0,036968876159557
0,0328172261685153
0,036482133872257
0,0347128772779254
0,0363755684852922
0,0338944607324896
0,0373762344974955
0,0356897340783316
0,0358523728943337
0,0320773290216744
0,0357237125869055
0,035360541701649
0,0348284007241727
0,0342635086324584
0,0352033378257998
0,0351141696879851
0,0359289558018586
0,0349704769840253
0,0369925927346821
0,0312461899342573
0,0356770751084789
0,0344319414578589
0,0362716859758215
0,0324664103781593
0,0347360187490492
0,0360460843652966
0,0360001754363661
0,0316641801669123
0,0341846870866209
0,0318992451811844
0,0345420029276008
0,0319223488548748
0,0350716243067357
0,0333884742323481
0,0346498477457391
0,0332836524155571
0,0333658264881281
0,0329247575269651
0,036269968642356
0,031620296974106
0,0350698310089146
0,0315504071895226
0,0328034678098453
0,0341532301944307
0,0372509694207461
0,03267940372785
0,0347568313906772
0,0344579085373975
0,0340395255626984
0,0319112120097091
0,0341781556700254
0,0309554809269805
0,0342911020049876
0,033562701462222
0,034947147499028
0,0324434083044684
0,0340969687145879
0,0329483173091392
0,0332740501555948
0,0311963401893157
0,0343637386884879
0,0327397441640073
0,0329710637918853
0,0327038153318662
0,0334803765781277
0,0321175097314209
0,0352595220970464
0,0315740785600079
0,0327877457119744
0,032606069662809
0,0347635337941643
0,0316894431181159
0,0331121051692834
0,0318620801566489
0,0343424926094308
0,0302030674323725
0,0360516885037517
0,0314323635715779
0,0339057834059927
0,0313109593340697
0,0346479211617492
0,0318537926646579
0,0336171727162471
0,0317969974224685
0,0335122266405974
0,0313167948409622
0,0347207944162992
0,0305592076874104
0,0327157893402461
0,0314255022198957
0,0342444228029186
0,0326397625664107
0,034945930846376
0,0319820400181001
0,0315227167266748
0,0343808714203844
0,0338507158948413
0,028401453050116
0,029542439545197
0,0312355174641255
0,0342160269354213
0,0311451528887019
0,0323680424918441
0,0307256171949088
0,031070448909489
0,0298853615086456
0,0323340265224377
0,0289408750500326
0,0325891261001905
0,0294331647886788
0,029919495918454
0,0288426850388545
0,0313024407261232
0,0310155601969502
0,0326230765435176
0,0313643905074877
0,0302374043535384
0,0315385537305177
0,0313233324360547
0,0284913928724365
0,0317429626656715
0,0344029241357939
0,034250703127367
0,0290533239551187
0,0285807749279572
0,0273437207743108
0,0287829815148149
0,0305728595769125
0,0289120493360758
0,0296097762839746
0,0307356421393066
0,0279847971820797
0,0294826652065133
0,0281441872381672
0,0288937472799315
0,0274616249479209
0,0292722052911257
0,0280565732633706
0,0297195794931106
0,0279350489555521
0,029419061875342
0,0277082077798847
0,0285285225654578
0,0266160232778639
0,0286982753542186
0,029186894926604
0,0283807994012826
0,0276542947932206
0,0381348690378968
0,0357882183703622
0,0296621031369755
0,0268089538147643
0,0317682557853538
0,0281737211711771
0,029808049964198
0,0253985083297583
0,0292429443761468
0,0255977891790656
0,0296906289171477
0,0253277370144333
0,0290288362213481
0,0268677936703657
0,0284407715260589
0,0259744521587472
0,0270786963090299
0,0260194002989803
0,0273849506045629
0,0267206876501155
0,0275796892531904
0,0256503562623154
0,0280594461733627
0,0283414457165672
0,0299262185964356
0,0244632969705808
0,0319446635717023
0,031051893911784
0,033870615603697
0,0272377327656614
0,0287150669769804
0,0259877120159111
0,0274289354875095
0,0255283002415922
0,0285109844229542
0,0264710709430027
0,0277509912539525
0,0267811816526551
0,0274944787837847
0,0263198982250748
0,0300950953708034
0,0270496597870181
0,0275663050505032
0,0268022793764491
0,0276789605564767
0,0246759440960402
0,0298095189328681
0,0249430445483206
0,0271838083725561
0,0256202818771614
0,028491721420447
0,0248474535891064
0,0286007451322627
0,0367078030317743
0,0305014230610669
0,0329052725283743
0,0232436817511106
0,0270762284868201
0,0253311791076414
0,0275079378903174
0,0266706654770651
0,0273272858115936
0,0243304780214846
0,0274434062024895
0,0263661457853627
0,0283049395274115
0,0269779786957818
0,02734490093259
0,0241745107641633
0,0253485586221388
0,0263978622682539
0,0263630787899933
0,0239006942346648
0,025939483742066
0,0323664904257064
0,0341757187280283
0,0282435643250608
0,0279236437590844
0,019556860877068
0,0384052576547021
0,0331145797407751
0,0303577779711807
0,0236296624001299
0,0255699872929504
0,0254620156816002
0,0228896498153038
0,0270079285157963
0,0245505114075551
0,0334888341112658
0,0275081826877084
0,0330373772675991
0,0255648442932022
0,0285453501616228
0,0247738786652665
0,0289412399590532
0,0250075421238364
0,0274096460388491
0,0232726235408252
0,0268805102774565
0,0243005086589789
0,0243562505087068
0,027202460524742
0,0250206146649172
0,0242793912768442
0,0356692225015479
0,0273932233687524
0,0261280659787985
0,0245141535318136
0,0260287629833202
0,0222424195785992
0,0383086416917678
0,0227634131623398
0,0324901417980427
0,0221544714921081
0,0296842853735785
0,0248484777153987
0,0305597317792972
0,0228477847945967
0,0273063573752785
0,0245101297557914
0,0274130895340408
0,023919288656377
0,0278326074740464
0,0246275812554126
0,0253231508964093
0,0257508452678557
0,0256990387496459
0,0242084764555632
0,023329471724459
0,0279586788418231
0,0215820538288854
0,0334562230060328
0,0443913071968127
0,0367921599650744
0,0416945977397381
0,0267445843958779
0,0299575198520388
0,0243513107329434
0,0295222072787995
0,0226708860194445
0,0305301752945446
0,0217432584335797
0,0275622001299078
0,0211167304128466
0,0303183418426856
0,0218538510828976
0,0304458652387045
0,0216162323516636
0,0281765826966247
0,0203211946910096
0,031328206941595
0,0194506250902342
0,0320520965049716
0,0179152983466114
0,0334208445867146
0,0269018825334671
0,0398154394492175
0,0189410008578818
0,04352332096515
0,046861769119368
0,0296361781522176
0,0393642965088797
0,0226539180909058
0,0307536904415405
0,0238623522761548
0,0271187387504825
0,0296009097113354
0,0294112006477796
0,0254061751587842
0,0264617545946636
0,0250791793081554
0,029127627191761
0,0225237009133754
0,0301181835486891
0,0517440826001939
0,0413012628446211
0,0343940463993317
0,0253168349587492
0,0248110831054724
0,0516002196792018
0,0301317230156278
0,0324007330231204
0,0251548952027565
0,0297552906642045
0,0283123567446487
0,0254054400246663
0,0276490000732558
0,0296160932789029
0,0349429929336305
0,0243767782998858
0,0308032294498171
0,0245495252987644
0,0303706807225365
0,0264941861745016
0,0336976825394722
0,0361806623607289
0,0296239852094826
0,0295533520696901
0,0337049634463789
0,0300468285332108
0,0293969278396255
0,0286181117488666
0,029098623007268
0,0283107392533655
0,0397923673528957
0,029486441786569
0,0434870270997144
0,0381454439528543
0,0304653554038973
0,0309498475426123
0,0324531965488595
0,0400806309464934
0,0307984546678141
0,0317650257658212
0,0623909484169597
0,0211770105060147
0,0699615327536744
0,0248899360115299
0,0431109392020321
0,0205973278956776
0,0422098466628308
0,0176005896337887
0,0480288733586796
0,0335587401015244
0,0374952892702416
0,0260184894663285
0,0305679272720205
0,0395075525063838
0,0351941496088606
0,0341537828697735
0,0329672794238494
0,0295753546021637
0,0383902860114347
0,0458493163023936
0,0275376948756719
0,0533218963038382
0,0380361479449436
0,0595434638424013
0,0487470015826453
0,0232605580647367
0,0561826323173706
0,0277212113501801
0,0431946114233997
0,0317320121448564
0,0321724922790932
0,0340777799770332
0,029393645045087
0,0612228341449342
0,0438841361464907
0,0327172787956871
0,0422404278880419
0,0276536875160611
0,0518651504894757
0,0436970396120317
0,0374415151854068
0,0326944418198144
0,0385859488963589
0,0277106728672316
0,0597159648925848
0,0675598226963083
0,0334408912567855
0,0720601028440578
0,0399406960199588
0,064821510704433
0,0376358539212546
0,0491946843255457
0,0334289216128345
0,0668225025251217
0,0439001077492758
0,0407040292540524
0,0399453944132216
0,0774651010425175
0,0246363258800026
0,0576024777766957
0,0336713662084318
0,0451250175485069
0,0571015893952931
0,0937330860647163
0,0596393771465045
0,0614344845396394
0,0365572227719146
0,0649691112659236
0,0533369818275402
0,0496281851502881
0,0449741949238303
0,0444956243890341
0,0492664210936696
0,0449240409823421
0,0526337083842708
0,0461744854562069
0,0455102050629997
0,0522116193804017
0,0414197667131102
0,0678013441563307
0,0705936725694061
0,104918865200688
0,0427994222629579
0,0779092147788947
0,0619871604483007
0,0696252856079418
0,061057127738932
0,0499023730182511
0,060047492666854
0,0572753592749106
0,0622548893076086
0,0549291500166755
0,0681922063902842
0,075674651458052
0,0600489537071439
0,104809399775012
0,0489218955708779
0,0803169057366154
0,060298649205946
0,152663436946168
0,0492832918037131
0,087721005961801
0,0844521968537488
0,086587202635769
0,147493123576763
0,0690724178401798
0,0934269239900149
0,0838822204298124
0,0842456929462412
0,0881834617701602
0,10224433242516
0,0961485387568652
0,10986615054387
0,112292249430001
0,103705365655015
0,120885568822327
0,150526713898062
0,163719688835974
0,169146023181231
0,114715542029767
0,13523518469266
0,140765168987381
0,136436655596782
0,13466915719887
0,138513623279867
0,129829077007872
0,205131884939004
0,128071557421351
0,165340844981201
0,140163025670495
0,183459143679691
0,152800508080135
0,191120447306486
0,193796895464665
0,168749305369763
0,191018401801002
0,166489893076904
0,194595160738489
0,169955105716377
0,211085678862658
0,185348602036677
0,202587344948767
0,199089957082606
0,197321926720541
0,206122737808179
0,20135140338576
0,2145831277107
0,204826005344619
0,230535785427529
0,237441621994977
0,285652831290271
0,304782084224159
0,20266961547526
0,231987403703394
0,20250507336054
0,255754036237628
0,229823272336473
0,257948526581515
0,261115564420676
0,210366696148063
0,230876356513253
0,214317405253417
0,227755160734899
0,218141799048774
0,230252961458305
0,215074411789333
0,229481401072093
0,23370492538606
0,227047373100454
0,33068216342304
0,194647990113092
0,237213299190555
0,205369644414476
0,226394103004689
0,207393006932796
0,221728804539029
0,201344687615174
0,249981300548634
0,202628432198291
0,228198797950041
0,206388762867122
0,217902916817576
0,240475841099658
0,209240668770264
0,213731336003978
0,201502198775225
0,201787482729733
0,204863095137698
0,192335760233605
0,258902526604839
0,181363296205417
0,20706412518481
0,188924514476149
0,194306546444514
0,191663331996596
0,194021943487974
0,185735129011338
0,201121564822057
0,17773384253219
0,192686123091882
0,184749877652187
0,18519789836192
0,178705688500133
0,183871285693041
0,183433223782736
0,185038582171005
0,18857941533642
0,182323854459682
0,180540954977389
0,177343312144917
0,185271775146895
0,186199690692081
0,178133593558285
0,184818193512929
0,178119923499196
0,184667882828128
0,183319120242392
0,181223809992387
0,184583413599396
0,182185594111426
0,181329868736554
0,178940141621845
0,183315589054828
0,178553142764324
0,180389416021799
0,183158820723094
0,186074511101646
0,17907745550374
0,181698349893622
0,174733056982669
0,183234251770839
0,178492181790192
0,204029148208404
0,238977071901535
0,163440027953314
0,189552107136195
0,163023531238255
0,186618724760711
0,159962550529021
0,191240017524728
0,212856500033356
0,169460694684746
0,173369620877112
0,160805625588637
0,164390210083533
0,194075468982946
0,15701843724605
0,177704467407418
0,153300905781903
0,17300567739634
0,235281143543783
0,151983251072038
0,327142713373657
0,154645119862439
0,17481438588794
0,152208076399594
0,217685002973057
0,145296702777653
0,170884621246149
0,153525748251993
0,160765268820044
0,199338144345364
0,150369248252508
0,166529362565192
0,145343261090842
0,161567853484147
0,192451249814642
0,1727368570294
0,168963097486197
0,196654683418085
0,153838094437376
0,189323817060702
0,205900045145668
0,196310390461634
0,149854825862992
0,141612291370956
0,149170733821323
0,138565965457205
0,171165533620101
0,157608027384818
0,144797023463227
0,15385942989154
0,123363468676021
0,151203047027558
0,133800128335837
0,168445005629992
0,118940987266365
0,178603941322714
0,13259354094784
0,133547807898304
0,162649825786877
0,143134543157353
0,190724056029172
0,149704146039234
0,133886818020843
0,126647333393525
0,192619303810273
0,130096591133462
0,144413512472626
0,130179122317695
0,109895091508718
0,148404690763537
0,116945622144356
0,117354306859408
0,151958061086047
0,1290141511092
0,17146699629652
0,157450572903155
0,193747488141093
0,137581558169442
0,110646443213831
0,115700437777465
0,109416563786218
0,11619625512232
0,11048286427329
0,109215253818035
0,165532524660742
0,0862007420886353
0,151896317805112
0,122525997363429
0,114747996430507
0,113554018445441
0,114811276798793
0,112481979508092
0,127115846290703
0,132227052402252
0,157978912102551
0,109149682589761
0,160011080247378
0,122546497537533
0,133365440224955
0,116968108704873
0,133374468878331
0,118550948295284
0,135315005090001
0,139920082249947
0,134718190801647
0,136171477547319
0,146655473623471
0,136234744771201
0,195930568546585
0,131726445914503
0,170383903282161
0,186084453192402
0,169898806068455
0,216831032615857
0,15366116346864
0,179490219530778
0,164287546129857
0,176594846735202
0,182884806453186
0,172891075944912
0,22136068024965
0,184394039652602
0,189394927571854
0,190250015610928
0,188647939490447
0,195083725788459
0,202246841808399
0,237687038537225
0,201617896659494
0,30020849920328
0,189234872075429
0,242795108694603
0,196544380768233
0,21319688758268
0,221437259740599
0,208949705420009
0,217134426091687
0,205498817390945
0,231642718408057
0,234188251352156
0,211210031623335
0,228962759665482
0,21215889469965
0,219821867023887
0,215432308397959
0,225688312600964
0,224579792344307
0,225576855340818
0,232801479898833
0,222874433903638
0,26426233903907
0,278310196136356
0,222778198161813
0,251117309901191
0,23245498215221
0,256185539844325
0,231962221774214
0,254417857235942
0,270400551012898
0,245538397793321
0,25652329334268
0,247544425583986
0,252364810666238
0,250202879396191
0,272521001290048
0,267619227108042
0,249426070709117
0,276007605078905
0,243404238825244
0,376876075802079
0,248048402214784
0,302383812001643
0,270913712346035
0,278389717752623
0,268495235336608
0,272663485961179
0,267688247183957
0,278647952675915
0,2722455471914
0,274805597164323
0,276500888003053
0,269812291188746
0,281276663410917
0,269128285417735
0,284193412578907
0,298313314381676
0,269921871154887
0,279439481315005
0,266572149156907
0,279328539636388
0,271762303308248
0,304060276191652
0,269736578805465
0,287070211067212
0,267685477906731
0,300304420920608
0,287117433584052
0,277185628061035
0,268736551016699
0,277689246050478
0,261098419599522
0,286892970834629
0,25576942981473
0,30388332363122
0,286328623811274
0,283867679197558
0,274577412661066
0,27738975428097
0,272683671809185
0,284217173387701
0,274209217492988
0,284545744684583
0,282715897721331
0,289240476646079
0,286310842996449
0,282227153245039
0,286362749817742
0,286958368028392
0,306335845233641
0,292349014323213
0,27404341585854
0,288108507845017
0,270793781285853
0,286326452638368
0,279905646517138
0,280938377055126
0,263463270871321
0,276760789276418
0,256197971989676
0,282990071057707
0,282563933260953
0,260085396812345
0,280387304172718
0,245021503242583
0,263690073540069
0,251759172373862
0,252019067147625
0,244467105469449
0,25213163837059
0,24744020312592
0,241902477582987
0,244116337996789
0,242638237574964
0,241198877420131
0,245406971934389
0,244117878275467
0,236735864111455
0,239600455971798
0,23753111442328
0,241688951144952
0,240068327206553
0,236010916655339
0,237788510431566
0,236347315769982
0,25543161793485
0,24558863655328
0,260516056373586
0,235562780972761
0,249685189799362
0,231553958192848
0,233018108656004
0,23575894439533
0,232277086657995
0,23614281585823
0,229644922908143
0,233874039549854
0,230885215230501
0,23760938660214
0,230477517328814
0,233777348768726
0,230941071336146
0,234326915003281
0,234504729268822
0,234965923045875
0,22701147436333
0,236921213140097
0,225791169250483
0,242718675314356
0,228816995876849
0,240548360606297
0,230139637147655
0,234954990573675
0,231391127178293
0,234352906006751
0,237627323682261
0,23161917116462
0,231340951684664
0,233013414377575
0,231527725359436
0,232234732374032
0,231051390858422
0,232063752921755
0,226530344267885
0,229436305482029
0,224251625315647
0,228010229717026
0,223434050880448
0,2191028396714
0,220979544818004
0,220156916777101
0,213802787856961
0,218500761672702
0,211042019727096
0,2150050100931
0,207657487847162
0,207951181506274
0,20439283356658
0,206232071588772
0,204075144079481
0,202655259424661
0,199666228059966
0,200540049564804
0,197170790273965
0,198209193643477
0,1975452986585
0,198854883248615
0,199316596464518
0,196853041382477
0,196221037389197
0,195709122624505
0,196695302964965
0,198868370669168
0,194124221270019
0,200742576003963
0,195248147082304
0,199657415159372
0,198112589763793
0,198511152302131
0,203304755607473
0,202020131395183
0,202610211220649
0,20543448233399
0,204698307086879
0,204135299689285
0,207355315545476
0,206837011737162
0,206758417492654
0,209927675420268
0,2098791794123
0,20652319382896
0,211308487101883
0,207273320351581
0,208479728344922
0,209905143162055
0,208390554137878
0,209038334371179
0,209459428373167
0,209758708112957
0,206238373411022
0,206843708467649
0,207046166094332
0,210209346510824
0,20503452772145
0,208048979621906
0,205831136651386
0,204329773061423
0,203637368970817
0,204015919820497
0,206089597730441
0,203562435336807
0,199916959973084
0,201275633092906
0,199062208207667
0,200396202175892
0,197735275759213
0,198537642855206
0,196949817811291
0,198226427509555
0,196499442552418
0,195069598364356
0,194788711359651
0,195356949836394
0,194079766766601
0,195967307155064
0,190829877542406
0,191936361133749
0,191790053197397
0,192727073206125
0,190706673638405
0,189905312059845
0,189066991992942
0,189395345007431
0,188901611097539
0,186011559367455
0,183494505292271
0,185682981903835
0,181950150985083
0,181373893210506
0,181997130821241
0,18030418064641
0,177725836271401
0,177075612505239
0,175400966738498
0,174557972130003
0,171496519056706
0,174007725116528
0,171019149940184
0,171054361876905
0,16942107472123
0,168045616712916
0,167688126820552
0,169481506230037
0,166168904288779
0,168076815305295
0,166919934526479
0,168120732040433
0,164071892574461
0,166559547531429
0,164183095645951
0,165053385744519
0,162347908218579
0,161830453885206
0,158668567394623
0,159819981244573
0,156060789870245
0,155338575267114
0,151474757922855
0,152181924503431
0,148828454051072
0,149723421591731
0,14868579897821
0,14908438955831
0,150486710419116
0,154681903162866
0,157255990124193
0,160729052404251
0,165066556790465
0,168892194651762
0,176811308026833
0,182949854140292
0,187359332343047
0,195756708949458
0,206188031375088
0,215952736856093
0,221995621321341
0,231311207266696
0,236980999352067
0,248489704395664
0,255610016876282
0,263228924593615
0,271923592195481
0,281831442402465
0,287466227435984
0,295422818139347
0,303064681177792
0,309701975860906
0,314965951527093
0,321720422303706
0,328321098780804
0,336659781280437
0,336221028800974
0,342115985729136
0,348720954489592
0,352723035267442
0,355326537473272
0,358452247046258
0,360019122046207
0,361779350935332
0,362017648077987
0,365870724774974
0,364272796287022
0,367557311455075
0,369089489670842
0,370307089558974
0,370336974539794
0,371681972110303
0,368739207459477
0,369944643364232
0,373238852180244
0,375655030081636
0,374370170902667
0,373819054344781
0,376870201270197
0,381915211799345
0,383539794611321
0,385655686952848
0,389527708873594
0,394312595541103
0,396225711282183
0,399553280065981
0,401667400019059
0,407325580702186
0,410744738729198
0,414273619794038
0,422093083820676
0,42865822389803
0,434740873248574
0,441464692298628
0,446849992359699
0,453851354405239
0,459601672791621
0,466634028775348
0,469125192289256
0,471755452913721
0,47804937877431
0,477277375882118
0,479958079097019
0,472722578952963
0,477253230619617
0,481992385715399
0,474019751986526
0,477792263407285
0,474901152584337
0,474534004270609
0,472081363877091
0,473955460070278
0,472329711248225
0,478360026244056
0,477760563583247
0,482487889220516
0,491761216130926
0,503565329754619
0,508120053539571
0,515911383307926
0,522770802391355
0,534797632939657
0,545966466562169
0,551333475679876
0,558997427367998
0,568505310149646
0,578922487396997
0,589896280543121
0,596842528318991
0,605968268882006
0,614378396892941
0,628007910183425
0,637375168167416
0,645385669565673
0,648707000904035
0,666210222513278
0,679979637154925
0,689257023071789
0,698685609519765
0,715440008227292
0,725608276948582
0,740540357788989
0,743635170018736
0,75602169541575
0,767001068995218
0,776435977218076
0,781544239172597
0,796278282837481
0,798762742247744
0,811552500235131
0,817441569362342
0,822110609343916
0,816931823910033
0,822645212723114
0,819626587970277
0,810848609291856
0,817588048428377
0,811765486163123
0,801872038213215
0,807574984344418
0,797652053818281
0,802803401545099
0,799312701382309
0,789421912144235
0,79565034408111
0,802549892569125
0,802573819760227
0,802979772774392
0,803809956364463
0,806604184443733
0,821030721325242
0,825917703435112
0,837873379052224
0,845393785268763
0,860973216076996
0,861969781009287
0,86626214384121
0,870252544011136
0,881004008078721
0,878018011215218
0,888824192880073
0,893337250704928
0,898213131178739
0,888891364916146
0,907153897457042
0,900519397009807
0,898683371923464
0,908153030557966
0,901588754911308
0,901491114444163
0,902999998408766
0,900358259933894
0,893122669369454
0,900771568352014
0,900458933959544
0,90793840270059
0,910922253545402
0,893862733355199
0,885600856429291
0,878254240973413
0,884652255892867
0,873227208747976
0,865588276752621
0,867719787652885
0,8495589657629
0,850041910024116
0,842333149557104
0,832977759642952
0,820313118041323
0,798349885505207
0,768727322671335
0,748664607049141
0,730982200253258
0,703454232976655
0,677064455098739
0,651493156376808
0,626696619715077
0,607283167962558
0,580070229849445
0,559123919097248
0,536331091513643
0,52179563822191
0,505586840450695
0,490613590214352
0,490138429783082
0,479021165287161
0,472952778697309
0,470248365969348
0,46795678149264
0,460873208647688
0,458284201658138
0,456844538565366
0,446405426097509
0,439262591186275
0,43654578666058
0,432100437365762
0,423795532550051
0,420313671266614
0,412786680414005
0,405532998355535
0,39375314835781
0,381074751693443
0,37329373949119
0,359818010521828
0,348876275460409
0,342096337423874
0,326399745571418
0,314554672164582
0,297137839217679
0,289562206954567
0,275628215101042
0,260118897629293
0,254595139300779
0,238618531616883
0,222319078504145
0,214658535828617
0,206540420884011
0,194176780966098
0,187487905194613
0,181360895686189
0,171459044903864
0,167277379279738
0,161904610265004
0,154871456570924
0,151794115811855
0,149041300600412
0,146675528601437
0,144470019495116
0,141841894262521
0,13782044451454
0,137985249986029
0,135354640176113
0,135392370405725
0,132968288498471
0,133563095064152
0,132931264915142
0,135506254341524
0,136125458636326
0,135864238353294
0,138703412032742
0,135483894955246
0,136896284677472
0,139673102465226
0,139262713234029
0,14179530579973
0,138835112220954
0,139333811473575
0,136273166896914
0,139398237824092
0,13695774385056
0,134263984686862
0,131069820244913
0,13303607962582
0,134358427355177
0,128852203048553
0,126859715472347
0,131483164189136
0,12938968789049
0,126818312965711
0,130306123350287
0,131248822875998
0,133440964479004
0,132313250308244
0,133213518499839
0,133457942573401
0,136019286379562
0,135411683180664
0,137726514817307
0,143897121096476
0,143540606132694
0,14481099101919
0,144214905319091
0,145571800272841
0,14689785830407
0,14819158070049
0,146924736816206
0,149350574035814
0,152503659911085
0,150607593857443
0,146321514728439
0,151060829871206
0,15452904964514
0,154838371954933
0,152582529017476
0,15675449026224
0,15443306986441
0,157682862269837
0,160587973935003
0,162402935426943
0,165871458110284
0,171498248883393
0,169262444153124
0,180276450557629
0,185868115845248
0,189071704996883
0,195996360932155
0,202006603615118
0,205245818999669
0,210546585216368
0,212561508193084
0,212464126079583
0,207579178588887
0,211837436417809
0,208299489475154
0,21014023120926
0,200828686266515
0,194778302152182
0,196744855438438
0,190126352346051
0,183994580029092
0,189505170983254
0,185451549167421
0,183357972024058
0,181451953648368
0,183309193773513
0,180911607395437
0,178995203610846
0,182901572518687
0,182185157726463
0,181434812647331
0,183542336732808
0,177113702443672
0,180342150757364
0,178887574529554
0,176330444588987
0,171993771577146
0,17413560904252
0,171212266445423
0,171806722226057
0,16408212973536
0,160706174932588
0,161140379819742
0,161578877413527
0,159124670632101
0,166371714013153
0,154201908797448
0,154275974812851
0,1557719727966
0,1534262364929
0,151398494783115
0,149485815144664
0,150693991633809
0,151307784360964
0,147212022412371
0,15013813610853
0,143394144940829
0,142852481789002
0,139173677668974
0,141223701293428
0,137377316536054
0,144041770007494
0,138657013560808
0,14256140962603
0,140438116841291
0,141693434830893
0,136817687042276
0,136189321040724
0,129519240177949
0,133966025235525
0,131372107981772
0,130686862624298
0,132048220027917
0,135970980089783
0,121088890864278
0,126940575606289
0,132131820203757
0,124532112658734
0,124485772153899
0,131045067931458
0,125388240047529
0,132721573214598
0,127690436636339
0,125998170195155
0,127364790747437
0,138546228213548
0,132230771309238
0,128877145069823
0,125579972360777
0,132070748946467
0,127372146700733
0,130940175333669
0,12486745544388
0,136939356272259
0,137256672279333
0,133631324948737
0,136393397299033
0,134672175679497
0,138666978304471
0,145351762756986
0,138012617583983
0,148357024192088
0,146372742910254
0,146462708043239
0,149115331953377
0,154264283816819
0,147352226750543
0,15336852192484
0,152238343851589
0,163563231857306
0,173711476134333
0,164127362277363
0,16205233689667
0,175660570841896
0,171789113317337
0,189111195095404
0,186748783331048
0,201376330086643
0,20753753581837
0,209087857665962
0,211563916176321
0,227940463435554
0,231167467733164
0,240499032588944
0,240906889860137
0,251593428857442
0,246556019672232
0,253751945361308
0,248031700336657
0,255405623012136
0,242638539529852
0,243174884340816
0,235944382106796
0,248544218142813
0,24136651936794
0,248305805884161
0,247813305803718
0,240707945617441
0,244093668073003
0,253301990254316
0,248928876533461
0,257126889414069
0,236287275587375
0,239871278733362
0,238076207403103
0,247525751651122
0,234993306235515
0,224409699169216
0,221266518583818
0,232993132971177
0,228437204540459
0,22397916646302
0,221054628640075
0,219295175252244
0,196282579767614
0,206946218147185
0,208796017288813
0,212387514814575
0,210788859245123
0,221732598490133
0,199299190111046
0,196156863472796
0,206293920869963
0,232561921843382
0,203225398004582
0,195446425412017
0,198235015468632
0,204552726391615
0,183241348561911
0,211065002020389
0,203684617298737
0,215368309907105
0,202722455963358
0,21180569789162
0,220580551755025
0,221836923179148
0,224115345319539
0,211195206139339
0,214123185666043
0,215488124588612
0,205875905509749
0,203716655028107
0,201549724855181
0,238867088613223
0,228145784787207
0,235344572833811
0,234597435210937
0,227988468000781
0,222065897243814
0,224305400785061
0,204329884027362
0,232720319469182
0,227857550040898
0,218053530379522
0,224174504396909
0,251505761010442
0,260512977694405
0,252342458760343
0,228136277781027
0,232524973386492
0,240603336068538
0,272103413077855
0,270921702638874
0,289206281183228
0,285765928114611
0,311017600632285
0,287517084077093
0,287960771983249
0,292917288834571
0,319654171393755
0,278520125264128
0,320057118869325
0,282189048753245
0,320194968028248
0,301669975886083
0,283498457326311
0,299822087770463
0,335587099797028
0,315613973129266
0,271015434761974
0,293484889112645
0,308117705708369
0,284114749879983
0,255128283843326
0,266038542522195
0,304316588700818
0,243717340586744
0,29035883849781
0,295424827398418
0,263111226449913
0,268716261636717
0,279473408141367
0,276155011721187
0,353921851770088
0,293025137225598
0,257260379262752
0,276499112135916
0,321323129601775
0,250269210199333
0,271575555285689
0,273333772971576
0,240673992862169
0,274005792186844
0,34307562814837
0,249349782124009
0,236252020006675
0,202581424345079
0,262076614254441
0,292949242258287
0,322878541362487
0,245623450697161
0,254851706900743
0,343442141011421
0,60521430094278
0,278945699260851
0,302592876576833
0,255679783386193
0,345719838242186
0,485162254114461
0,202108863524531
0,161225783593268
0,294572716082944
0,305573803151469
0,317610321416077
0,267243166990715
0,43895320407028
0,271411822759565
0,371465970526181
0,318989026773849
0,321655668823171
0,285619991643334
0,677828157171441
0,221392444225312
