3596
4000,36533379555
650,420452594757
1
2
2
0,0930974220340139
0,0964233202705672
0,106552735507504
0,101946193794555
0,101768204253441
0,0966211805256423
0,0982937108399891
0,0953538449210196
0,100419281806265
0,0961393478638355
0,0978720035020758
0,096483802140136
0,099466718795643
0,105389522377816
0,0900826948962936
0,0986080299875195
0,091731776635715
0,0931831475316368
0,097851352262376
0,0963347780466822
0,0995201566910801
0,0918272580826228
0,0965076145382849
0,107596945220619
0,105525271149121
0,106628781455858
0,0974241840656118
0,0949006202371624
0,0952995228335671
0,101118158824268
0,0922257265759771
0,0939407003845966
0,0982704692024466
0,100078827029912
0,0942624257025543
0,10389162896929
0,10093867610074
0,10115326434658
0,100962516641764
0,106244290441728
0,108113329047891
0,0956554920656334
0,101721807269385
0,100941851559342
0,107871882059124
0,103194776153814
0,0961971678478242
0,0926572909280795
0,0993393023371081
0,100644248690512
0,101802475376671
0,0984200061250449
0,111587276897004
0,114396949775995
0,104171422199323
0,117191324297445
0,10388958485854
0,0934417141563666
0,101192528726645
0,101301060735673
0,13138616393784
0,118191823463966
0,0998363386073747
0,101105281742101
0,0876049510174891
0,0961948446581342
0,0934268125585983
0,101029282912435
0,0955546571341183
0,106749980412388
0,0996941101022486
0,120790909626641
0,10894922950784
0,104359334748246
0,105020736076445
0,0995207237780074
0,089142818097703
0,101393925661199
0,0957027262002928
0,119488432550062
0,117249200538282
0,108800987879768
0,0910204834916044
0,0930280894710702
0,113839002467364
0,127269102277108
0,0926449982547477
0,106365151693077
0,131796423175336
0,11075737895587
0,0946084731222487
0,101701827548079
0,0891745196605075
0,0941635846857925
0,0877374330212931
0,0938025893404972
0,0916935791566071
0,100347077469942
0,0862176321889466
0,123772571312162
0,10547400075864
0,138074689847272
0,145676015038601
0,108727748687462
0,173914158795782
0,109100016804976
0,111016433204411
0,155340589442754
0,121927814735912
0,10207579283771
0,0928171834035412
0,0994266074352107
0,0933252297961125
0,110134889156308
0,0907611692336836
0,150744693158525
0,128296204177369
0,103792217967775
0,0933166535398972
0,102815738799369
0,0818241480947512
0,165144711454978
0,132822859857818
0,110002096168063
0,115548979575586
0,0967141039509712
0,108940720730454
0,161837294556462
0,123072313536679
0,102523341491407
0,0966367779026351
0,10150902791463
0,0808147732089728
0,114417328174285
0,149591008622927
0,109246060902494
0,109473017039045
0,105441989899738
0,165600907393128
0,16628320384281
0,109470688247235
0,0933119212432976
0,082901981043273
0,125957304628342
0,14643799411722
0,121502416067642
0,0977255158929188
0,129064643954041
0,0972562128220671
0,104185322234936
0,0850401855617468
0,0948024430882089
0,124869369587228
0,113717226918716
0,0772829667998155
0,196495805508533
0,154228792494249
0,175477781952337
0,156107578134102
0,105111482927335
0,120801597176448
0,095630846735812
0,0978593467988122
0,0876096416582275
0,106527327328032
0,0828282857136702
0,120411753276456
0,12916375396771
0,102338350828182
0,118857223910684
0,152414677285698
0,123566871733976
0,0951131687007831
0,186471325793629
0,103855092295643
0,109648647382881
0,139802199319136
0,107845420213749
0,0827200642815292
0,128809847124985
0,120623238135728
0,0950451587332671
0,0957895608817307
0,092241368657895
0,105575742240006
0,118095445809791
0,0982852138314756
0,11005579603581
0,110037410839372
0,0993951453212597
0,141245514164104
0,175576398868053
0,126864262284954
0,111590890047601
0,102576696070907
0,0888142907194002
0,153280965982027
0,131926796525773
0,0957273268163333
0,0897360654760862
0,0872600747056762
0,0944705484950502
0,0888321015987114
0,0959229534255116
0,0848708769208476
0,100325710314631
0,150711087175423
0,113843133266113
0,0957606939381903
0,0887264561822265
0,107853852157005
0,102233425375858
0,183427620442053
0,127635718550658
0,0989180435901175
0,0999763251148147
0,0918125636542888
0,122133773473461
0,109339312810522
0,0928359559601567
0,0967934003836977
0,0869086817173235
0,0907840162110317
0,0888510230627635
0,0840887957997799
0,0953220696086104
0,0926512604541424
0,0973654351081722
0,0857150592180778
0,100368384978681
0,112784290112883
0,0971417688126294
0,0936715083306559
0,0963490740221999
0,078212889307547
0,124732590592702
0,115237120432697
0,100301550387125
0,0943379270859755
0,0938203798032424
0,0894291505669311
0,0864217784058413
0,0898189878932097
0,0916378504729569
0,0919128720386681
0,103223935824065
0,148047437733835
0,100858734421607
0,0972248549544475
0,0759106431336273
0,134262300663823
0,0992092634045277
0,0964891810034434
0,0877911596814114
0,0985821789394374
0,0869627369340411
0,105490521267643
0,139861602594539
0,104432609493714
0,0877230270462457
0,121676264354358
0,0978160274395056
0,0967576262854907
0,101586053298148
0,100290065172176
0,210528892280162
0,12176973097948
0,127560772411863
0,174284769661914
0,11442068537303
0,115566547369814
0,0980519027893746
0,0859209621511109
0,286627817885406
0,153788723882737
0,0994520833472793
0,11593040117629
0,134018319040242
0,0882713235718466
0,117552498982354
0,112141835765786
0,130754073609788
0,132286618168185
0,199613162503613
0,183564389603521
0,0786135302933565
0,158060721221615
0,125075035602714
0,107743033183642
0,0913958491990942
0,0889293188255845
0,0938131661646024
0,13629339161186
0,120789672944478
0,132889369880679
0,104816353477852
0,108153804083525
0,149891246979293
0,105114412613737
0,0977862718302493
0,110899759344017
0,116504921384089
0,0907533964906953
0,100865679944715
0,087216433242486
0,10588528027081
0,0928263078772739
0,121007433642769
0,184981517404376
0,123739783427029
0,11853492923438
0,143215880310974
0,0952493431008128
0,0942674145494333
0,0872393121874989
0,0924884698996378
0,0916554848751068
0,0959162679131049
0,0932631356604708
0,142279574688226
0,102017583786524
0,101949916412919
0,0939506157748246
0,0933236937849237
0,0890266989218104
0,102216522422175
0,0909918019659545
0,106599508561587
0,0996155615949047
0,0958398260215036
0,142766809279645
0,154024774752178
0,0865459831841223
0,185924405783605
0,138225504804808
0,113941305717372
0,102265432616167
0,102214068537604
0,10117117922829
0,106176195774647
0,107452267240078
0,100767171288243
0,105211438459122
0,139733481735639
0,123421102566426
0,123041620788529
0,140335296791211
0,21322132910452
0,203258524064926
0,13200980614826
0,124848917028946
0,0982587077223175
0,19869281157884
0,156256952328453
0,168553593531491
0,152099281716616
0,107753970902815
0,133699754893588
0,105919283369937
0,123567629384082
0,110480788513791
0,131557905456925
0,113849035203218
0,134442970174894
0,111780728469427
0,127221995172689
0,113617941464663
0,154863572606421
0,183133245564016
0,146463477134095
0,13234891325745
0,141289028798611
0,1275007080749
0,209880476418376
0,170103733928265
0,247421749926697
0,168411036096591
0,205768962858164
0,20365700162781
0,144177237116802
0,142898393556155
0,130837184840161
0,150858483866487
0,147344827184362
0,144939911540839
0,147071106472459
0,143098745156923
0,152702721780083
0,150411032885481
0,141000867734836
0,147398065649711
0,159818792576377
0,189628184415507
0,14960212553708
0,167478060907605
0,151959669407887
0,207695404039706
0,250491429241003
0,242253679314564
0,173038617629908
0,178608746149371
0,161107335801695
0,16084897455342
0,169875910970256
0,167690330451196
0,180575984860052
0,177534428283588
0,236943221257924
0,20432517211825
0,21558125355778
0,187410026731477
0,173575781277794
0,215841604420389
0,199746961803106
0,210590817469734
0,225860954654825
0,196561099535094
0,182549087600999
0,239120599352687
0,214715177695023
0,211702210633267
0,235296620157151
0,185164999832647
0,203165774946405
0,18802809552539
0,226328584954781
0,191783927447379
0,232957456960149
0,216612314262176
0,223905822323079
0,209613937058288
0,207950333005551
0,219806778271388
0,25202537369307
0,223143678130592
0,229625675909912
0,236824424163818
0,225014150911563
0,223779609680141
0,218243326134451
0,281130445638529
0,268943656541758
0,275858402968284
0,279745592514885
0,220037425985296
0,250114086434583
0,232041747983128
0,246088021405332
0,234526067445479
0,251382977436425
0,248031606701999
0,253619782381346
0,246407304988604
0,267032741485611
0,243764932939862
0,26652199914822
0,264212093625317
0,269501188714517
0,25820885036139
0,260782707657556
0,290191670285568
0,271810053619216
0,326348715943116
0,328797657380484
0,333294486645043
0,343167558380201
0,286221752051684
0,307381634437146
0,27993410287422
0,302372944588038
0,28583760614681
0,322628629575567
0,281063004034279
0,305619260725974
0,295399354790221
0,311849625572056
0,295461320249954
0,316136039486883
0,309135715186998
0,331660792618737
0,320975764213147
0,324924251859117
0,311712408771628
0,313387302480712
0,321388835049704
0,375202458784009
0,338993392989486
0,370555037064852
0,338666944635596
0,345039549175247
0,338683548612914
0,3443095434858
0,341342712014647
0,35878572704382
0,353856739854346
0,342354982167825
0,348850642996255
0,381704347274493
0,359384414318671
0,361980738971287
0,368453965119653
0,377968436621468
0,37862992165877
0,386971146206169
0,384154215317875
0,397657856331394
0,383376364866889
0,427684539164381
0,378881396296214
0,40944750335027
0,388653030589745
0,421344443183558
0,407430797368856
0,411659280512655
0,405996834162703
0,42677589514315
0,405620846870977
0,417259557456287
0,41023643285423
0,42304832114318
0,405721715024186
0,424726841646657
0,408164867557773
0,436621786681834
0,414697421308747
0,444813639164797
0,440642343019066
0,436435442030047
0,436139384318774
0,47447925451082
0,438521907022133
0,473173663454638
0,479759093569304
0,484683267256035
0,466498397433924
0,50446462302101
0,452723891383595
0,46312946719776
0,448994557808606
0,462240937908103
0,486815340334532
0,500354145243253
0,480129928909897
0,500925144373738
0,462201465561933
0,483560136975509
0,489589139491438
0,498000625927326
0,493258122709277
0,512441122324431
0,496341067539583
0,501498434260853
0,542564789357222
0,534491428207467
0,529983553548107
0,518977847764436
0,516022344298721
0,536840274103626
0,513001919000135
0,524210662869064
0,509344796429685
0,549676717446709
0,53790738431882
0,538653668755184
0,530996557275505
0,572956665162238
0,524571777956578
0,565237315651811
0,532736670431863
0,55680705237099
0,551180690883541
0,554453330179939
0,557818470663517
0,587835486554336
0,563770574344169
0,597635192745968
0,541169345499292
0,579776544810705
0,570902719317419
0,599912369031295
0,559808013486556
0,611601248682073
0,592128759767369
0,600384909776925
0,575777311667896
0,589223940053984
0,586617054709791
0,61923103459651
0,577714556048764
0,626686663486902
0,624814888503613
0,641277341978607
0,618318758572813
0,657794798260922
0,609459735847029
0,625362598584189
0,607978892628924
0,650830690402973
0,618522527714535
0,630671852166245
0,61331321212296
0,624386081807317
0,626889772987932
0,647346175823488
0,619162986384175
0,632213850999903
0,633335222730568
0,661411124495104
0,626353407184106
0,645820308460871
0,675259836990742
0,689159244986624
0,653169560569001
0,689432252436901
0,676036884028198
0,698005582062824
0,674783125347436
0,691263984360005
0,660835397754108
0,705689952318856
0,692346656303433
0,688001713581743
0,694345443573977
0,684972522138551
0,663969070834167
0,698089618042312
0,678371748359447
0,690195498068146
0,690939940067486
0,692177519919307
0,689377699495628
0,737058638254314
0,713034242865717
0,705148802509261
0,706822270150467
0,709155591915654
0,694293587994825
0,717289158467976
0,684767814923171
0,727141821745849
0,714235149658764
0,702990085507289
0,703118447423775
0,740842895585156
0,718260340656425
0,777182643682618
0,740839990586751
0,71952247648783
0,73627465626856
0,746255466016304
0,725838797976105
0,733985815308878
0,712574353339918
0,723338787286105
0,739942551116181
0,754699356581998
0,762832631056968
0,733123868664337
0,743146286071673
0,786547396678232
0,744117742761357
0,75232562745442
0,741334885722769
0,761452968334473
0,752259816080517
0,800738342823009
0,79366935949369
0,752012560552619
0,728714509967038
0,768946120077836
0,731057703045627
0,757727593794057
0,738414010481752
0,777862074730563
0,758313832977777
0,745676363589488
0,754365138663999
0,784484110545939
0,79607616455944
0,770838582792617
0,738221752796791
0,814564581304246
0,783397344337468
0,746325295566193
0,755053474704821
0,764331467438846
0,743116783026858
0,810662836840253
0,772970526603082
0,798161888088757
0,773491598518361
0,814011308435057
0,786603988777745
0,803924894281436
0,776885545957126
0,786807480560625
0,786405950957324
0,813116900820291
0,778434097416741
0,787758804376587
0,753541899381876
0,775184785136715
0,765191709556798
0,806398700514664
0,784960909819834
0,787521358414008
0,769663095542128
0,786054137064087
0,771834292859202
0,801007924120955
0,771236743614598
0,777248586350711
0,785118634037884
0,794927109070988
0,777437405196607
0,796429381774109
0,808418539106593
0,809401315359797
0,816877783463222
0,818768255297832
0,793060953660886
0,79692393954665
0,793437195817542
0,795220532077157
0,799535087186601
0,795955217600171
0,80750759740545
0,819713564056767
0,789937121309133
0,77766966374506
0,797752343614144
0,82264319081146
0,776881944667677
0,79553913124072
0,761763280364513
0,767269956442533
0,763737976532212
0,805208231876732
0,77594054594064
0,785808823595519
0,791548972115395
0,792770956596536
0,797715706127615
0,805891034898622
0,78716352705198
0,815637887995295
0,79034809148583
0,804366664928698
0,809473745686294
0,817161488367046
0,803749751393008
0,79791925933612
0,789196778456253
0,796439891020928
0,790136559097117
0,799411531522091
0,761473290683111
0,806969896845116
0,793782980329866
0,785229869462181
0,766381976785429
0,795310781853
0,801998214908654
0,792087780280215
0,792210602672854
0,802240412768356
0,800827640754873
0,79222417433221
0,795388266640923
0,792545608326331
0,762947790540654
0,793390479646423
0,79807096252152
0,783102970053138
0,789200809166729
0,777511479500466
0,783858215128046
0,789517524885822
0,804318682028162
0,787289076355285
0,758107638083887
0,769879521839942
0,773630717335891
0,805303305783633
0,792297651494966
0,778788746306115
0,784946359674928
0,817297925110287
0,77926576718263
0,787924219177087
0,783687428961884
0,796725150468899
0,784216996631576
0,787369112269603
0,772789516494528
0,771392896456419
0,742921612267161
0,765700437338646
0,773280789278735
0,775137935175406
0,747834357523085
0,765547672503723
0,747279476622398
0,753526197567596
0,747069173690672
0,749847600403009
0,759710721555898
0,778053764470611
0,760705819597503
0,751748415630546
0,748129979485753
0,751271054193427
0,753998950591042
0,746003156640091
0,739733380013269
0,729618385931915
0,733188580383196
0,746035141561752
0,726221723320441
0,736423126670901
0,733433822934253
0,731884287981904
0,727010754864164
0,750585300858875
0,730908484532424
0,722956440652085
0,717334643810496
0,734789491146829
0,734709812745596
0,729266046936395
0,701504551120007
0,708329261048111
0,719015398386608
0,721633673533973
0,714274535209464
0,714059659987477
0,714460307736751
0,722436098488577
0,695790470062128
0,692485048688351
0,708147150087774
0,710911937774561
0,692006194490723
0,707153106370678
0,699321089908427
0,697659575187822
0,689292611248893
0,690945067286283
0,684536646991363
0,69714830697733
0,69149126253417
0,682973695428904
0,68397110485439
0,68207911881802
0,694777742790178
0,692743120370448
0,674701510951831
0,673320870535547
0,667021789145469
0,674999806830611
0,666700602712601
0,661443886130145
0,669497069774148
0,678492113146124
0,668631620530588
0,650019980971026
0,643637527357027
0,668669035896912
0,648545500164395
0,650205341782382
0,650396864803547
0,64312182482118
0,644165425165265
0,631844491860943
0,636384158456243
0,643136262175051
0,64296969270469
0,63723865253753
0,622286915884788
0,630685095510628
0,613769479308331
0,62372733247884
0,628477905621565
0,614716195317908
0,619432005955064
0,61310150606475
0,619486380588433
0,62180673315748
0,604021813967658
0,603142417357362
0,605919483762745
0,601407726560599
0,59549876081865
0,596119100396628
0,597758344995425
0,605038833449095
0,592501475485687
0,582809691273455
0,580597493813724
0,589143462457455
0,581966176218535
0,570773900842871
0,581352577357921
0,589320687868705
0,580257890644086
0,574099315582751
0,562521188918751
0,577401302788767
0,569750394206547
0,55031194382994
0,55696132543426
0,557050273421201
0,55866222398817
0,564384409619646
0,552754779311399
0,543288273195404
0,540649443820331
0,548728114981096
0,54755680758345
0,530317349776328
0,539352878359332
0,548199143617206
0,537865710972748
0,533961132666968
0,540420483519319
0,541481101026403
0,530850687614527
0,530294978530716
0,525746222314477
0,516209872820839
0,525035472619789
0,525268051654132
0,513007868842576
0,511339745145904
0,511133662333776
0,511628582857922
0,505122403151552
0,500648744340531
0,500988144008466
0,498478310025474
0,49826347888621
0,504079094171093
0,49403445759545
0,488534200625525
0,4932282459221
0,493807783764308
0,486126025308678
0,486131486990871
0,490263108800832
0,493339077308553
0,48933962262728
0,479205232632137
0,478235950620025
0,477899650852052
0,46912271029038
0,46561282620646
0,47095269587391
0,471656763966472
0,476847990593093
0,475945049995413
0,46795117265766
0,470125465755338
0,470345024272861
0,463824859207862
0,463944150644943
0,463190306968417
0,457305119552138
0,455501380817702
0,455541280876514
0,456912525845123
0,449337868095027
0,440961423926936
0,447218482160433
0,441998937532535
0,438058177448015
0,438081149813514
0,434812609807268
0,436608168786002
0,438402962321861
0,434674456036116
0,430824209785332
0,427614015951541
0,429176782396115
0,427407440718259
0,418079416795922
0,421016946190801
0,427384622663788
0,422547835478967
0,419300929280252
0,421492219147327
0,417260866844707
0,409008861208709
0,413394621576331
0,412775806053329
0,411255250689575
0,407789816777573
0,407484321972147
0,404695147194825
0,409320246986857
0,400951246010726
0,401107743647837
0,404932176443974
0,400984936817114
0,394600414679324
0,388961584423454
0,387655325148762
0,391334915322927
0,392448411447991
0,391555839248524
0,389013916776759
0,393265888987123
0,384633042449166
0,386697194485157
0,381124442738697
0,377831350428707
0,381469566858421
0,381534772264738
0,382863687137882
0,382220428239226
0,375782481104589
0,377050791908737
0,371193890836143
0,3691339507921
0,373565118123081
0,36932325245864
0,365846677307802
0,369751105299116
0,360086463319361
0,366350549629183
0,365958363923857
0,36377103100416
0,361278681496857
0,358022532053246
0,358009198559663
0,354961160511335
0,349682932721934
0,355497427742077
0,35823983129265
0,35983240463224
0,349949534588248
0,346010747632922
0,339438426454749
0,343895135514661
0,341583277735147
0,346822142868109
0,350644474101903
0,339847612653896
0,334833006408973
0,344261245559659
0,340214444450027
0,33698648938147
0,335540384192466
0,337971238168504
0,329557749936843
0,329405748041806
0,327384857653571
0,327230219967639
0,321555352358224
0,333766043236139
0,332902401610762
0,325115700299359
0,324097497595891
0,327591433682245
0,324462207508575
0,327080576439871
0,323983481020024
0,319802959134668
0,317615713693876
0,321309120707992
0,316519164494507
0,315640896918163
0,316185730907484
0,319849927624175
0,320002816495701
0,317868609611797
0,316143804329641
0,321435846771797
0,313844457214081
0,31474142695341
0,317386655168101
0,317576477969554
0,313903592643052
0,318951533024991
0,317545418010101
0,315207188596565
0,313305593968804
0,315653575241486
0,320968886722598
0,317038114953614
0,315522025680229
0,32431120128983
0,316322533089375
0,321932859487951
0,319654327333193
0,321997680963341
0,317253721580594
0,31657928552654
0,318711416166599
0,325160989356005
0,327699783909737
0,326927377759966
0,325742272535355
0,328840369507407
0,322827778082425
0,327679584742767
0,32995603673989
0,339667988568046
0,332320802573842
0,332437364715258
0,324970583693665
0,327545803215389
0,331243474172173
0,33459456773457
0,335484330175293
0,34105614691937
0,337014566072572
0,341473418373839
0,341041310355872
0,342554820414384
0,337371038292402
0,342436094694912
0,341284355560262
0,340551041980551
0,34766928009897
0,351358161938446
0,34391291288696
0,353227872754004
0,349895991563685
0,357747176604232
0,354320270872651
0,357539897129972
0,357820366246778
0,361283480946117
0,360333143284416
0,370644022889001
0,368011074923132
0,36824733892429
0,374095468335845
0,372434263188475
0,370369546878941
0,373398126870383
0,368336344654822
0,374285996790309
0,375848450375852
0,380828616875963
0,372628378451241
0,372031700384247
0,388125374626773
0,390155051668011
0,378122850904909
0,388139363381098
0,387548490350029
0,385841535849516
0,380423968225065
0,380783458994685
0,377202362637014
0,381276925543082
0,376058253780659
0,386472844826061
0,387802682475127
0,382365225692011
0,379471329280057
0,380391716998029
0,378288022392568
0,380962894851215
0,370635006145957
0,373622694961309
0,373737751040393
0,371881041964636
0,373968546124723
0,376392783127171
0,373229079648325
0,381369131900788
0,377096246776649
0,379194787635214
0,378358247406062
0,380309336846972
0,377655936083839
0,376243931873756
0,374607453115717
0,376149628320122
0,382529940116947
0,379178095088957
0,379820649750402
0,378421942271862
0,377587133065374
0,379211097144434
0,378573509623391
0,384558284918877
0,376695697390142
0,379236794643145
0,37776138781682
0,385087518287426
0,377369002956052
0,385942546675235
0,38230021277169
0,387042298397923
0,385493045629491
0,378505159674674
0,372287894124828
0,380322767851126
0,376279211667088
0,377507293853183
0,379931807628603
0,380154843907861
0,375784437803779
0,377994648869419
0,366766004925261
0,382097757993563
0,369546209274239
0,372094247217108
0,370183880923948
0,372792541105341
0,362618817468796
0,363166274819654
0,362435506810908
0,361040372326698
0,354828309025289
0,358966736482943
0,353816688795775
0,357367492610085
0,353728488545567
0,352000179588821
0,349925986216736
0,341264764029833
0,346292803622154
0,349110087301311
0,336380852112892
0,348803218563446
0,339661383485592
0,343352963026121
0,335063445705586
0,330933996470622
0,329597798249845
0,332122562301365
0,324726785846008
0,33145219579898
0,323127479291481
0,321439413906638
0,320894132731507
0,321631069864336
0,319931673215947
0,327022838684919
0,317328591179838
0,318000735821017
0,314287027524147
0,31490193353657
0,312033771958025
0,314540185763868
0,308380129000859
0,310023814599321
0,305734986857971
0,307715539027495
0,305176666966068
0,305766777717242
0,300839759987278
0,299490297863221
0,300141161556527
0,304621013164619
0,295885593067256
0,305653118583544
0,295470126724354
0,297222778646722
0,293753976794552
0,300124223134555
0,296660345292792
0,29123162644647
0,288297914817918
0,291053936259267
0,290121582332307
0,295555041850013
0,286910264186887
0,291506496222205
0,288033072166444
0,294963983695689
0,287209216126054
0,285826181142479
0,284742723854257
0,284196028009423
0,279013568226398
0,284886598157382
0,277900071764226
0,280209190466751
0,281865980217673
0,280482562619153
0,274177032706362
0,277474855181657
0,276324677982981
0,278956884842566
0,273673276514064
0,278768708197641
0,274159116871283
0,271119163488077
0,273005700766935
0,275000067415529
0,268210635805904
0,27026889202592
0,264837014861854
0,269543293842289
0,264359976502166
0,268226196159739
0,267425671751376
0,267406867328895
0,261545385453899
0,267212212542444
0,267960465952795
0,265634703402101
0,260419394405604
0,273601792869977
0,265256770922063
0,263924899417962
0,263724298397726
0,265046181515609
0,262696927756561
0,260845143965696
0,258657626978592
0,260578894067023
0,259648512067858
0,263233064092448
0,256880338598889
0,259789448722699
0,258183303274772
0,257734530403361
0,257637747991733
0,261382932800924
0,256448578003774
0,257160786039855
0,254255149014259
0,255455658467085
0,254320406843445
0,259321907955755
0,255317381016517
0,251029067894287
0,248815993464543
0,25633625225069
0,257089480644736
0,251216235700621
0,248419494240266
0,251426232520992
0,246557163619817
0,253205626946845
0,250828782937392
0,251009626540067
0,244053025859577
0,251490284846645
0,246512630886542
0,252108887334229
0,247328354377963
0,249336694367317
0,240383885386287
0,247225053410192
0,247483456999369
0,250450237629151
0,239888992127621
0,24603424124287
0,244183631471833
0,249180120639367
0,244610726550289
0,247373984745353
0,240971131856944
0,249876627598329
0,242279199138507
0,240556327425168
0,23967200933355
0,244636175176555
0,245366512089131
0,247200088894891
0,240758235106087
0,244469662342802
0,238705571118127
0,242446436787181
0,242142340046022
0,247807012649389
0,244474483526925
0,238492059288514
0,23313832408617
0,242918743453863
0,240843279564785
0,246743551941822
0,23813033005108
0,244522230918314
0,240339991269019
0,238087493001753
0,235526964214335
0,239005239570551
0,238726690495035
0,235964729795761
0,237165883790045
0,237273581657147
0,236111168104249
0,23820716603953
0,234306363685515
0,241507756703138
0,232887422959167
0,237948080760527
0,23823748650999
0,236568798206992
0,228238188661187
0,235130407611036
0,231183709127974
0,233632725125849
0,230964038605219
0,232258231112938
0,229352722216775
0,232697823895626
0,229905452500938
0,231472074637601
0,228713536520302
0,231134259419424
0,220253773409296
0,229304430567887
0,226505911826631
0,225334026799631
0,223094660947185
0,224014127013865
0,221789242669486
0,226491137665392
0,224953996718109
0,22802471982744
0,224874092765157
0,228179175798996
0,225308790031014
0,225680060106786
0,222511640253353
0,22478964766578
0,221757561190833
0,224719169168226
0,221521419504702
0,221973400395712
0,217878078316644
0,221115115085936
0,217365631963838
0,225972016337837
0,219686927214369
0,219507906034167
0,217535642689268
0,216094704367513
0,216740958443011
0,218512781851545
0,216317043035013
0,217260591258624
0,212789507865174
0,220093131412993
0,216905387247727
0,213964139488363
0,211563069977695
0,218030581612228
0,211266310640388
0,208605171957858
0,210556013369663
0,212659449845273
0,208823299752292
0,214777718092134
0,209083277114213
0,210574491554427
0,208394310771331
0,210537013993926
0,205531084668958
0,207983099333509
0,204482042581377
0,207715671005261
0,201744465966591
0,203100290097284
0,203869636353855
0,205456635751639
0,198949616211717
0,200746662842359
0,198907254365909
0,202373554664869
0,196619589734161
0,202284677134066
0,19906882281025
0,200989923870729
0,194611192386576
0,198588832883544
0,195623846245063
0,202760073999236
0,194786790652866
0,197110105952429
0,195702461575026
0,201169686638072
0,192883770441936
0,196339922791576
0,196086952275316
0,195921446087905
0,196855916612322
0,192845973936162
0,19575670082747
0,195935046028125
0,194999569887399
0,197012448699413
0,193586957591394
0,190488930647891
0,190875484895116
0,197569714731777
0,189401864726379
0,195277995989801
0,191077752247075
0,193697149659067
0,190712354490874
0,188607644909209
0,192084513159741
0,189133246033219
0,184862932954288
0,191832219985882
0,187764816706603
0,189869519304622
0,187427154998914
0,187106449835967
0,181573874097361
0,188513008130073
0,185869664413356
0,190044307453906
0,186947440910911
0,186456904898791
0,188304240022159
0,185075644267184
0,179165468309878
0,185465470438855
0,182777605441752
0,180469591257714
0,18034752235706
0,182740936119284
0,181612472927511
0,182158991549242
0,177758476082107
0,182410399159083
0,180129592730582
0,183495234777874
0,179918907300613
0,177984825164069
0,173598171007023
0,180128565290129
0,178654024115312
0,17749151642379
0,179234603338105
0,180899777753454
0,1798821254959
0,178640835760245
0,176763440710061
0,184430608277168
0,175050822535217
0,176916575922819
0,174663458794514
0,175762977420355
0,177204613223323
0,17796718958739
0,177460479000669
0,177458935983084
0,175125492101409
0,175495524020185
0,174225798380566
0,180430507429088
0,175673925338482
0,176448863221849
0,175305002140047
0,17560944487659
0,174310941975341
0,173877766596865
0,173428088175646
0,176723042594314
0,174955252688472
0,181061699216694
0,171239798935558
0,175457893634932
0,175498876345411
0,176091703541973
0,173172263328338
0,171327594637581
0,16691896071545
0,174487590447366
0,171371818278401
0,173828128319967
0,170946117455058
0,173263010068719
0,174804351544601
0,173653021677149
0,167603295695124
0,169707671120783
0,16789873348942
0,171843720644014
0,169952519815372
0,168017531449453
0,167451416161842
0,170170038935383
0,167219830639094
0,170820105748711
0,166553392215992
0,167203250692036
0,164222326960762
0,168207816824145
0,166106055034911
0,165537335022986
0,161780434608522
0,168686877564087
0,166365006516753
0,166974737385206
0,167582491684658
0,16589144070916
0,161123452433842
0,16464612726952
0,162565356907356
0,163123214814357
0,164163500419652
0,167960806315907
0,162649141964846
0,163328739602084
0,1630784484135
0,163558212267665
0,166381724859063
0,165892522483857
0,163804719501684
0,163966468648671
0,164063995405858
0,161858017500331
0,159401612769391
0,162095962938624
0,163408064059853
0,165793186636171
0,159558328265921
0,163688102410921
0,163261160919491
0,165421798462048
0,162166229012294
0,158801043837253
0,157538097036648
0,160346123850545
0,159465882361043
0,161212936706717
0,159687007527003
0,156431801106853
0,156868269426084
0,159606069356311
0,159687331656492
0,158635989730635
0,154934877034028
0,154757693605962
0,15591854525836
0,154608935232262
0,154307020127612
0,156131241032633
0,153122147417719
0,157351488863372
0,153103342554611
0,157356056244272
0,154701367913576
0,153412159406389
0,152058063426676
0,149322907311923
0,149589223991276
0,153446276239052
0,149682978712432
0,150944994078213
0,148352416042574
0,149381161836825
0,150456090706817
0,148947706708611
0,149464896414851
0,147989325026772
0,148561212662633
0,148000919622498
0,149915016002634
0,148220425981874
0,147703509393089
0,149622503211982
0,146560149071046
0,148295438681083
0,147054894766484
0,148571608149835
0,147476705833033
0,145327048100468
0,145952652395831
0,146429674116324
0,147529628461222
0,146344574557663
0,144001742142989
0,145903577530586
0,144321126543442
0,147602642745186
0,146389585890531
0,143169096023033
0,14426841724965
0,14209775491378
0,144286944696071
0,144186552936814
0,143081296054258
0,143218975854689
0,142789717867958
0,141110715843328
0,137585591104362
0,142126357863549
0,141861561317992
0,138149249705475
0,13762699099182
0,140834196614744
0,139141746558492
0,140633461361
0,138094568849561
0,136839794445189
0,138365764063985
0,139796692025819
0,133027931018637
0,137113913673825
0,135569766829325
0,138486038224677
0,13523426042543
0,132348316562236
0,133126992033083
0,133663169955951
0,132948488288608
0,134938812676003
0,133966845151145
0,133236390468926
0,133349258647753
0,13257627567796
0,1352266670597
0,131698279506087
0,131400266005877
0,131191026847764
0,132172737537883
0,132894233803601
0,130802022135955
0,133004099328896
0,131157963330246
0,131504586697169
0,129636026823467
0,131421241279587
0,12972769421536
0,128986370689482
0,128015188815866
0,131023001632841
0,132133234192505
0,133238193879144
0,13254420527333
0,13099835481674
0,130557746100461
0,132138975027888
0,132743583952734
0,129919494871724
0,131967163725592
0,130781991440467
0,13134815531966
0,130412029900481
0,132944852341218
0,127811450958729
0,13277994159472
0,129383543414403
0,129957446544156
0,122930931779039
0,120277300430863
0,124226984581038
0,123198320691832
0,127286124638494
0,126277778384689
0,113050419048076
0,11630374168938
0,119214288437659
0,118741305073636
0,109134327647655
0,12250690705655
0,115336994954251
0,110802367520015
0,122405235834981
0,114340601986901
0,109285762778573
0,113382947782269
0,117910460693734
0,122868195429875
0,113458213081594
0,126571549983161
0,12047635699358
0,126614820008381
0,116137504248549
0,127792961885835
0,109210894938547
0,124736611752107
0,110888359286482
0,122170581400695
0,104485332296114
0,123586288458595
0,104735962837856
0,124155062309315
0,101530499942819
0,128433561675518
0,101106156060752
0,126540837575159
0,093834948381527
0,124348346815917
0,0924174636367946
0,132425159667757
0,105890827521913
0,13985290092341
0,091581604079938
0,134725692815222
0,0892173383124894
0,142753638719291
0,0951812720026321
0,142226101860556
0,0903530085920741
0,141846725513413
0,103507503907754
0,137040142135294
0,0997987535752561
0,127868362505978
0,114437389401734
0,115586905148282
0,120120219955766
0,113785088933995
0,133282073800404
0,102302173059784
0,143435025193177
0,101758222261791
0,134669217171722
0,101091048547439
0,129846696598752
0,106397931248923
0,123531007280551
0,11109295988075
0,115718468347119
0,115040206664896
0,115620023425107
0,112594072581475
0,115255156747294
0,113529888205462
0,116945421472637
0,106492043710445
0,115351512655073
0,109028319023872
0,116578301411617
0,108762578305831
0,110769377433462
0,106369063280562
0,110741203470613
0,107121106883226
0,112056914495156
0,106999098033601
0,11084322433344
0,106328140866241
0,11134380041809
0,106167511369351
0,112807081929523
0,106857899140473
0,106907824408306
0,105821785311383
0,109563732451305
0,105766542051597
0,109467789696482
0,107517324009461
0,108934804497684
0,106153728839432
0,109163252444888
0,104664513143979
0,109621064352746
0,107254807419273
0,107979776862576
0,107853496340872
0,111810799508721
0,106331220276597
0,110567020175922
0,106151972160605
0,108572723741195
0,106791499061566
0,109166338253235
0,106377555201441
0,108564885546664
0,107119792803469
0,109828805115846
0,104027683069464
0,110653604353926
0,108175263456452
0,105969968282183
0,103522166445535
0,110579522985322
0,105929505910891
0,110410815739321
0,103514908364398
0,107312036339782
0,104338003327689
0,106157178584878
0,104271962301898
0,108030014560014
0,105113302591764
0,107203573953174
0,10500345681283
0,105790207366298
0,102578955999825
0,106951827308819
0,104061381620934
0,106908474437711
0,104365148239877
0,10474464483094
0,105237095054213
0,104769266226111
0,102845868350619
0,108169063082798
0,105095377534137
0,103646719796683
0,102019170365378
0,107451793130435
0,105288809191971
0,106178834754779
0,104392029695381
0,106955960326243
0,104184033926141
0,105715379582469
0,103026044151058
0,106480598411222
0,103693016756909
0,105021442153161
0,104751889061073
0,106262127727384
0,105619818706132
0,10673016782043
0,105565935107237
0,109786771000558
0,102201867011819
0,106541354952567
0,105711901828115
0,109375822773433
0,106470894898038
0,106561455051791
0,106001926087827
0,108123573081728
0,10522509979009
0,108798944391617
0,106297154034246
0,106736757070218
0,104804347503947
0,105902877766212
0,105504757891453
0,108239968186797
0,103979692778014
0,107073724315341
0,104801936359711
0,107224438129427
0,106349128558625
0,107656445347416
0,105104278691894
0,107732920175897
0,108093054838686
0,108271045570881
0,108145881356468
0,10740383561362
0,105195592980522
0,107617123294561
0,105028891699386
0,106332659445314
0,104172926087773
0,105008030826673
0,104302176604189
0,106611535406057
0,10654641150538
0,107139217563927
0,105288906715513
0,107138069013703
0,105932257496239
0,106162915421729
0,104965650425871
0,107084760535175
0,104211206216848
0,107503068738692
0,106755407414182
0,106960932795501
0,106314130131256
0,107454224993794
0,106860061509992
0,106701596062584
0,106563352336457
0,10862262228984
0,106232780653792
0,109828303908723
0,108346816658934
0,107318051043159
0,106275954393722
0,107723359523823
0,108843742253535
0,109052649597227
0,108040955862265
0,109694878884406
0,107214316016245
0,110528148118273
0,108070923925496
0,109571674462835
0,107457636490977
0,107921117928819
0,107235376131691
0,108779064175313
0,107513070118453
0,107182500119142
0,107175008164169
0,10788803982447
0,107685619861502
0,107412978643924
0,105881270039551
0,109126128466009
0,106169072062649
0,108283309170165
0,109405269439847
0,108610578391814
0,105362487115957
0,10866522102541
0,10626404650198
0,106924559621169
0,104755167055777
0,105324376948369
0,102232724860821
0,103541080536362
0,104702189643043
0,105434410663375
0,104526844272575
0,104766123398689
0,105312592681766
0,105774411362457
0,102631542562965
0,104805013445659
0,104393658975603
0,104890643144614
0,103195825020068
0,105851287149156
0,101690476830957
0,103435855543988
0,101309336282519
0,104515177367607
0,104156261021007
0,105009211490832
0,101990365961373
0,103805480733534
0,101776059848866
0,102500429452123
0,102805726312281
0,102967459229951
0,101783727251275
0,105301416912754
0,101199950013325
0,1043589298886
0,100640958881155
0,101747373497567
0,1024946671433
0,1028062265057
0,102896777848717
0,104076828764819
0,103979800120878
0,10364132460152
0,10065682562932
0,102398006711538
0,101105063713801
0,100842107005666
0,101245182477682
0,102318886094143
0,103931506622779
0,101929956368301
0,0999477337773039
0,102502208446237
0,10153061451747
0,102104541760914
0,101108202114887
0,102082758633285
0,099429786643033
0,101550876366042
0,097805067339861
0,0996319050113529
0,0999627336682301
0,101829373220781
0,0987711646885278
0,0991522878029311
0,0998884253968714
0,0990775784580746
0,0983129051404808
0,0997476019707626
0,10109006129378
0,0995734668810301
0,099411698066789
0,0987542469044192
0,097682998296462
0,0998092610454855
0,0989425155038656
0,102458012822299
0,101795889881398
0,0988920160910911
0,100965293562265
0,0997029594446661
0,0994725964228107
0,0985207061020071
0,098051527306963
0,0977068078014175
0,0970207607428461
0,0969857464041539
0,09613662818417
0,0975685497450233
0,0968690994980886
0,0986318834621708
0,097678397058463
0,0972520110993013
0,0970431456291331
0,0973641169947834
0,096363785179878
0,0976993041847441
0,0963289304951844
0,0971839570658498
0,0969505216882517
0,0964101882541085
0,0969907679430424
0,100911009956023
0,0961644384025122
0,0973174016700834
0,0970331432733136
0,0958807714434535
0,0968657857953979
0,0963258725936481
0,0963296673589156
0,0961663082915922
0,0962487907051343
0,0964230874486696
0,0930480161234565
0,0917159679895224
0,0922693418548682
0,0948756310383525
0,0934825497749629
0,0921957670624623
0,0936255288359923
0,0940514366101752
0,0931506694579894
0,0934382700122614
0,0926303404733032
0,0929496000726695
0,0917499750501512
0,0950224321947381
0,0964498056816542
0,101159853787119
0,0917749050142451
0,0900179935949457
0,0920324774754755
0,0898159580062461
0,0912927248697896
0,0912447187602072
0,0889271263355284
0,0906645033202903
0,0886976261759497
0,0892475035865577
0,0889123340536729
0,089062212623868
0,0871712271149772
0,0882996201928212
0,0871273146261942
0,0878730399042709
0,0884836663372585
0,0867822360627381
0,0853785823617349
0,0871839449289866
0,0867995583486125
0,0890914740147489
0,0868943009874726
0,0849584655794593
0,0882649447213156
0,100865213166145
0,104069596173097
0,0860567363649721
0,0861976579995334
0,0922060015043008
0,0909306293240531
0,0861035705754501
0,0872848891793857
0,0870744101149181
0,0857182871335125
0,0832913902060844
0,0841866380519215
0,0852625985460496
0,0835613653882218
0,0823349360717125
0,0842520275445365
0,084291412379828
0,0845191025400349
0,0844576898796016
0,0855092621887319
0,0826580520561495
0,0822887102853161
0,0847739095173423
0,0844606690724244
0,0825375233596234
0,0813806005368622
0,0856256253227782
0,0947140654597153
0,0928165910403558
0,0859421306892248
0,0826657322769623
0,0824896560141062
0,0840044715195524
0,0840460256193007
0,0825635907017492
0,0827550388937157
0,0824227037619037
0,0805036322998695
0,0813899398747465
0,0819419418905222
0,0812800817517918
0,0831181528323231
0,0827979768640539
0,0806098325863999
0,0796297218280015
0,0773343978835353
0,0791866575836506
0,0796646867066759
0,0785199801463142
0,0824581083363632
0,0848871653951375
0,0839931145501237
0,0783873703055127
0,0926772154631123
0,103257235693174
0,0853323616235595
0,0818541145394204
0,0811995620266777
0,0780093192634046
0,0773035216166296
0,0783775326362379
0,0779127657111603
0,0787400860849973
0,0773447956705525
0,0780875613864869
0,078057899411559
0,0768283430990856
0,0789774793808417
0,0766083088643573
0,0769769971438203
0,0778311711516264
0,0758641510678483
0,0755316973449874
0,0774746383843899
0,0864960562566175
0,0976828561385524
0,0862025313683871
0,0808033035549143
0,0759635482743732
0,0826697749251289
0,104139947688791
0,0883243549693524
0,076541738940602
0,0804274434129102
0,0768036455689027
0,0767586255349624
0,0736651102443018
0,0731544513957089
0,0816219984227323
0,0855984485882092
0,0804558393239573
0,0785139952050556
0,075672699223136
0,0740380789423664
0,0749693534614067
0,0748507098975755
0,0738386922422072
0,0751370709018615
0,0749416251197579
0,0725492834835988
0,071229639659278
0,0716313735989799
0,0723969026575241
0,0724630931058513
0,082745939126969
0,0835953144196055
0,0728418532872757
0,0740827278838487
0,0736716003728545
0,0698794641150157
0,0897319310185851
0,0944323035105215
0,0765917411596006
0,0718779851774166
0,0705663336819865
0,0726906221731444
0,0738737775003557
0,0701144553155896
0,0706644031893173
0,0702955952857218
0,0716889643798163
0,071828292957883
0,0710589243161842
0,0695644763327792
0,0713660269683061
0,0698487543559086
0,0689921783859596
0,0716530079558698
0,0698069658010936
0,0705208658563913
0,0717037560895584
0,0796663067553895
0,100344411957613
0,103899787225974
0,0948160144793189
0,0878568613590889
0,0775850143486195
0,0731615084098586
0,0706719636071839
0,0678548424385913
0,0719471557799842
0,0736229302204392
0,0734854942468643
0,0676002996937514
0,0722550069535393
0,0708737637102043
0,0686464923737358
0,066961241356911
0,0687997995574529
0,0653390243226434
0,0685630057263249
0,0669422437173064
0,071671124798142
0,0656319022730974
0,0708771565060169
0,0831678510485223
0,0836368185790215
0,0687434177699539
0,0788473708562137
0,110877024667399
0,0983719181048949
0,0835022370510635
0,0758606682131722
0,0710181528487871
0,0665686437859952
0,0677068481463835
0,0735746383304281
0,077211504650329
0,067571441023436
0,066036109644346
0,065456369841368
0,0735120942633654
0,0687679551518824
0,0700344318929359
0,0995270360704682
0,116169185258684
0,0863904950585754
0,0727832123268727
0,0658047621673136
0,0932695269082549
0,102704424073964
0,076109132211451
0,072454762351638
0,0765646267282342
0,0667593334759108
0,0694091363135132
0,0655763724047235
0,0714566833544364
0,0797984271654324
0,0695653263803154
0,068981274347635
0,0684415616286615
0,069290199636242
0,0750853526461411
0,0777409732028789
0,0898637017904363
0,0826433994636007
0,070486527333745
0,0768918139825546
0,0777050971794562
0,070689508817584
0,0719992067068011
0,0689503031837282
0,071459486807759
0,0921357187722935
0,0893339705507754
0,0865041077275495
0,0979762540992877
0,0862497648830636
0,0723798716981734
0,0768320985164365
0,0946322556738627
0,0840495315847448
0,0705490372035631
0,104114008042464
0,106387391220744
0,115364472188343
0,0907548411572811
0,0844620572253642
0,0680273592173005
0,0774372511973243
0,0632193210436751
0,0830467810905026
0,0923855341881317
0,082450885783794
0,0709487933042929
0,073945356401196
0,0895123733775683
0,0920723673560317
0,080491323925984
0,0773336583105771
0,0734358752169098
0,0797020735787975
0,100962085605816
0,0783780404014484
0,0914867656133129
0,119285524272483
0,126577659344613
0,113379448978029
0,0793788044506085
0,0958913206111701
0,109428752490234
0,0890689422108332
0,0774860536011328
0,0776011368733798
0,0794590736567457
0,0710248167257349
0,0970351782776439
0,120766100309005
0,090045409055543
0,0831585466170528
0,0819009512085262
0,0948462789322769
0,1129115911309
0,0971232729513877
0,0810485670530738
0,0864089736245773
0,0810488461477132
0,0981349944652049
0,142031017281872
0,108449855220603
0,125484333421288
0,120891171962102
0,126507718411444
0,105680056822791
0,106626375247571
0,0928141273999328
0,12464316922954
0,11641333129297
0,0984737023362032
0,0872361051411422
0,136058601031098
0,109475698668924
0,108441722173436
0,096134235866839
0,0989461540137881
0,101021116982536
0,172461975745178
0,175776493761112
0,147718685007446
0,103910715996142
0,12160244093585
0,133170489267703
0,111272971412471
0,0970995805841385
0,0990154635308717
0,101099037204542
0,0985681178218843
0,108334822523984
0,116884164600269
0,107089895379668
0,115057738439042
0,099194321622741
0,119328481569224
0,147739592907576
0,211238220762714
0,143347071124981
0,15156384294758
0,150203214206921
0,153091923286951
0,131866317805439
0,119739869020133
0,115778023115181
0,126831741732787
0,126734662581254
0,118092345878801
0,131988986059051
0,159871368554229
0,141377703123139
0,176605447304461
0,145308533789426
0,149983896342575
0,13047935775653
0,214227906596355
0,266953936002863
0,195055603524583
0,162876419613022
0,165786228569087
0,219876261638075
0,221956741323441
0,184910228464179
0,165119606320562
0,164861591466604
0,164919505987621
0,182028626975475
0,188798989286583
0,201190973480973
0,213115521003974
0,19227002738627
0,202002750197636
0,236634273919782
0,323862221269037
0,301211556627303
0,230724364617475
0,231901393601857
0,255262261487364
0,249289738653054
0,229781691180906
0,236334823762916
0,226998475959789
0,288442403846712
0,281021579257828
0,279477709378341
0,245237794500436
0,288531192509546
0,280129462216638
0,29300061634917
0,33454449092951
0,322185981815693
0,300699126905967
0,280051133405514
0,304751419704601
0,291037234674989
0,317958505800726
0,334233462567684
0,345437105335975
0,327098694949829
0,319574153295355
0,327752053358011
0,330700221057022
0,341451015886068
0,345575889955966
0,36503009830231
0,395759356354931
0,449365408653057
0,533427565935166
0,393061622664913
0,377228699851593
0,348781608448159
0,387114474726613
0,400630597193977
0,425836260764097
0,436487219022974
0,395119780799665
0,373315859497655
0,365520842589176
0,372779149487977
0,364721995101961
0,383048095972752
0,36844400290549
0,375581761596293
0,399920387573915
0,383473790106523
0,46746055339326
0,432553508482888
0,399619648720454
0,356098772667371
0,375630261071704
0,360838015996457
0,379636713129615
0,351380325710361
0,403753792134238
0,379263992294676
0,386708144746134
0,342138292954774
0,357442065820768
0,384697291531279
0,373926834045454
0,351364126913636
0,33741556597568
0,334292624494353
0,336899628261139
0,32197919327756
0,38203586402052
0,356893572024254
0,341739326085525
0,304219807868406
0,319896181046308
0,302080914344347
0,302997941053967
0,299356729537774
0,318444779643146
0,292415837306209
0,305771283659937
0,29786621732416
0,305386216972496
0,287715958729481
0,292404465867872
0,295823729427683
0,297477220269103
0,291353938407642
0,286205211617782
0,281372863835097
0,288203695019776
0,284255812598089
0,28749341509155
0,283204679687905
0,293969283008268
0,285766885630621
0,287211815744104
0,284317315231006
0,283817494244656
0,284288679306884
0,289827460041999
0,283039271960984
0,283382545965058
0,28005476139707
0,287264826732465
0,278749807820914
0,282022593278004
0,283374691569058
0,281792806345242
0,284013902749298
0,280196918447542
0,288786468146829
0,280651588492832
0,308386580999143
0,372053844445976
0,301695802197335
0,306564269633726
0,272854158552981
0,295177912418201
0,266134039917603
0,29552860319067
0,338731666738151
0,319133645760237
0,285927429622593
0,275058000483345
0,275121661437658
0,317436377949169
0,279923494804035
0,285924036450714
0,267112462913747
0,290239486107876
0,35007910591264
0,368926432969336
0,492610324925356
0,37052417480305
0,314513261655829
0,275226911680124
0,340094226610068
0,307805577413823
0,294764406924831
0,26564929155763
0,281500399761796
0,342047218981879
0,290518465982299
0,286716336425623
0,265097271781717
0,282408469192142
0,322547219091776
0,321937186232576
0,310607385997834
0,343939366761882
0,320492245584703
0,335393856210221
0,366604617686861
0,416982988041014
0,304928330451272
0,266832378831338
0,273245626657674
0,262797465048169
0,320429820813851
0,322040047694338
0,281348334065704
0,291095818361417
0,248189562616186
0,263573982236147
0,259926445924026
0,309725129701708
0,248751865152896
0,305528488080403
0,278556900653977
0,266972657573893
0,271464372485491
0,288512298010015
0,339433465514915
0,324594265890093
0,257164880936164
0,241027392352488
0,323311885275578
0,285501677550155
0,279602185202919
0,25991536833112
0,219548983945323
0,265421933122622
0,245828021129606
0,231869476476605
0,262877491144308
0,260332129666184
0,309207541101816
0,305376230567084
0,353639013333437
0,295168533560835
0,224289696976625
0,209351937782022
0,203471259285407
0,220392866441602
0,197847815690687
0,201946798734099
0,264288533270799
0,19185005771658
0,243451524012169
0,245066251730733
0,21650702927964
0,20298164173724
0,197035677611044
0,189899644400053
0,217672555762818
0,257992627740962
0,287281913264693
0,224804108366562
0,249714284625629
0,227516279964052
0,229063373688105
0,203038112000557
0,215650635013383
0,20455527958818
0,219808688335791
0,228103772187684
0,223483155430331
0,219857537891388
0,227414855012498
0,218202521575051
0,304958818383824
0,243251128903966
0,259738085505671
0,280336161734906
0,305894119562929
0,338331329256418
0,270986409433728
0,271692447542348
0,256682514787958
0,267319721589564
0,270400834314146
0,265450164868682
0,315818670462075
0,299982358593602
0,293977483240515
0,282267001581343
0,28997206211967
0,28328274619146
0,306643649572813
0,345428092935793
0,33793510165738
0,422973330768955
0,341360529045275
0,366052462582125
0,304491624023722
0,31511620907034
0,313760509314564
0,311969384116447
0,309003056796516
0,299110718002338
0,33451006851465
0,34280373820241
0,315049504061556
0,319860202608565
0,312065302253623
0,320373713165272
0,311900138251746
0,317820921953299
0,31738948832755
0,325311354323405
0,32514553039856
0,315373376911412
0,357626551313359
0,404418762617175
0,354671429337294
0,347132736525615
0,335886202435537
0,357731304063288
0,33467961250492
0,353071000226704
0,366967524607769
0,360585628431655
0,353853698593936
0,349364193336771
0,356291584952442
0,341381997052604
0,386349868490335
0,379833185422599
0,362301123038447
0,376020901013066
0,35200405900349
0,459338266536277
0,397017879672095
0,42586467848029
0,38568571825778
0,393022818304476
0,370230298141305
0,379310357995477
0,367949948741703
0,383507549392408
0,38206641172086
0,382443145485922
0,375373434742905
0,375289555139205
0,379429296544526
0,376774824658686
0,395739225278297
0,412499870121607
0,386073553916495
0,382784568872392
0,376986453389949
0,381291811723546
0,379283130912188
0,428537408761313
0,398594499230637
0,40755438324487
0,381122759214847
0,413272783509762
0,41673113463798
0,400460085148782
0,376282518159762
0,385515136502433
0,371956544436904
0,388460894593604
0,364615324572247
0,413598984744632
0,408280507554396
0,407277538132204
0,381896873451101
0,391826516598801
0,375887914293906
0,393420024152643
0,382375839335545
0,396296755520673
0,390463915963867
0,402648853156978
0,403779591054437
0,397708770648188
0,396346165249573
0,420069923824705
0,430869702018717
0,421816722691399
0,3933782548113
0,405397114719133
0,388086539340765
0,405841151493499
0,397700517064116
0,403012747039287
0,382620351533951
0,396859860897565
0,368812053328861
0,410599411026442
0,421600073936561
0,394580377159729
0,40153396536035
0,373095688854742
0,376081637157573
0,36947419378531
0,372062034212437
0,364044504623123
0,369592621095435
0,369534915870126
0,361007033609189
0,362129510912421
0,353701140039254
0,354658732723189
0,35741367436464
0,359015495374971
0,351401641420455
0,356361342562505
0,348267102593375
0,356560105275731
0,348523162591059
0,35101004703575
0,350393499188677
0,351924169725038
0,376237661248127
0,376213073866115
0,384853326472121
0,356797722664918
0,369166248589181
0,356104268429648
0,350176133238195
0,346099528116563
0,349820375097232
0,345920395345622
0,345612090658973
0,352307026709517
0,346069677907938
0,345484611331733
0,344498563715866
0,350090008394233
0,344157919894481
0,346121650980125
0,345568415252441
0,348941886562879
0,344037945378425
0,351155803141676
0,350419676629394
0,364965454462172
0,347618901604299
0,361578404792287
0,348910680933988
0,351808490136116
0,35290203189101
0,355761787027421
0,360464639626721
0,352100006897815
0,345042349251681
0,348488078638239
0,350540829031488
0,354382816144009
0,345949786222885
0,347486453011965
0,34771291581362
0,34638244448624
0,342318719160058
0,345195098554096
0,337569860486926
0,339232285542032
0,337524262712393
0,333079622522379
0,333283499939563
0,335632895911752
0,326439907026762
0,326475962186195
0,318439483213133
0,323698897683345
0,314854560740356
0,321871482764405
0,316847100045753
0,317091928791459
0,312868135390486
0,317390321325034
0,310497196155015
0,307014753979324
0,305801264049588
0,308683948100167
0,302722845187243
0,307200359507213
0,303295876594995
0,307325422922435
0,303516616698803
0,30730198500423
0,305406471951302
0,305554072418311
0,302800447682635
0,30678785569764
0,30128570155019
0,309684441386678
0,31075000535045
0,314268133129244
0,309357277213575
0,311023495198369
0,311023219399102
0,31605657192725
0,313404799470535
0,315757348626141
0,316309858855102
0,316425613697935
0,315219704505675
0,317006245219761
0,320651187315696
0,31921022477641
0,319222011244068
0,32173094881827
0,318517241927285
0,317954288502427
0,318349097009975
0,320013212089579
0,31979707285355
0,320263503626872
0,315662732667755
0,315470225448338
0,317691629401312
0,317759785822268
0,314030889346538
0,317815831040465
0,314291002220935
0,316402965529749
0,31089503170555
0,313657774101197
0,309049085376553
0,310787066344533
0,309949410360638
0,308579183700657
0,308466780905427
0,308723818083053
0,303059776193674
0,305575089127171
0,300976042312446
0,305160863134709
0,303632477238304
0,301031129351351
0,299498763742424
0,302499166026476
0,299789187460001
0,302129767121807
0,295037069047715
0,299929744471124
0,296117662663215
0,296811392539482
0,292179611887068
0,294915830856023
0,291075749079294
0,290477608932216
0,286298818832411
0,288485029821909
0,285465305578272
0,283691049217099
0,278415693355586
0,282691670560286
0,278487065640046
0,276726981299178
0,274874894181796
0,274220291778085
0,269480459967588
0,269739540279543
0,26472061936206
0,265184098459045
0,262838660149014
0,261204424895019
0,263560494027155
0,26049426637782
0,25793474613527
0,259965321970265
0,257762465225607
0,256317428921002
0,253406660252339
0,256538695574592
0,250823417825406
0,2513366987712
0,247043008891079
0,246572127678181
0,243256158795391
0,243071838352024
0,236800575161275
0,235906360383198
0,231024604169262
0,22757946997788
0,226982868485539
0,22898509262612
0,226558251382247
0,22775428857411
0,227620758995232
0,232551694316308
0,232311532860492
0,237236226041719
0,237588795764382
0,242272380601169
0,248990565723858
0,258789046101372
0,263624432216919
0,274043453580534
0,281049962954628
0,293678671416546
0,300145375003034
0,310436162478056
0,317962421615486
0,329410518195286
0,336983798125292
0,350178176952649
0,357462391725172
0,368567139219457
0,376915260308647
0,386088407090872
0,391329720472953
0,405822888449164
0,410282746102293
0,420852512842931
0,424691738235374
0,432922870123009
0,435973347151224
0,447077146067303
0,446109178862809
0,454830643503131
0,460991742077071
0,464357851806857
0,462122339886663
0,467274843806794
0,469909913662012
0,471123170404525
0,471711204638945
0,474033540772173
0,473862636103425
0,472787761721032
0,470708588673353
0,471314719763393
0,469704609722407
0,472471387773379
0,472464484489235
0,475274317078057
0,473329389539633
0,477169990245546
0,478740609377324
0,487568763899582
0,486423673114057
0,488733395693346
0,491098973423681
0,497007618868131
0,502382662382331
0,503388581396151
0,50951102532764
0,514962255316782
0,517814528525492
0,523554886299336
0,530738968089944
0,539217750491111
0,54561382570345
0,55106595273751
0,55895014918832
0,566087706393812
0,567416218350731
0,573264165656585
0,589976831444033
0,586831499262798
0,591064107089621
0,598876369678839
0,594242258125107
0,598495961678804
0,602343184716924
0,599935516323701
0,597987470942302
0,597161221006621
0,589763960806903
0,589768445737012
0,588691159183157
0,589020707929136
0,593767856542102
0,594329590257249
0,590864956816382
0,601096247075239
0,6058531077326
0,613746182614434
0,61639385407961
0,631757115877809
0,642431554447829
0,651009473400913
0,656014972650204
0,666682705990362
0,674929169631908
0,685701567808559
0,689633679552267
0,706274712790544
0,709742941031422
0,724189952129649
0,732027786197559
0,739945701263764
0,752233171564831
0,762228664582387
0,777784222522897
0,784363297076127
0,799986285615483
0,820600645630708
0,831510171225452
0,844951577966827
0,846432633196429
0,864876619875303
0,878532455473235
0,897731950442239
0,907637516585321
0,910949097280312
0,921367475957514
0,942734107337629
0,954188708548083
0,954357124664338
0,971278777060573
0,969188070429617
0,980388914806968
0,972357781528249
0,98725745247462
0,993477794124563
0,991287152111621
0,976313328338701
0,975733166623637
0,975700243220742
0,964156724457608
0,973190804376002
0,964189167922255
0,960974390848435
0,973660663302926
0,969231211414839
0,972274831281772
0,976741081914779
0,985138808616029
0,987769336536093
0,99417226452913
1,00618484987469
1,00791427002656
1,0341198337811
1,02506037977397
1,03683382962345
1,04898392758579
1,07171962530689
1,07440709181644
1,08352468316801
1,07311774060545
1,0978891655
1,09711966953181
1,11847432024368
1,12020039496914
1,1051341415825
1,11260508337407
1,12835579867715
1,11855030006828
1,14029978198075
1,15778146671294
1,14636534524773
1,16733858454378
1,15600162487356
1,16749795171791
1,17974118312031
1,17337023168469
1,17473069416174
1,18849632076129
1,1892255508074
1,17651679682093
1,20210598438214
1,23079728113151
1,187956653353
1,205425200525
1,21177848428721
1,21034188213196
1,18741402421721
1,19477833362192
1,18943671344093
1,21508679373275
1,1628572126815
1,15256587976937
1,146415412393
1,12972941172206
1,10538315699535
1,09384440597298
1,05730280983065
1,02704755836612
1,00474977925904
0,994116820822341
0,969119759426787
0,939369417890367
0,93034208334187
0,91685248413562
0,912854310510961
0,895446895933493
0,88746954652108
0,886371592083485
0,878142318251856
0,866322118927678
0,870022771526334
0,861362287225088
0,848628040722561
0,859618614442922
0,838061746324364
0,847737799115813
0,836606120539513
0,824582621104778
0,815992553342383
0,811010406852047
0,796387874943342
0,79636684507233
0,777020230604649
0,765179542742866
0,755934232489617
0,72655039244046
0,712049541349103
0,709804609169055
0,685905086921893
0,670196462052205
0,644403715115558
0,627846483240492
0,611291194792067
0,592322736481253
0,569326052791796
0,539366506391077
0,526714297113751
0,511520487906395
0,494692655270369
0,473935329398847
0,460179410156641
0,441770724573399
0,430945867191338
0,417437136867726
0,407600966700133
0,395801059644581
0,391512156546572
0,384659646093428
0,374869098078193
0,377455432078633
0,370615812630801
0,368895929368657
0,370281890910214
0,364293727853343
0,362438332214376
0,362321717938074
0,358832926952347
0,366753352280528
0,360669583549057
0,362406823218661
0,368195304111746
0,370199423169853
0,36267112174027
0,361321106974023
0,369346034368713
0,365201485231805
0,362736033646549
0,357639783699297
0,353822211077953
0,35508556530057
0,352225940492484
0,353885435933382
0,347021102817265
0,349517089628774
0,342665388433906
0,343386854952121
0,337535160056198
0,341787324618182
0,341779059087562
0,33815497252312
0,338202341483747
0,341364869950058
0,344872111680445
0,341000155803271
0,343971826341176
0,347312172721183
0,346187550185931
0,346579729820479
0,348590894858738
0,3571761531308
0,353043014614897
0,354686248451979
0,353092127698265
0,355842802204403
0,347770545860705
0,356544193801167
0,354370792613576
0,353760542499066
0,355580997055736
0,35573391283256
0,356317597706755
0,358296035124396
0,357054772045082
0,355869166349182
0,360467617052098
0,36062123351622
0,358186283898635
0,363678222194722
0,36777780973687
0,379800974039018
0,379669201492824
0,381772442002299
0,392270119642535
0,403032833803277
0,403057682348786
0,419436779121451
0,41988668205038
0,430275598265866
0,435732406563658
0,443385343462374
0,441082131861352
0,440413271882014
0,435439159205903
0,436506420982439
0,434574636402261
0,432126148914835
0,421858522754885
0,422733691318795
0,417322884901908
0,413520478682035
0,407672076277718
0,406307741554968
0,40465753461407
0,407638836353364
0,415641547466675
0,414253236552187
0,406349717751713
0,399844894969249
0,401567630807453
0,418186708865404
0,410565301911219
0,399104021561768
0,400918388758958
0,408220621246472
0,401651554704941
0,40058244364146
0,396435686324785
0,394208414539345
0,391764853809463
0,395129363050165
0,38131836215802
0,390080688369013
0,388054133922906
0,376756666535135
0,377187407301179
0,378245717288593
0,379638503751363
0,380964745388091
0,372580112035188
0,373120456676885
0,364414335420133
0,369829709621723
0,360297949583579
0,364085970459645
0,360762573267415
0,360239233303445
0,35189915111303
0,357625426489688
0,352956174300614
0,345285197567701
0,351514422173045
0,361036606889431
0,361481636067055
0,355132683139266
0,350917381107773
0,357143793301499
0,34618874811943
0,347874394141855
0,347383312813041
0,347419965002437
0,339373836251566
0,351774864202099
0,347980028859018
0,338371998292772
0,337507552566201
0,338727077155234
0,332151096002586
0,326260702792348
0,329650831535132
0,340471186404044
0,342630002899223
0,329454271626867
0,329887428260871
0,338218392702719
0,336534688214708
0,346149817089446
0,334858287883624
0,338833880922664
0,329202467293169
0,334855261169144
0,339678169960304
0,343938398197313
0,344963690989992
0,344856659585542
0,343813276088212
0,346737542893016
0,352383077805771
0,351749268547986
0,352322594307109
0,358542512113897
0,354010726481065
0,351486406416705
0,360072902764324
0,357225408780397
0,360820520634143
0,365143047560902
0,37065828798757
0,373535375081111
0,364217464353385
0,380188872962631
0,374114168279192
0,383775984817391
0,388260808926108
0,408802423090564
0,40678409782938
0,420601149143549
0,435135861125767
0,434050246640041
0,444962536516451
0,469527719861735
0,472371503251509
0,481668582630292
0,463778039045159
0,49295987352711
0,487796746586257
0,523609149763028
0,517102421797739
0,50639618591774
0,495331517602552
0,528364053684288
0,504022451756782
0,508578185116677
0,528572220976118
0,534957758589284
0,516135869937521
0,502641415889851
0,498598213504072
0,51242656599139
0,511746729321737
0,51239742448136
0,490110418782745
0,523067539817159
0,5247888154765
0,527242663988008
0,510318968596662
0,488774873653711
0,497271322355455
0,494451215533993
0,507034741937872
0,485668853311443
0,495892769566822
0,509999553937575
0,471161352349645
0,461686653122937
0,485463926838795
0,502237859892841
0,487939443683578
0,490280759768254
0,491504405937483
0,472799701926137
0,482498599351566
0,477877459501188
0,493963992222951
0,483500973415205
0,445902106907952
0,495942691939771
0,478194706083393
0,467396307776645
0,485424475341344
0,48844457963654
0,468680447646891
0,50754308260546
0,488266869770601
0,49205710165695
0,476834974837125
0,499343043937253
0,489467018323831
0,508249651254278
0,512326114826993
0,479197840838827
0,483908641980659
0,534465958622795
0,490263881869854
0,480814354976958
0,485647322777794
0,486570589447855
0,446121839158057
0,482306465533981
0,511577754302676
0,499373676517266
0,474344245415545
0,484260866636789
0,512613585172924
0,552441935453997
0,534055814299972
0,579630286267895
0,550702561202632
0,537897489261058
0,567478787407
0,536314827659815
0,497440070607549
0,540885782133969
0,562002019077192
0,549078935823501
0,530704370712917
0,618601807714664
0,574604258634254
0,568417388913834
0,592263700514445
0,592378191083733
0,598533582835723
0,622156823231427
0,589453650282226
0,622581149912139
0,673491779836212
0,71720205378101
0,663163922733271
0,678297847984354
0,589525031295671
0,633037415155632
0,691025002213285
0,630304581571302
0,631470952217053
0,74705609810796
0,649922738370565
0,693219135882989
0,676592313406025
0,658536051502206
0,582715586444255
0,569179211854377
0,629891714520995
0,549041893361222
0,607828295239036
0,626996801273738
0,556035715365475
0,616089916183683
0,704338534504442
0,713648588717572
0,591686633406988
0,75637031537459
0,680279033073373
0,703476490726631
0,604392643078557
0,567009862648848
0,644430375673315
0,658669791965618
0,735684115657721
0,992278364287256
0,571987199658967
0,560026583143565
1,32459298965709
0,536156790193575
0,50431570120888
0,726847218423365
0,641793008576033
0,666176616193441
0,7474605442236
0,762822111375311
0,68011475108983
0,636731404816726
0,476289426345473
0,831580211759143
0,812837022509461
0,591065339703739
0,530642728588475
1,09160794038929
0,66584490791377
0,637420774379839
1,26069540952843
1,46593271182418
0,580211870087264
