3596
4000,36533379555
650,420452594757
1
2
2
0,0537396037922848
0,0671931641666013
0,0513996204226661
0,0715324288160308
0,0674407254900972
0,06507069929133
0,0530528374662967
0,0637859996096525
0,0530981440725452
0,0660916095695459
0,0558342684878576
0,0613411126878958
0,0449092496681348
0,0653944709953507
0,0507437440841564
0,0714286679717757
0,0580311728409438
0,0663012708056787
0,058052413642093
0,0657434284485296
0,0513159519348978
0,0578345123811041
0,0594060816628015
0,0673408759843813
0,0628137818477413
0,0655071706523264
0,0413537372956886
0,0687993804712587
0,0575996759159325
0,0627316735476399
0,0534262673723804
0,0718178819956178
0,056465804581985
0,0622655865785401
0,0505814105569408
0,0629795243660943
0,0524346356145459
0,0735683102699779
0,055042047719062
0,0646122575281737
0,0474765658241815
0,0635907498597374
0,0427495076762995
0,0653120231329115
0,0591396094198925
0,0684779771517205
0,0580409282158952
0,0680194021451706
0,0499490295764895
0,0626704876649521
0,0561858552251017
0,0601834978466165
0,0632683262764967
0,0670175421395278
0,0726751588617094
0,0711325233485929
0,047802154166599
0,0741685994179059
0,057236381247296
0,0739350633002267
0,0770035212403828
0,0521593775325796
0,0583312989707344
0,0630456015415384
0,0579124523320655
0,0574444375021288
0,05094667035514
0,0535262961354191
0,0546894467301826
0,064242843386772
0,0492564899033314
0,0975748341347923
0,044200915922505
0,0741815296035988
0,0655573990622127
0,0671641017728927
0,0547820819431454
0,0636869427083619
0,054404121061162
0,0869032210034627
0,0594128158582122
0,0681072893613818
0,0457825262913235
0,0561556285380333
0,0662631487734821
0,0709832033934031
0,0436994527614857
0,087280047557356
0,0588613630756094
0,0654842893257649
0,0473834649664192
0,0685519321224158
0,0457280315594111
0,0697023961745568
0,0514186651970102
0,06450772321536
0,0475809919420509
0,0618030965725624
0,0448663266739697
0,0829531629896707
0,0572664800953023
0,124026063545255
0,032892182414241
0,0857390944527764
0,0909979101882941
0,0393607016033696
0,0846604786020384
0,0626675176000694
0,0530171658816204
0,0648378400191099
0,0523539898206778
0,0655057067549537
0,0597753284071401
0,0531240771342847
0,0605366458843287
0,107792817299881
0,0423731333925012
0,0565534312995758
0,0417658436711253
0,0671132231701948
0,050805680532083
0,126956191842493
0,0336127868247064
0,0718157771342995
0,0542824941775116
0,0603627804459015
0,0730140373464262
0,111221618166188
0,0302744405033713
0,0680775224752628
0,039835618699814
0,0664290452894534
0,0377611821920604
0,0957679956573909
0,0556523621295956
0,0501011421709363
0,0524847416715698
0,0870029512790695
0,109402654352268
0,0720452286143568
0,0513402456437227
0,0645032827279688
0,0466530933173334
0,0992131646230855
0,0607247848484905
0,0698418341267014
0,0592838109534484
0,0831488959762435
0,0254859383533218
0,0605478488801444
0,0466795904633746
0,0720234993101267
0,0582481689942089
0,0622890725105714
0,0798800430832579
0,180143247205108
0,014989564887145
0,13039837431566
0,0350221873863637
0,0552742437495428
0,0522324980024914
0,0532666330818011
0,0524583648560359
0,0486535769384722
0,0502893145615093
0,0604413709746609
0,0969525221047756
0,0552989451061629
0,0531431499193592
0,0896869662243709
0,0628686561988689
0,0616561729105099
0,094283291157592
0,105159812578479
0,0266899795336806
0,0968510691459057
0,0504792349517913
0,0538937607688857
0,0518092307284067
0,104186725828947
0,0362865146214148
0,0586798408282391
0,0548336999423746
0,0665981561367191
0,0610752804698508
0,0748312800400834
0,0478210598832474
0,0715595843681795
0,0457049248934582
0,081991328337594
0,0927919075578119
0,0968882668222798
0,0324874107258075
0,0642409332574886
0,0444738881852452
0,0843933797934879
0,0942209150125541
0,0479101374625175
0,0583542336476822
0,0542296294664049
0,0404690060574913
0,0628349223477
0,0442024714490319
0,0657025027155614
0,0447007566209083
0,0928039556146261
0,0742004121485979
0,0443877739108381
0,0546044343770096
0,064619902751521
0,0720545433142027
0,0913544552880964
0,0848279588247783
0,0424886030364425
0,062480717074274
0,0571984586364686
0,0624687721630763
0,0810819335028554
0,0454760365470903
0,0606187592639265
0,0481588465469584
0,0596967019113952
0,0495269034712763
0,0609942013467953
0,0559072206460403
0,063885538434572
0,0479009819317289
0,0650846559438664
0,0539224222645448
0,0667084147176414
0,0633588111939747
0,0540779840568748
0,0495212929274401
0,0631457056607136
0,0569252487124423
0,103403430183538
0,0465597397289487
0,0619304466735119
0,0523981934433458
0,0624098990398691
0,0463205414009385
0,0656281528532084
0,0490155289465924
0,0632948582135377
0,0568572306910631
0,0957234724482919
0,0639195487256897
0,0482853830551486
0,0649492620397941
0,0643290902127732
0,0956448507957029
0,0491266394621078
0,0632200456261666
0,0541757338719618
0,0633459359950068
0,056271300227006
0,0880266576676745
0,0679584649080188
0,0461190443043669
0,0647625892695628
0,0792953604673984
0,0593898550395157
0,0702310092430494
0,0690555265765394
0,102290584841886
0,107093103301554
0,0506475237829513
0,131176440899148
0,0547606700458491
0,0445740732946049
0,0747845888733743
0,0648955144680961
0,117357380445282
0,139543107298131
0,045991520958623
0,0664866330436345
0,0699414888400207
0,0708565987045283
0,0571285648931085
0,0901097088941151
0,0682990880912917
0,118411168237585
0,0754169409206225
0,133663343984983
0,0619508139966976
0,0635019502990958
0,118568714022684
0,0502396347796632
0,0696095730240766
0,0590460514486252
0,0628759268971262
0,0684478683490819
0,0864309980190024
0,0600032781292371
0,0846634525541572
0,0559105048041627
0,0881025881742534
0,0819591233031553
0,0600069769336754
0,0777029962475461
0,0770327834086324
0,0776361241918572
0,0577672791687013
0,0680211607891936
0,0666610793770975
0,0795025228625901
0,0601427347031996
0,128143204084748
0,0892849643609797
0,0656859734039667
0,0836778880854157
0,0719112376102689
0,0494859619882505
0,0643016302521128
0,0628673239951634
0,0717323157136251
0,0588588713400638
0,0710347054760102
0,0891183118862886
0,0925630951753592
0,0454987502660504
0,0785119280862531
0,0607983476227976
0,0747901972640262
0,0748428332101205
0,0729654794689351
0,0649376416203329
0,0713223643751516
0,0653405280736001
0,0754546172943468
0,10360817585616
0,0792643727505747
0,0822875423664838
0,138633451811073
0,0457811739813335
0,0811418184693697
0,0639424102656974
0,0825966058687885
0,0719877157326664
0,0775698361130367
0,0714161197919105
0,0731902324872366
0,0876692505640135
0,088076323450316
0,0767104153246219
0,106843690090613
0,113479512017765
0,152191426283163
0,0906887962878985
0,0746475021566266
0,0774684690215385
0,0984779314019401
0,137197000960823
0,0779667915363461
0,120300320449193
0,0903569988365702
0,084659305690468
0,0901030214726917
0,0715896410913472
0,0990556001460999
0,0759910849701577
0,0942743348191659
0,0822750618593695
0,107039017683451
0,0882615864476728
0,111070593623516
0,0933653436682223
0,143320547698301
0,100034003604683
0,0942910524961247
0,102094739827456
0,11056871937176
0,109020713683368
0,175486785937098
0,115281756116345
0,198584636098604
0,106662687043283
0,164483655816118
0,117434201162063
0,117116093243621
0,108454110329953
0,119998653523709
0,123349833663818
0,128461575637814
0,119253974409925
0,129216337488612
0,125765336867633
0,141053325339055
0,124495316950759
0,142494531529991
0,133350069816107
0,152765145950307
0,152539965840866
0,133507018985688
0,144470459645972
0,155520746821309
0,204600707526667
0,192673531610364
0,165540284735789
0,140644782902848
0,160103476378222
0,142686511329187
0,16392619493901
0,158959353582618
0,155667101908187
0,17331680667003
0,183114199349956
0,202039354818982
0,160310380619935
0,212130914514956
0,169414623707403
0,181392329884506
0,200939128296327
0,18498480340045
0,221792446175764
0,192694242321168
0,176029128467373
0,202273244981452
0,231241197491211
0,197822868919638
0,211417371864767
0,198886608855674
0,186547920971514
0,21623496645463
0,200476784185027
0,217925770012025
0,203637379150652
0,235253713891802
0,212612118920917
0,217220126810198
0,217511438183791
0,229376749604101
0,236701118546699
0,251067924908007
0,223034694765935
0,252791009110119
0,235161873141761
0,236716267845315
0,239533057905154
0,263656275186006
0,306203516484995
0,278422346469312
0,28553561576128
0,261871591425858
0,239355911080137
0,280376705423458
0,268179959924537
0,274429483221277
0,269424566455464
0,293895752403532
0,277281990820333
0,28121801551957
0,275485427145116
0,281507310608488
0,269243436872338
0,297525277287159
0,2888377714222
0,301722253021847
0,281899929092552
0,317946870460454
0,31723383644959
0,326676189752453
0,355979097708151
0,359440703129842
0,367077631460839
0,351782188273734
0,293587010709464
0,335595273441809
0,318496068425516
0,356237182690492
0,3290108371671
0,368398313265948
0,34469436010333
0,375848472802342
0,365736901069413
0,375554857050511
0,358056943542577
0,379761060889361
0,366631303212148
0,404951571265116
0,380713352525697
0,384944703399766
0,390544422974035
0,403566424359001
0,395998651366071
0,414281784115776
0,388330669232307
0,442250176361543
0,394045609377569
0,41550797511606
0,404436250575918
0,429126601595655
0,417059649097632
0,421524826682922
0,429756654459771
0,447647611900355
0,435736445849889
0,462606901682509
0,428680811520915
0,476224132592797
0,441875995951484
0,462330980068637
0,471379873014503
0,462325821181316
0,478818313409033
0,505275682504338
0,457853871126452
0,499822677287254
0,466361137653673
0,508741148736637
0,506339052853718
0,521674223346976
0,503215330816877
0,537788691034509
0,489501497291888
0,536964755569579
0,51574327445848
0,524787524872105
0,507942525539793
0,534540214477774
0,511884164680884
0,580448818709187
0,553815754700028
0,588755299808328
0,543939793081439
0,572953106348296
0,548154171631287
0,562902721364577
0,540693774417719
0,605568396896756
0,582337084570854
0,587640536373451
0,579412417114154
0,598795754305841
0,600880480375774
0,625824479509971
0,573646279549538
0,629403083213584
0,611758009668579
0,629292357545866
0,618473002789334
0,624826196780803
0,613398565223163
0,641769376760131
0,615586331176975
0,668079294465288
0,629247250491222
0,680698044418379
0,666998828939614
0,67839431818842
0,649332337465652
0,680577812084408
0,667072475906108
0,663818167674112
0,685590622717135
0,682491272949012
0,659457828154041
0,716273192078687
0,673848087160685
0,751474439870726
0,688014933914183
0,710471000179592
0,704495080045788
0,759765674532869
0,688809725940661
0,746446398739695
0,697550637150793
0,725095091590013
0,710120731572057
0,705181002530378
0,730592150194853
0,763210662018111
0,752803600143539
0,770545278728262
0,769882230941645
0,794703985953797
0,761897198704566
0,839816583335314
0,793246396668174
0,822344746307552
0,789261848290804
0,824098790579254
0,762189179063585
0,808820943999762
0,787320969748925
0,849121713359632
0,808358811613075
0,814202815275275
0,822304431199693
0,822900772114295
0,78462076319634
0,9304382081338
0,828312089248796
0,849966470783864
0,791794748409172
0,835255649212222
0,82115072394739
0,850711950854384
0,846569952562435
0,881590398131121
0,856573570112429
0,883788087912202
0,85059442657255
0,854698518406696
0,882400716610207
0,923306681673374
0,857413224733987
0,910983271082033
0,92316799774906
0,942579051534899
0,86671368871462
0,92033988386154
0,891742880544565
0,949088994036567
0,944830822163568
0,969037141249339
0,900117774938164
0,948614573454674
0,891218253161539
0,978612172195031
0,934453810832031
0,977954085495736
0,947029998528525
0,978258019403738
0,92726998486964
0,987520651614692
0,977222798631793
0,996870548189047
0,980429551016499
0,974384844118045
0,919893230054096
1,00719370528556
0,968597936602953
0,987326578021207
0,997959274686973
1,04883536191805
0,965554054674336
1,03166503452582
0,991088548728653
0,99921622537517
0,970741184492515
1,01479339813874
0,944878720524027
0,996827981894308
1,02163935229957
1,05738962670955
1,0502650699761
1,08968780711846
1,01965659269112
1,06214797293752
1,00505568791061
1,0130395766824
1,02898861556447
1,15809225717009
1,06904988637717
1,07864384543859
1,08027488520246
1,09779198093659
1,0757188969606
1,12041697116727
1,09199870319399
1,12427187743108
1,08196591949017
1,06915236692574
1,00413992112221
1,11118961646872
1,0653215967681
1,09249742993835
1,06657232432308
1,15160583120139
1,09874358859785
1,1066399743293
1,03843621519943
1,10883840739209
1,02046452628449
1,03809387203188
1,12782009606816
1,12377293822458
1,04392143468028
1,16621114435948
1,1568862093165
1,10536613251286
1,06777454466828
1,17126873593081
1,16113359984249
1,1260269941508
1,099261800121
1,16164258113071
1,13847204382011
1,12377688471212
1,07271526630334
1,12670659769268
1,15798789337295
1,22077846148849
1,11440480879423
1,15341685147127
1,1516650392594
1,17134187954544
1,14844548670281
1,1576727892888
1,05775565270455
1,15375711944777
1,16760558650587
1,09167423086592
1,15401868214388
1,19584974144999
1,13309042755431
1,20284799107382
1,13202557406202
1,16567741518768
1,12041071821007
1,24741258136246
1,14770208428873
1,13264594564876
1,17065804296534
1,17314112813564
1,1585746608299
1,23271899430253
1,1657024719794
1,14351794128562
1,13381899492444
1,17094446790134
1,20604219891171
1,24646822547005
1,12399389679343
1,13735611737965
1,14450046919618
1,1661943310032
1,1720720914994
1,19306346459145
1,15236100508325
1,1794526431119
1,16112758749429
1,20697727098634
1,20650025787417
1,16012134058306
1,12002342948185
1,20295617396069
1,21491497292474
1,19468814925669
1,14487780232572
1,11608080896351
1,11356955242372
1,21506873900435
1,1640135906917
1,2128574270113
1,1781166460513
1,19634964227078
1,19506382845756
1,18931279228954
1,192082714339
1,22080908430956
1,21385250172032
1,20455239027388
1,13287184519308
1,14094241417609
1,17973954423038
1,23139705468797
1,12381639429886
1,16416763552738
1,20484824090607
1,24622612665148
1,16103853751536
1,23364080246209
1,19248521636243
1,23123893717024
1,15421023621019
1,20313739769781
1,17723126603907
1,20142698813367
1,18058320710057
1,15269958426431
1,19254592693189
1,2107349830458
1,19836214938727
1,2067103320214
1,13681307827901
1,1689183604586
1,19240790930425
1,18554970249523
1,15664403114814
1,20903820008948
1,18568996269982
1,1766923158722
1,16243274654326
1,22465276044507
1,21164226889176
1,21549556191486
1,1823821666866
1,17106434230953
1,15072864716444
1,18192094985306
1,17732307102845
1,18478406160323
1,16825232616539
1,14623108461526
1,1797434279594
1,17669936534903
1,15209434229082
1,17623005348076
1,1450505065393
1,12638528121391
1,10101115660752
1,1387567241554
1,13692405825438
1,13921022664294
1,13316504745183
1,1418895729963
1,09860774651911
1,13563237903077
1,15067215684009
1,12458754245883
1,11163721362329
1,11945584970794
1,10944640618923
1,14226299332085
1,10422523237694
1,1110918070915
1,08954389893617
1,09998504494007
1,11432686019027
1,13347769320194
1,09332265653558
1,13826821365273
1,11088360584335
1,08813836198337
1,07598817581365
1,06315363782216
1,08653717715426
1,10522901747209
1,08783244314691
1,123090987222
1,11207601967613
1,09994508923777
1,10882148205577
1,06027889097735
1,07450087176341
1,10031801417344
1,06936004236457
1,08044066105623
1,06546619305406
1,0514256453684
1,04161115855569
1,06334821325097
1,02829397133718
1,02326683207181
1,03354940974879
1,0865111126011
1,01875229589315
0,97659888679394
1,03036035661162
1,06288287901897
1,01342931012498
1,00029716845418
1,04836703006671
1,04408130389015
1,02574549288799
1,04598362415785
1,02756779666416
1,0174202611042
0,985091607421138
0,99773994113327
1,02420164427784
0,981356866737838
0,979884350731442
0,999126580732866
0,944333094347376
0,963786492709707
0,990874470387414
0,962676315001801
0,963291150024334
0,984425261288168
0,971689590164394
0,941247449361791
0,947225969505014
0,953353716126486
0,968903840372023
0,96509102035662
0,936470759061657
0,935269706500628
0,94388287605264
0,927794484753296
0,91729353207467
0,916221481154687
0,919745704724397
0,91989566044915
0,916897755547115
0,933197406230922
0,907199733669032
0,892251309373997
0,907332114853357
0,890514140169474
0,889963826698531
0,882778569348553
0,860291346455006
0,875912707983265
0,89775239721218
0,885406784618121
0,878178987443941
0,867531857068101
0,858534554001677
0,866564323364104
0,842855287105441
0,84609339556411
0,842219750882534
0,826790858761432
0,840065637025551
0,83678538779325
0,836644246833075
0,826266496088712
0,82960886209763
0,829736815040439
0,812667739820444
0,819132977974884
0,811300481262352
0,810155006516306
0,806833662283987
0,788163308162602
0,789677784273154
0,814012398264995
0,816814514515133
0,782862631915124
0,77480659300253
0,766225658134144
0,761219048933527
0,757499430530112
0,765872181495944
0,756007558755414
0,750633086262068
0,744959232813337
0,738633824644549
0,73716898999572
0,749628336767548
0,743856108792142
0,736995177436605
0,735975888130233
0,737566620773501
0,716024267093969
0,715827682187371
0,713094668352802
0,719313605463889
0,707669445422795
0,696679218624661
0,705857508009713
0,712048654909763
0,693659032589037
0,69235498567802
0,690934398665551
0,699359438481019
0,689279814053851
0,683275965356951
0,686153738464201
0,686676950490875
0,672064753373232
0,67255173589632
0,669329999946689
0,671033509615568
0,667649394789671
0,671071744299749
0,657013193217502
0,653265974401454
0,645761988384771
0,647288801759443
0,628209695849908
0,629103834048523
0,635743694777153
0,630042117419134
0,62634574993185
0,617141293175562
0,622165435556793
0,632810785224489
0,621864440434936
0,623705093731226
0,614016754641181
0,614437744172095
0,607102084350925
0,602628692194957
0,594586820833121
0,599862079230183
0,594253224325805
0,599046053119745
0,599344717313641
0,589380099898772
0,587914270444366
0,592161653979637
0,584997756926775
0,57767672893435
0,561604763369624
0,571333138271518
0,566289293072949
0,569769155582876
0,563416364656159
0,568664265534172
0,562171480888191
0,556959513048394
0,555077160355107
0,5480713689958
0,539696186514216
0,548265175000177
0,546047897853248
0,537795558794813
0,534835068988587
0,553233424307307
0,526237420842396
0,524269563891762
0,527190414681766
0,522513472246995
0,518415331880353
0,523742771548788
0,514209539903554
0,518536351040463
0,514889662977046
0,515311005015801
0,511159566301463
0,514760343846267
0,503241803369992
0,502748353106615
0,493635707098036
0,497098689309758
0,497161181632262
0,49533562099518
0,489698386161918
0,486064107634433
0,470415941334867
0,479721542792776
0,472101285085664
0,471830671762606
0,472068961500146
0,480997977829598
0,472639226284834
0,472052000677419
0,462847812491397
0,464509937873422
0,47004140683709
0,464696422962321
0,452801522022692
0,469056453997747
0,453589548598599
0,446967270994089
0,45102536104053
0,449553328727942
0,439121608515863
0,437955395032401
0,438563313431989
0,450561289869767
0,43511449529054
0,428386818936333
0,424608840567246
0,432289589384245
0,429953877557096
0,425527984513842
0,424722927958084
0,43243258819932
0,415803526490213
0,420735353495464
0,420198819379715
0,419336389325971
0,411110703348984
0,416524771452637
0,411297755712248
0,420276008881529
0,407663714145473
0,408278549798184
0,405347800249236
0,401851873628294
0,399759640750394
0,408885466749002
0,404094807503306
0,403760141554597
0,398295956500363
0,396735660201195
0,393611131799725
0,40504818990433
0,392281755601467
0,398593526649274
0,400356248716239
0,398381778573932
0,391942189736131
0,396486853238096
0,395272731828428
0,398209305625802
0,391275267741726
0,397029872056543
0,391134487655436
0,399547901058764
0,389296226549185
0,399264199963716
0,389254067492519
0,394352449812793
0,390570592091944
0,397914324243782
0,397579298908112
0,404632483781684
0,404427189128122
0,40218214253544
0,401797283238384
0,409709270570816
0,403162422255155
0,408947138214136
0,406812535226756
0,41254846717622
0,404945826831179
0,417623492955825
0,413366302107565
0,418448748760534
0,419692296384836
0,425427236692408
0,416471884143334
0,423782341733107
0,427086010882908
0,429295831830449
0,417176772195656
0,433030843158062
0,430591499167143
0,430358228275889
0,42627299414351
0,444605373588263
0,436894865709078
0,436306194272512
0,441155547597997
0,445565981610121
0,43895619996069
0,444904822290617
0,441563576134166
0,461679927105392
0,452635237908993
0,456695073938453
0,449672703223671
0,467270225394079
0,469682144299189
0,472064772145357
0,463775673596557
0,470466096697032
0,475807335004587
0,485013459494806
0,483161097521962
0,501268467026989
0,491010323971802
0,490158314914262
0,491188422346809
0,495370856295014
0,491681326269367
0,503252225063145
0,500534324012036
0,512905168404337
0,499911774271409
0,521033766902569
0,511523827414014
0,509744078405983
0,50444351607703
0,513868257487773
0,507059451671206
0,524955265023136
0,51481209239059
0,51810822558352
0,515185291235192
0,51069405241644
0,507835132602502
0,534030508772393
0,512928383988178
0,513593412789208
0,503143273107781
0,516211080930554
0,508012839824869
0,516859706384569
0,51627241985129
0,513051684849449
0,50367957833221
0,519862721660858
0,509334049320628
0,51758898357
0,504608551425915
0,512957374171811
0,513801157446353
0,517822143122802
0,502083828178765
0,512976098565475
0,49967454091009
0,515218584783018
0,512477809320901
0,520088492758812
0,521537489543768
0,519477384394589
0,514615456160572
0,51206050414317
0,505598531690695
0,520162754844567
0,517548886442953
0,521711052857234
0,51611946258845
0,524392435722396
0,514869450162952
0,524371951379576
0,513404283221962
0,525592344041285
0,5090888805354
0,517111715090701
0,510548062987792
0,520707068069447
0,522848888290599
0,519223482013107
0,503140878150581
0,521926902084442
0,502870678487534
0,508735348604997
0,50276092179462
0,511792687308352
0,499655521903382
0,506539622142881
0,502717139946005
0,515177396111592
0,488578174952792
0,491387177142977
0,488684701548902
0,494592293701055
0,476752101410842
0,494022347097348
0,480259287248277
0,47969595257931
0,475271037220382
0,486128717735791
0,464519233200484
0,469347219159899
0,460127492675327
0,470911797025372
0,452231746822692
0,458581529645423
0,445980771552825
0,451895831255946
0,446212326997939
0,447872372295668
0,431306819676138
0,448589044029616
0,433042610498598
0,435828503849115
0,424389317957943
0,426051081381218
0,414747101542754
0,424535124657098
0,418595845701672
0,41721767189461
0,409178818678254
0,407372657792161
0,405077765956289
0,41263990883427
0,393852265439229
0,406704916384548
0,400454269582518
0,399986256355668
0,390782861747183
0,401608085438437
0,391164768881661
0,392639451252704
0,386216044664883
0,387139676365419
0,385465292374951
0,385477166550176
0,376812537377595
0,382503176736396
0,37262386062234
0,379219714263723
0,369883863565748
0,369340081120628
0,360843585601206
0,371602172504797
0,364534658288932
0,373821436641313
0,36201241160906
0,367452320056415
0,353434559075643
0,366056507639696
0,351989543395219
0,361046143551548
0,353849987590953
0,356464935466724
0,352040669716284
0,354543906161036
0,344797386886181
0,350647795909701
0,34507217873898
0,350721289156321
0,345021179935723
0,352826076422402
0,339357404738186
0,341064511049873
0,337653944462472
0,345157539245046
0,337194595104752
0,342205954458936
0,33487681594315
0,341918594764103
0,333030615394966
0,339815952953655
0,330169064961359
0,337693626985662
0,330817115865598
0,336463591869421
0,319624414502195
0,332780874181965
0,327518135512947
0,325792065960302
0,319006099818286
0,330200874071038
0,322935404666039
0,328473758824392
0,321307700822816
0,327844218983586
0,321743376851145
0,32291528111515
0,312024722376541
0,320703070575085
0,310341036226645
0,326535597384257
0,3140660331907
0,318810232275923
0,308072168865186
0,322838937717342
0,312558922057746
0,318011806883017
0,313833545204515
0,318201797193052
0,305514192611547
0,313349690969435
0,306589534685208
0,31224141298239
0,301208803417564
0,311845195688723
0,299163330346714
0,31158721573546
0,302733036098897
0,304972088364705
0,300781644480851
0,307406022195414
0,298501362121906
0,301932136755964
0,299195350287024
0,308750504571075
0,297947277263097
0,304817935974091
0,295564949877429
0,301686319804355
0,301523382995371
0,296721926904948
0,295742605069633
0,30198709008676
0,290538941849579
0,299936562295157
0,295584031019727
0,296516139082099
0,285734615741881
0,29713700048285
0,288310365910626
0,297703744111624
0,290804875612411
0,298644289883116
0,292475259679605
0,2984053386339
0,288392572679868
0,293387287931005
0,286086652377868
0,297102194174176
0,286398432040927
0,291664051852519
0,285975471830544
0,29204175097818
0,287874442738353
0,291883841679829
0,287432149575847
0,289565243853995
0,28168100867606
0,290816216449941
0,286501899755398
0,287020093614883
0,284971301508871
0,28943869562606
0,2843060274002
0,291032198173681
0,284019195259664
0,282661798017121
0,277356380152722
0,286262046800197
0,283006931412924
0,290941244016908
0,276240849506195
0,283675286716637
0,277025803916125
0,283093362450325
0,274561861563837
0,281218359465399
0,272075458474134
0,282662000604394
0,27512030518159
0,274747436327223
0,273119138282105
0,280449407275989
0,27183523543028
0,273295148920627
0,267387399698061
0,276404116377818
0,270428565222075
0,274794327607427
0,269847228834562
0,276824009122037
0,266579285669258
0,279258203926081
0,264539410293607
0,274641338540769
0,26659943419459
0,272574528522249
0,26369178375098
0,27367055614542
0,263762614947923
0,272931454916522
0,266725916267124
0,266961324427531
0,262969208694438
0,265704701569666
0,261715254098302
0,265480579945686
0,253432093621469
0,265612607042571
0,263652934246785
0,264917717638795
0,2565682547565
0,264018666639832
0,25702251275289
0,26105189504065
0,25547954153843
0,261582784735025
0,258384580744052
0,25767308612178
0,253521997831596
0,26301145785978
0,250304848494507
0,253988396199683
0,249580999091431
0,256349989373001
0,246199193555202
0,254484261986595
0,242583851127954
0,251967422113705
0,242257956641521
0,252019828768651
0,246824544715962
0,250329784277765
0,240876234233314
0,249979226413041
0,245697611100957
0,24509410059736
0,240422572732864
0,245622055750573
0,237776327443514
0,242535885173827
0,237459403721788
0,239031788036133
0,235463460458713
0,239645060265459
0,231793303412139
0,240375433186128
0,233493963128151
0,236719788633588
0,228915802357598
0,234706908072106
0,229372035722849
0,235363004252454
0,22432250984911
0,233381858035481
0,226618194677445
0,230811314372021
0,225367753399727
0,232197702370465
0,22394800294909
0,233680304858934
0,219583578899673
0,227464228249383
0,224770918922314
0,228324126444392
0,218774888387823
0,22402597690364
0,223486652597597
0,225848432583563
0,219437515632729
0,224473417079163
0,214791973516156
0,224958629144538
0,214633759163798
0,21858449225871
0,219309280046842
0,219220377728267
0,212555003714438
0,22284369611198
0,211103125518216
0,220370852762208
0,212119253951189
0,216009011623267
0,210369737450849
0,216143619074073
0,210060910508515
0,210427713419457
0,20973833329171
0,211207395584296
0,207287722646947
0,213338954008308
0,204619085239344
0,213424987638154
0,207378266391204
0,211583122153734
0,203659004028738
0,208311234327367
0,200803597640159
0,214386576442478
0,205176009955506
0,203660780783509
0,203695353638564
0,204497457413722
0,19926333140599
0,205844153200391
0,201804096543472
0,201323305946031
0,198441160739051
0,204229271947277
0,198755116027756
0,202273817443057
0,197886787769065
0,198284014588833
0,196650860404962
0,203167276892206
0,20323322428702
0,201344743542632
0,195618012057944
0,202904117745023
0,194165092517714
0,199373110884994
0,197619690220646
0,198661632667172
0,192926459101315
0,195690423867158
0,192536800906697
0,199209106220166
0,192600966975021
0,197660129987363
0,192257124993768
0,194131361106003
0,19100928526981
0,19903535391349
0,189763578693928
0,194117067375435
0,191320919293914
0,194400958435748
0,191209466962064
0,194229732757629
0,185198841377407
0,194169972890338
0,185966248003015
0,191691009709757
0,186532803867914
0,193446166621557
0,184778886621099
0,193582918115672
0,185731633398412
0,191905648804553
0,184706945700695
0,190539006312643
0,185511066777834
0,18805419346102
0,189110161930654
0,186929874402083
0,182556616732333
0,186821614229034
0,181261880350607
0,185972102363171
0,180388445507963
0,188657463932911
0,181133919475979
0,187371129236245
0,178377476546373
0,183233795421576
0,177380481571376
0,186565784530116
0,175051477343592
0,181403944523195
0,174152990790368
0,182105661018672
0,177643343729851
0,183490973185578
0,177104140840513
0,181179100839645
0,1743456875344
0,181748671564649
0,173993340154275
0,179674110251607
0,175000273288971
0,17630536895791
0,175067043925861
0,176840417263875
0,176295882089754
0,177836413702702
0,171573377520802
0,178029318348914
0,171085513114983
0,177201102617915
0,172914995758789
0,175772267470024
0,170454474808473
0,178556608486463
0,169183621369684
0,174490070534191
0,168397156336573
0,17323669452388
0,172154414817576
0,174646665290453
0,169537140289038
0,172126175764109
0,168545513815211
0,172197361687689
0,166639263498206
0,169407666973399
0,168413325599329
0,172533271221579
0,163088503526635
0,167670065017065
0,167662784661567
0,169861597175846
0,163343387915097
0,16891885074691
0,161677541382196
0,166061977676954
0,163207106390658
0,166441508299286
0,160153309382823
0,165181481468579
0,157193988917507
0,165076117403
0,157634811515231
0,165056209612854
0,156522573426674
0,165123228793545
0,155684750322933
0,16100514684874
0,157843301944651
0,159030630867474
0,154748915818531
0,160973575149494
0,152732978252138
0,161493627564583
0,153572531350182
0,161044175058803
0,153336186027938
0,155817203315183
0,148738677442803
0,152450404107326
0,148642042522598
0,156488205229733
0,148613188096299
0,154908749689607
0,149684260712655
0,149957546196153
0,145778551494601
0,152119772689492
0,147240393041532
0,151115025952037
0,144611070548572
0,149567667554446
0,142909570471227
0,150923795862419
0,143974851505224
0,145854014374498
0,141046035153605
0,150029828713051
0,140345028923906
0,146952741189174
0,141782955511124
0,148512273847088
0,142028301460108
0,143602330291132
0,140702455153543
0,144144899572902
0,137797733083291
0,143551004966097
0,140347169484387
0,143089347616051
0,136895985344722
0,143627730878842
0,134991534934285
0,139633015377647
0,136991790124671
0,138123075968819
0,134077951977878
0,13877147717771
0,13206324471026
0,13836810143224
0,133168879842672
0,13409569754732
0,131877710454547
0,138230204895637
0,130153317918198
0,133511900910368
0,130164991629042
0,133637894788383
0,130666712740498
0,133241851913404
0,127488509039988
0,13304057323825
0,128331924951385
0,132585555274992
0,123158407502192
0,130188664307146
0,124975392873436
0,130067701535293
0,121701414095906
0,130990660896474
0,122362032436207
0,130437746885701
0,122591122886754
0,12972415638121
0,122367576837563
0,126172459303314
0,122822140111227
0,125299572633816
0,120090587161607
0,125548254932903
0,121990384665929
0,123542177816671
0,122133596343362
0,123956039036625
0,120924785413706
0,123907652251562
0,11645875747137
0,12389174476191
0,117892540661284
0,122915163761846
0,120510788981153
0,121016025181722
0,11871682714495
0,123712796268609
0,120029918808463
0,12152508927308
0,120369947445881
0,125089982680264
0,116046647018318
0,124851713295844
0,12015782525899
0,123457588636191
0,118673540786749
0,123389225763995
0,115942563774343
0,12173650928997
0,114582633118356
0,115255828991585
0,106224970834551
0,118991166869711
0,109705834159051
0,127405004227519
0,111753912915933
0,113017517566107
0,109575171347694
0,117216573048347
0,109092352165409
0,113061800814726
0,110400826733222
0,115339757365005
0,103081784852966
0,116065438020012
0,102411528975773
0,116651672324557
0,10526166168927
0,111580683378542
0,105052471816179
0,110694032361256
0,109045454462311
0,115814785102442
0,106717282398014
0,114922856185369
0,113677770673264
0,111546347826957
0,112273222272797
0,116779717873694
0,104869278265304
0,112784609333395
0,107313535772981
0,111135877237595
0,108788430672633
0,112043663199906
0,107291887648551
0,113406253205761
0,101036260509891
0,112079789261265
0,0981856776647857
0,11159740432183
0,107440277165466
0,11810455058368
0,105011794148554
0,111327282575378
0,093239815203329
0,108861013067156
0,10112448471761
0,119235453223243
0,0946328450050655
0,109508149340477
0,10162513105749
0,117302435760155
0,0989332612108683
0,112745278184603
0,101312997180129
0,114599659799691
0,09818505994736
0,111861957105139
0,106465209441256
0,112665302680182
0,102821850536477
0,111369803259667
0,104838779904148
0,10776577450805
0,10569089326561
0,104529779848641
0,105517807993198
0,104127164159043
0,104835961299794
0,105043210416715
0,101484998516702
0,106294273674815
0,102298740203771
0,106820848732162
0,101191503893604
0,105599176045834
0,103230461839248
0,101731198229853
0,0980591759407452
0,102895844981594
0,102280924265827
0,103882111270588
0,102320123677501
0,10547109738303
0,101000762066942
0,105065777116583
0,0995012701253855
0,105114544779343
0,0996216072421981
0,103641769178083
0,0993689631925294
0,103299586768533
0,0984534454373703
0,104373149670162
0,0999738711113097
0,102384705570292
0,0999849215599251
0,104719287850797
0,101197179560457
0,103995017348862
0,101285893584887
0,103833477416456
0,0969993174824448
0,105295873729183
0,102653454668567
0,102874859957328
0,100128035801814
0,103976984478734
0,101277724001413
0,103082028196088
0,0977875882197261
0,102871799238652
0,100167425325571
0,103450725150889
0,0980389864811442
0,104296619684543
0,0999220777571422
0,10184527806582
0,0985535076240392
0,105380422689961
0,0993555997575283
0,101475416348556
0,0984529816742708
0,1017109370231
0,0997182305074244
0,102323941465649
0,102524373407819
0,102294404599263
0,0980185575625417
0,105607489157227
0,100388403244307
0,103581809659382
0,1021472223412
0,101312065035315
0,100587903422814
0,104098994079431
0,0978352287860003
0,102888161366759
0,0992271679274599
0,10276930906298
0,10076927155456
0,105196728414273
0,0991493325771091
0,101271096589798
0,099809546749938
0,102976275812228
0,101379340826097
0,102864040437171
0,100120079162802
0,104829911241057
0,101575629141844
0,102351097107333
0,101076949542001
0,104443317377432
0,100074740451242
0,102196527342494
0,102879812361012
0,101880673308227
0,101500043248315
0,102443673156247
0,100150096013165
0,104414083128185
0,102658791363898
0,104764096513707
0,100999954391828
0,107415377206761
0,100554758978627
0,104580466173206
0,100678803955745
0,103011394559858
0,100936322870324
0,102544613129576
0,103629312765383
0,107384127744479
0,103110201829256
0,106902564593649
0,101824217477835
0,104375742923026
0,100253999347883
0,107577021120822
0,103780338682411
0,107259167110204
0,103100047613941
0,104654144928804
0,103088571019957
0,106865241759282
0,102648473106934
0,105572203361389
0,102787838523659
0,106552392292394
0,103882549581656
0,106388838703462
0,10276442102786
0,105834505097542
0,101853201484675
0,106965065668141
0,103042608315991
0,106462267772783
0,103640466359731
0,106979739880098
0,103487637008547
0,107441684161416
0,10437519481034
0,107560764103
0,100480622839373
0,105860252224525
0,104669831003287
0,10620926711231
0,104755595986959
0,107725463715405
0,105882949758105
0,105864942187068
0,105764806056642
0,10992067976711
0,103190877919099
0,108806358232913
0,108594199620828
0,107068239106693
0,107126049051054
0,106901464719006
0,105600511074953
0,111992384273195
0,106893043102514
0,110471542850589
0,108465420857385
0,109697841662529
0,107291353603669
0,108647586070619
0,108761173887058
0,11012096364945
0,106695418942727
0,109580891950606
0,109720276861303
0,109568605864809
0,106452109881152
0,110197485401481
0,110449857803268
0,112451201194112
0,108583600161804
0,113226804749798
0,108971351817714
0,108813355331505
0,105211197596191
0,109400798995116
0,106698286125409
0,108146295094337
0,10877785372937
0,110111205036569
0,106388901089204
0,109709778106698
0,106744024254356
0,1099967194025
0,106121869427974
0,10939244510412
0,105123929508637
0,107708999081762
0,104981396105959
0,105847511228159
0,102500415039228
0,108425583583005
0,106824346813336
0,107046003417555
0,101791088764798
0,106487331614823
0,106085983984135
0,104353511335734
0,100694824438647
0,107640865328654
0,106570753163057
0,105179153556341
0,103368045169922
0,105165809239847
0,103536798483889
0,104160469074474
0,105824834954568
0,106689118735325
0,101309215094899
0,105740581576191
0,100669735142868
0,105509189179667
0,10214054580583
0,103460525405578
0,103138948776333
0,103386645022264
0,0994166093144565
0,10524720461082
0,100367173278554
0,102250176697169
0,101389372898994
0,104098737382954
0,100046206749893
0,103270750268472
0,102053053378934
0,104085388698454
0,0992670231271662
0,102677716995515
0,100338495089458
0,101095292617604
0,0992328943812939
0,101465307716587
0,101588917120314
0,103390350004315
0,100428874715495
0,103553998196219
0,0995750533124062
0,102170701237213
0,0995685156868647
0,101716244766766
0,0964621444241458
0,100129065747849
0,0984901271265496
0,100182534755778
0,0986531228455662
0,10018496885399
0,0989656787126749
0,101129823569127
0,0990146745393419
0,100238047488084
0,0982994015834462
0,100020850358459
0,0987915422204538
0,0994497919744235
0,0980407340494197
0,101771626490455
0,0986332097522253
0,097314204596204
0,0979988527418351
0,101463221213128
0,0980592928051133
0,100888540412572
0,098231585705198
0,100859893503245
0,0974984606021541
0,101252908214648
0,0965029802693784
0,100628666947769
0,0961930797923282
0,0982124641574894
0,0952012920336322
0,0978994612829069
0,0981385259978012
0,0973999220892513
0,0945597462561406
0,0979976775866174
0,0951481244981227
0,0980110727279795
0,098475591224034
0,100512925995816
0,0949344394453861
0,097238397911904
0,0981388701671658
0,0962479078667288
0,0965862231798404
0,0975102036246812
0,0913369992705531
0,094528287957881
0,0948408773153692
0,0977972132873201
0,0943540108329863
0,0950467559527563
0,0929229238476817
0,0934774803128595
0,0929712815052645
0,0939555103120867
0,0904001466948246
0,0950643396683719
0,0896135451997275
0,0914535423540044
0,0901270269931538
0,0921856228099119
0,0911055815844666
0,0918920535163691
0,0899752648386084
0,0902375008922933
0,0891351307520147
0,0904261726126451
0,0887214701999878
0,0906123327408171
0,0934796883512048
0,0914536903106205
0,0861813367708625
0,0890658082527067
0,0876915328181159
0,0882069106777191
0,0888606136720641
0,0876241215322972
0,0855577937145553
0,0889182337734018
0,086384060098261
0,0847077239909877
0,0835176630505795
0,0865090487151726
0,0848141683003166
0,0859071741982599
0,0823854906798854
0,0851360602646838
0,0818015420040827
0,0839569306029893
0,0832449784565501
0,0829754892596818
0,0829966327608933
0,0848583713499413
0,0811869098102443
0,0817680233634988
0,0811059037022562
0,0913667094201619
0,089481557048354
0,0821512430335097
0,0790924768661858
0,0857906451983837
0,0810569032518672
0,0835995941635922
0,0809668875898979
0,0826509316082071
0,0780516261769613
0,0814224856211168
0,0792371075670256
0,0808872181040175
0,0776061688702568
0,0802990383856366
0,0791071568143833
0,0807965807110502
0,0776174187778121
0,0813124603718526
0,0795679598696037
0,080917644344359
0,0804313736753769
0,080441745149653
0,0785702869067943
0,0800806831704075
0,0738777447062543
0,0849699884096252
0,0843621346527152
0,0851647785105211
0,0785555653405091
0,0780504878671482
0,0758889549568236
0,0770449757692661
0,0737421854941246
0,0781198363336605
0,0769082766223055
0,0790492379814378
0,0762113986162723
0,0760493398413175
0,0751239321412495
0,0777981162410636
0,0747134765226061
0,07724593890718
0,0745978385615333
0,0748337246805331
0,0724872174595299
0,0796307994794035
0,0753066133712282
0,0736725591640582
0,0731911351392102
0,0774470445751501
0,070572884843378
0,0745904238057638
0,085259052893443
0,0771695389982871
0,0793256815773599
0,0740444315439107
0,074289186490009
0,0701026608127469
0,0738583134128317
0,0732076155778447
0,0723493258722059
0,0713106306052775
0,0735529827468875
0,0730941292950465
0,0724773542150224
0,070674098859729
0,0711608067535128
0,069707809195464
0,0721015094083248
0,0709924514379549
0,0717046218407482
0,0694230761516143
0,0707338683763134
0,079765565192445
0,0801050452029678
0,0733141018963577
0,0726186043407061
0,065797429626966
0,0855846793144861
0,0772090527009401
0,0742693890830747
0,0687892088708063
0,0693642514427742
0,0691519305682124
0,0678980160076385
0,0711401347348735
0,0681648675407022
0,0761571707394951
0,0712174983898288
0,0770734478817442
0,0691694626240578
0,0712035667782975
0,0686658325507701
0,0714256388638052
0,0656671639685584
0,070054103932968
0,0680553149126818
0,070169142525847
0,0674129119688783
0,0673165155754474
0,0678953456920862
0,0679844336297026
0,0669702257282812
0,0768036410933877
0,0719186431961778
0,0704584826317575
0,0669245686334006
0,0677695878406688
0,0648800848246313
0,0827276198483198
0,0667366379406729
0,0744540909024017
0,0630524835464086
0,0698734686028887
0,0652742138505237
0,0710495054907145
0,0651214904807776
0,0685484257715433
0,0639792525257452
0,0694998106928469
0,0661047942754268
0,0671282033670807
0,0646434250104437
0,0686023053551894
0,0662149829844192
0,0646892414760622
0,0667726258571573
0,0656751552945209
0,0687728809891035
0,0634521892939609
0,0750008161322588
0,0827799944990126
0,0742044340031928
0,0819408318919436
0,0706083519055212
0,0705715942730265
0,0642173720594822
0,0692674644468425
0,0612147254038985
0,0705694185793201
0,0618595478202881
0,0687598449995596
0,0650654236289921
0,0727081604762217
0,0636646200742302
0,0692286243443848
0,0614651179348096
0,0693883980333414
0,0608791363996858
0,0712611650749813
0,0605656077256824
0,0712737401589229
0,0570026163090654
0,0761425664311121
0,068957910129957
0,0779185785539996
0,0578811510363864
0,0856591230666088
0,0850115120048326
0,0680398376970742
0,0789220677281819
0,0615654938446497
0,071590560394364
0,0657974939419341
0,066026009503421
0,0697171702694811
0,0704875545036991
0,0643999007692566
0,0641141377691939
0,0661704930273971
0,0708295399301068
0,0639564183814187
0,0720110121010083
0,0910606672790646
0,0802507092591174
0,0760276008665289
0,0645398426619738
0,0657125651910112
0,0969955445152285
0,0735255887668702
0,0725609543746636
0,0661464067886501
0,0706953945016175
0,0688732713561258
0,0666483120018488
0,0687963384723087
0,0717569758589062
0,0757935907124868
0,0652826211662311
0,0712701865976471
0,0636203247423709
0,0720478378295244
0,0682272753645673
0,0756842114829315
0,0793481201273949
0,0697700031857725
0,0712537614319334
0,0741581491542166
0,0707688157628851
0,0723392296570862
0,0703599172043739
0,0706905230342338
0,0720255641693229
0,0850055474776687
0,0750470722015554
0,08630573067674
0,0854403214310461
0,0746913966769603
0,0722385301504014
0,0758606772573645
0,0838645266901382
0,0713189641953282
0,0744121446810273
0,107049298314192
0,0653373237783475
0,112549856922066
0,0675081258942551
0,0852776968380371
0,064582266740953
0,0850190164388128
0,0607447217032744
0,0969350597572588
0,0794240603447121
0,080464959734501
0,0706068833446619
0,0791196581776005
0,0881445883075258
0,0832248161160513
0,0792052800666925
0,0764861642959665
0,0776143676833571
0,0869384921909444
0,0922829529813987
0,0732897920662548
0,102074299088561
0,0907371839620905
0,104495819480463
0,0954330775591478
0,0707898431717871
0,107777090904248
0,0795506072695289
0,0903605776253538
0,0801784816236735
0,0828746123858685
0,0816061931608634
0,0781453510457468
0,113959982537932
0,0910320415308283
0,0794233546750967
0,0932791521908123
0,0782944176605002
0,102815885775943
0,0955566763452835
0,0876134808193326
0,083224327505706
0,0927042286316316
0,0802188910214925
0,114297419540529
0,119376886018148
0,0878581737141327
0,127061688119302
0,0967297916553858
0,118643520208247
0,0945979078355912
0,107777199353243
0,0945584038918115
0,126924068478688
0,102916195146303
0,100620990419338
0,101363324765045
0,144209189944615
0,0880226817278147
0,117277556288138
0,0929719633128297
0,108053663813796
0,124778477250173
0,167395054808029
0,12492275421843
0,119923682028229
0,101565898799456
0,134272728665472
0,118918906975598
0,114442409737213
0,112856760258685
0,113698959732276
0,120232950642467
0,113790070652403
0,124343795992487
0,119764767466046
0,118956514248722
0,127547842194406
0,117054140786441
0,145901221705416
0,151739646768142
0,18715819310891
0,120871519774411
0,156539692315729
0,13976077011793
0,147126217016534
0,139816815476569
0,132480737062234
0,141511241940575
0,139642464278055
0,145895142022885
0,137791144571153
0,153747456574548
0,166404986063425
0,146124471403898
0,191196920544922
0,140281009829045
0,17094795949559
0,153657695270529
0,255246645514093
0,135431061471807
0,178535834056011
0,175425990545479
0,187824837387738
0,252476123632735
0,168854211317568
0,195572462767808
0,192510626178384
0,196082723744046
0,203941598767871
0,22163139053389
0,218004741508264
0,230336879621808
0,234203218477584
0,230025450987036
0,249771841908722
0,282528920118514
0,305437602726925
0,304611587382678
0,252621748649569
0,274723294984177
0,288698515140381
0,281038273613144
0,285318755087631
0,291954335873488
0,284048156369896
0,358279383003724
0,294839702424556
0,334098920114728
0,311722192800828
0,358192492082924
0,326411256436563
0,368408668977264
0,378696219476969
0,361566951875376
0,377488079628302
0,357577046796847
0,388896238527427
0,367465203532357
0,415599199743571
0,409203056673283
0,41130280705136
0,41566633582821
0,410667642451841
0,419173181390342
0,425744054848814
0,430709702884047
0,430677734954991
0,456848301770268
0,481043740158536
0,543303978401709
0,580462707162663
0,443385554566723
0,47117681094043
0,439979966804855
0,498035175550978
0,468658179180599
0,494002497396737
0,515713454526108
0,468019032187825
0,475519319627454
0,465813119108701
0,470947772334318
0,461997372306657
0,478219920635933
0,473016967155183
0,48028784401789
0,484952612267884
0,487938548807126
0,59810127959989
0,465232068297182
0,48510757718888
0,456586481963062
0,475539639573865
0,455763186325357
0,485255540505284
0,45342414495219
0,500212357005157
0,455841604506489
0,489736873526209
0,457716674726119
0,464679454235886
0,485209475215335
0,457449008297705
0,44612361125216
0,439093575347632
0,435208595817331
0,444650745748397
0,421608646967286
0,481252482330266
0,416307732473139
0,444978612057907
0,415219848979618
0,423240172787144
0,408524904577905
0,410713973511658
0,40636787605884
0,420914409741011
0,39655006803463
0,412436268298473
0,397090265498981
0,403509014453473
0,39589487639686
0,39539878649413
0,399502663202877
0,392932177231413
0,394091868133254
0,389371233792941
0,394047082363294
0,392765474848428
0,395913705472554
0,392459203771684
0,386555516968011
0,394813536240472
0,386450532846142
0,390837361689033
0,393257416245711
0,389392774770745
0,38858291030731
0,386421793186107
0,389714967138468
0,386714480400529
0,38175710778219
0,38557884321544
0,389081530664124
0,389416843725818
0,387126412405249
0,384343586527809
0,385126783987428
0,382113078874521
0,389863068977772
0,384150518043799
0,4090434137949
0,459617021777826
0,371274342028295
0,397938506012708
0,363965106823091
0,388912644489948
0,36350982510977
0,396780495297386
0,411028520838486
0,372077565319209
0,373227472032643
0,362011999566871
0,361088838336046
0,389359692406752
0,352361210159437
0,37111271489891
0,350127013127382
0,37374046055967
0,430543740891531
0,349319478427926
0,509973189300404
0,343759905180175
0,364651704259057
0,339643957967596
0,406574673540799
0,339654830807168
0,355589349361362
0,342280638699665
0,341175586750228
0,387903996787102
0,333267503243926
0,351740756241526
0,32980691502033
0,339517659955752
0,370086216558964
0,355266159536494
0,349926003919037
0,388159399209232
0,339295588576903
0,372918098630633
0,384472406567047
0,391749032941864
0,317417520975262
0,3114719788736
0,322426988570474
0,309079849179094
0,349732547806855
0,329381393732638
0,316164328502202
0,327552475005643
0,287024923753139
0,319287654307766
0,298368990286126
0,330097442648387
0,284388233835605
0,345154376077453
0,293165698474064
0,289061026800697
0,320704245912808
0,310874936637816
0,356618982265509
0,310110689550379
0,285403069837087
0,280880444443727
0,35165467274186
0,283815348963687
0,298152144532146
0,285522645558422
0,258800631865885
0,302126705026259
0,268922376279078
0,267912260478737
0,299124312581477
0,278901295659857
0,321723909931199
0,299648607771426
0,342658677905123
0,272430996161222
0,251036949954829
0,25344005692667
0,249138578283835
0,255310067581698
0,248772095999978
0,24927677278849
0,308479063710482
0,226692266233194
0,293709745001928
0,263247309182149
0,252108942740629
0,252623392646297
0,253735741560953
0,254823993610006
0,267283622004641
0,280736787089032
0,303657682265527
0,25785124200438
0,30655803300745
0,270896303952709
0,284116349940889
0,265863970282557
0,281666527948553
0,271371242915878
0,29014085530705
0,298585887082079
0,288440862791003
0,298228346534572
0,305607936191835
0,297122297793858
0,369253917258355
0,306501123106722
0,339756073914347
0,361505881142821
0,346479851749629
0,395208415314584
0,333627778328483
0,364656936087713
0,351899072609199
0,368775541306658
0,371116214676967
0,366916521539029
0,418662140578469
0,380603167260053
0,387715056389591
0,389733885769817
0,389649499423507
0,403140599384658
0,409548550426022
0,446430700129236
0,419649526290807
0,532439128182792
0,400323791972098
0,457307023946716
0,415281042207669
0,430875738283497
0,436599515605411
0,425046944892678
0,438141349392538
0,426108497193786
0,458614732996188
0,461167569677226
0,43782534309915
0,44924459349723
0,438642049141258
0,450741496761264
0,44866545420397
0,45961352167856
0,448159672454171
0,457472800271249
0,465107084945526
0,46058204853762
0,505267288622854
0,521887806778666
0,466191694553214
0,492690498793526
0,473973540729735
0,503521759318351
0,473851413893077
0,504280742984419
0,517842304886296
0,492680912919717
0,503685490897118
0,502793902733921
0,50396792636459
0,50099709847182
0,523779545645459
0,5360237778422
0,511629493625069
0,542627671402508
0,500086553743879
0,632362792094367
0,511223133494626
0,564509740217774
0,543893917970722
0,557873287770017
0,532323385539691
0,544683813993207
0,544956664044153
0,543883734703963
0,546267717238283
0,555458283855398
0,552828294895852
0,54824745607444
0,548829213035931
0,540934326985803
0,562845813422334
0,582854176356788
0,545861048737301
0,549587211327908
0,544866090547703
0,56038746002447
0,540155572875233
0,594634048810629
0,553210724627452
0,562842347934867
0,543222200086127
0,575302393174042
0,572649293146825
0,56219165506281
0,542569841738857
0,560482641578637
0,535482534739207
0,569136514956548
0,533850679190097
0,587448929702028
0,569637080582165
0,571716410420797
0,556831788013799
0,570874877986506
0,559008759839928
0,573914150848877
0,570233275074257
0,579814540460748
0,577858514214883
0,581288716575015
0,584798252641611
0,587378262312458
0,583386807333642
0,595216785032437
0,599852127359996
0,600063121925668
0,574646584213041
0,588505459780092
0,574708126268804
0,596003062249594
0,578909164074582
0,581927728648375
0,565693668707721
0,577869365857741
0,547188972909389
0,575800221925451
0,575846167514378
0,546613298896073
0,57979193438414
0,536152294835012
0,55016573800009
0,534752047607751
0,543085008084516
0,529724627428576
0,540840712984804
0,533542488641309
0,5160516589327
0,517085201030267
0,51812389416828
0,518280249107036
0,516806893917127
0,516433212462689
0,515598386331145
0,514880265325971
0,505090120029557
0,512739480779508
0,510274197554349
0,513746727269944
0,513046754868197
0,507845756838651
0,531295390036552
0,517905050373699
0,53716618365747
0,51141789009245
0,521332628486544
0,501804802367987
0,513058192407525
0,509409052594374
0,507831702500922
0,509743755509115
0,503201579514313
0,505416299976804
0,503252108992097
0,50685789567616
0,50032788850495
0,510610941459779
0,504120257536124
0,50404032268257
0,503185926565258
0,506876828431675
0,498970936877521
0,509381539105299
0,497396099167866
0,51651641506137
0,497769253779266
0,515617342213367
0,508057950739022
0,503675474503747
0,50381798462976
0,503570454583638
0,513253060198262
0,508552053796723
0,503356611631186
0,502975299983574
0,503720587233253
0,507028623821456
0,500088417467713
0,502396002944238
0,504329829687055
0,500318629729966
0,495619301541386
0,499266714061118
0,491663385653023
0,486704038567219
0,482188558649905
0,485996299636907
0,474320518214214
0,477237971242745
0,472091544922317
0,475973026975966
0,458810405585556
0,46132054646066
0,45638324429677
0,454516989020417
0,452638832909535
0,452302428431042
0,449577254463424
0,450717876131161
0,442763663781089
0,442564450393165
0,439472748239012
0,442050524094938
0,437013205118404
0,437978037198735
0,434438118121588
0,435876142064217
0,439225372059448
0,438843049176055
0,437191834474111
0,439992474080796
0,437097810741815
0,439443882594569
0,438623408490424
0,445003949475446
0,445421442039888
0,444599438468633
0,446446976982731
0,45104272775602
0,44755165281404
0,44661737360781
0,454379861335188
0,457666032226186
0,457420154220469
0,45832138410956
0,461074303652293
0,459957163342804
0,459981438255406
0,462333091427965
0,462859599174371
0,465509228966645
0,461072837882703
0,462606518134504
0,462088692579391
0,463460796005807
0,459157710897711
0,46074241529155
0,458115983746244
0,455365089396949
0,457694857071275
0,458479476332222
0,45669055145694
0,454072924024599
0,448352455725753
0,452882153585825
0,451655584604119
0,451610902926946
0,444091317484682
0,447563397374175
0,444647562952685
0,444082861596211
0,440241430620233
0,438323790040736
0,436090325700842
0,434613648376753
0,435328643511299
0,431855153706186
0,430715822170903
0,43256024040397
0,427442787434957
0,432752640859506
0,428459418863246
0,429484364433529
0,423453513192316
0,424632630288278
0,4241304123679
0,422990685292192
0,41925343878363
0,420710998648647
0,41741568152716
0,414161244477817
0,410239281802728
0,411614503921317
0,409785285382676
0,40795239243989
0,40151178859826
0,402421350898795
0,397491733441668
0,395891836641406
0,391043193248717
0,388566964269918
0,384714852291409
0,383897463537785
0,379307669739564
0,375746761195845
0,373831881629166
0,374811634769922
0,370552495856723
0,371811172620988
0,36885052629618
0,369559156226816
0,369123542237761
0,365408963175953
0,363653621489989
0,365772436563895
0,362063916021824
0,358523868096612
0,357008468535928
0,352795479716177
0,349663270014052
0,344807433108205
0,338520692882456
0,336694939703474
0,330277050080673
0,328429110854443
0,327468190005358
0,325458980149864
0,321437258912674
0,321798122269568
0,322107319194407
0,328189250190885
0,330740658255282
0,338409160754371
0,344190935334654
0,350349769033388
0,360694747255507
0,374367060145431
0,384589148936146
0,394824445176604
0,41177887702645
0,425970871462401
0,440321531186108
0,454670885465432
0,469644006047295
0,485804860105573
0,493606286290618
0,51190653532488
0,52706498351996
0,540176522357935
0,561191220848461
0,572097134951088
0,584949679931417
0,596824847954374
0,611595288360537
0,621676679974649
0,62858390025263
0,639789275805766
0,650021974291674
0,66092903257464
0,667184827811494
0,677192981119644
0,680865162952568
0,693259987915462
0,684868728762831
0,696490473538346
0,701351601881799
0,707873780843123
0,703501872853715
0,706425799552867
0,713092009875859
0,70926941681341
0,710557113629669
0,715881408912375
0,714774183103371
0,715311104660084
0,708083696841498
0,713141950420305
0,717936394879343
0,723105270660838
0,724470008173423
0,728904510786699
0,73303438148695
0,732444449003589
0,739885303346273
0,746629339664778
0,75383740245116
0,762619586636761
0,759307007620792
0,765268473523971
0,779021081327619
0,788778513054807
0,797973041630029
0,806886647977974
0,819417661157341
0,832070113096059
0,83590983403972
0,853010830739312
0,865141533874814
0,882867003677358
0,872098028589912
0,889502978118012
0,894152387781145
0,901997518825493
0,905413132890067
0,906193059312243
0,90796561251041
0,904340308578824
0,90295732566967
0,88993863158357
0,889212510759272
0,89772838912951
0,876120858565423
0,884859109013509
0,889216330062356
0,8886193755808
0,884379265882671
0,896504939238836
0,913201024761934
0,929767759620555
0,941845864160279
0,943314090276262
0,968112369914396
0,970548745444619
0,980310110704747
0,995545763572107
1,00854033929136
1,02378557349976
1,04228698784055
1,05209033085919
1,05518138021456
1,09544153677862
1,09378586925454
1,10980073106294
1,11261724005563
1,14532652941577
1,17505145663445
1,19648984506386
1,2182722420114
1,22249851655179
1,23772297564836
1,26439512117696
1,27103646480046
1,3145063484953
1,33635929220262
1,33429228356998
1,33110072345052
1,37150192468207
1,40256370716768
1,41813680205703
1,42215788939642
1,42814482051329
1,44012618179232
1,47335221937045
1,4362305250482
1,47667113536887
1,44632358972255
1,49426104410062
1,49890604913505
1,48786730192747
1,4766976008279
1,4899902038831
1,49312087394289
1,50833834284569
1,46670522914742
1,47788614452736
1,49030807820885
1,46733471018561
1,49914277011092
1,46060848845821
1,49897565199995
1,49952043012439
1,5461998045926
1,52072880590853
1,5488538034222
1,54606996064905
1,59179351669608
1,59216118502747
1,62156193650181
1,58928421835112
1,6679337003943
1,64232254266138
1,60569733331111
1,63798772625331
1,74616076661884
1,70442343370042
1,74144797760194
1,73669210627959
1,74325813421155
1,68528287966743
1,72851458171785
1,70581080941659
1,73692200989338
1,75245425329602
1,79214445733483
1,74932222649207
1,82996371563319
1,7890340014653
1,75385120877089
1,81956494625359
1,81396034661156
1,83950332760155
1,82509303232864
1,7889505833849
1,92008259326105
1,7816325210757
1,87968850575834
1,75580541975045
2,00300437233663
1,87600196747326
1,87801168959049
1,85692617340933
1,98322917448059
1,79265220035709
1,83573700299243
1,80082774534482
1,76315126968949
1,71197497763492
1,65090445708872
1,64604943485148
1,60950551041525
1,5999258533334
1,57569128142144
1,49413283134895
1,47397927174422
1,44359069062794
1,44377366911242
1,38232691421264
1,42721263651203
1,41033564853648
1,38900366241573
1,35099499890618
1,36827108061732
1,33451551365049
1,33360324711362
1,32791903048761
1,28958770265401
1,33223862267186
1,3330750478359
1,25349840138037
1,28970564770769
1,2661052773078
1,25134485910861
1,21600221405112
1,22768921070084
1,21292015866835
1,19316626348206
1,13876958807225
1,12573054327059
1,09909932010992
1,0860086268169
1,04999974285843
1,00474865512374
0,955801507151549
0,923757756336713
0,895643832729907
0,864314885224291
0,83503951518496
0,801894794383578
0,766544586262827
0,739206990306753
0,717026110889779
0,688988178853348
0,661223022513823
0,641548993152814
0,624836183038537
0,606164962355503
0,585583180102745
0,578509160684744
0,565105222062689
0,55089062103715
0,544097053198498
0,544385994268364
0,531489286790158
0,53012852284799
0,525240431371176
0,525199471168702
0,513273333765555
0,516646785323473
0,52181057734667
0,521540427856943
0,517029536722944
0,518543181549231
0,521979978174339
0,52534383451082
0,521541547000049
0,522736165537531
0,517046890183406
0,5173486772611
0,509867904294093
0,505623887969707
0,509738610910142
0,504356949033524
0,492381005781228
0,485284690822864
0,484708126819154
0,482480668057546
0,482076461541022
0,480943123248161
0,470852965501479
0,471392515037423
0,46753893822765
0,477302142099757
0,480282419674783
0,480345263254252
0,48078772086137
0,486431569342434
0,485508227146496
0,493504881782075
0,490845644566522
0,492521244467373
0,488625940419894
0,495935569523605
0,501466788630365
0,504006404499662
0,495190966422397
0,503631629930471
0,506756972055732
0,503545162146195
0,499226759906612
0,501725684891501
0,501731456901477
0,508041224143252
0,500353922544912
0,501969155055337
0,500738088193788
0,512927270561605
0,512308410541347
0,513004717073395
0,523237820711558
0,521913228505314
0,524111582224816
0,545340011761869
0,543517988504811
0,558611920614413
0,564842352353553
0,585967771627822
0,596897660066902
0,613608217681767
0,629811890031364
0,636601549102673
0,639085283532491
0,656976545269646
0,641861354012501
0,657097003416325
0,648880225228515
0,652531691370855
0,628726153531405
0,635246644825529
0,621254840781053
0,616011685749055
0,604514929181324
0,611535641428159
0,599650378449408
0,591045609479725
0,589065794339501
0,591423403764674
0,59340529842179
0,599725436574922
0,593218270749822
0,608252272930445
0,593910174548026
0,602182219886006
0,592859496223705
0,59334882238517
0,592857917941536
0,588450550166455
0,587734026731564
0,574366165104615
0,570345029556342
0,563462904309874
0,546530324265838
0,561075950245984
0,554310058145294
0,5373816530671
0,540452588146028
0,53547813955031
0,533106810368691
0,529449884579481
0,536471932535261
0,530266874899074
0,519335377563907
0,520538979955112
0,52461081529886
0,522049379401562
0,5121587958185
0,518601979576923
0,513756786381897
0,509220492944255
0,488279803415189
0,50045904747437
0,507343658884802
0,510722202890155
0,50323837260749
0,495328258218451
0,492437169315016
0,501608825564751
0,47769101967625
0,492012972448784
0,483219966181255
0,470661114697834
0,478723507278893
0,480905153382577
0,474746784816096
0,48236043382479
0,469357721786787
0,473766518260462
0,482825250289176
0,471771073540168
0,454285580260354
0,467145728135279
0,46495400388188
0,457170701867813
0,462167728540683
0,468053378183534
0,466342194965298
0,479909400010689
0,461872254068515
0,465478888967314
0,471110436396291
0,474862756602594
0,474578064531519
0,488111474345314
0,469552052762071
0,475960732293241
0,464374167732307
0,48691293506022
0,489510653509028
0,488818638532518
0,490848470843452
0,479078030973817
0,485180512930652
0,506339739788015
0,495573698267197
0,51121419287945
0,502191384394362
0,511591185340188
0,507718858964601
0,518175442159144
0,525654715704878
0,532634261129847
0,536432393258338
0,549280540558177
0,558357859714122
0,570257810618341
0,559567775587447
0,59361709399481
0,615006529685888
0,591074354962236
0,629947359753842
0,649041995939402
0,639200230536274
0,692409810718663
0,697528267058033
0,713514001951892
0,733188595750288
0,73671369285934
0,723073135113053
0,738560703541198
0,732351175615533
0,783820386640751
0,753791035433855
0,774370491680745
0,781955827447431
0,782630149926108
0,755704073923043
0,775914857394629
0,753518734097816
0,755593648280257
0,748513422189545
0,746328583888519
0,750732744688964
0,792436887499859
0,767056199101257
0,772724282468036
0,758529871092439
0,735047621427251
0,75309270528289
0,747999098580994
0,743129422385613
0,742805574367071
0,719461223080699
0,712198197711897
0,716134348490088
0,747807891416585
0,71152623627
0,680551732100052
0,699610058029634
0,724794497515288
0,700714665918734
0,739016128894425
0,697932452435455
0,750587524443013
0,719155564175241
0,708380956913231
0,673975127806566
0,701247422949449
0,672058088142672
0,728594279659817
0,685508423582642
0,734681387044586
0,679654423219207
0,690165670401133
0,697072193888948
0,733663547579855
0,716815156966872
0,687414017819421
0,669763755323847
0,753492871778198
0,67601769762944
0,660035713685554
0,72304220802475
0,731697852002136
0,672873397162132
0,683956497439998
0,724628789683947
0,727074073465111
0,727319646336787
0,762148232349892
0,693861143558799
0,745445225483545
0,746389921789229
0,76661448125848
0,745465537840348
0,749818484513457
0,685710070866063
0,696110049837085
0,733617323863261
0,799048188107944
0,705145903770111
0,782119772582629
0,791508137151195
0,817858563336387
0,813495106312418
0,85225268738415
0,846393032415836
0,868307817001749
0,840327795646518
0,952152453375485
0,941279409876316
0,88779131133729
0,827729406126485
0,868579374086168
0,918452419927151
1,04209247733638
1,02681734800264
1,03204950359957
0,947375858905527
0,964427821142972
0,863831646743359
0,963315717557127
0,875774506123871
0,96985604023815
1,06156231963457
0,913699614570353
0,846041302640819
0,847576061628745
0,878912276310549
0,842210050389171
0,998493869027894
1,10002791925782
0,817873735704533
1,05038465506573
1,21449449080996
0,959025688941338
0,876700958005601
1,11351662832164
1,01879046120037
0,842805544842785
0,789166017965452
0,900449547378085
0,846658719714185
1,00423642459718
1,07500831159372
1,0245796127
0,813536928598039
0,917867402543788
0,903958587110384
0,887781704172117
0,936415447085055
0,925712714693874
0,785044209118069
1,10556689643972
1,19513571589313
1,16334035271766
0,771499908699503
1,12702198242525
1,02553632857821
0,846058574550781
2,04073415032507
5
0,888803788277438
1,01471567692482
0,833224771369481
0,871719758281923
0,707188868670813
1,25593451657195
1,29164831174961
1,09687998794356
2,0179784522427
0,918927937173517
0,732004795484855
5
5
