3596
4000,36533379555
650,420452594757
1
2
2
0,0863226153426086
0,0793904287040131
0,0733883649038768
0,0812035844972993
0,0836925833320004
0,0876073523332637
0,0862844715036778
0,0752228502149253
0,0871904397619218
0,0859229541789741
0,0899627749126736
0,076931776196798
0,0781520710961416
0,0840432240785108
0,0794393530928297
0,0846022905634681
0,0767660781888725
0,0749988328384691
0,0801120174766331
0,0744086607179642
0,088235471544838
0,0771186920178306
0,0809747122063922
0,0794820189412921
0,083668230432295
0,0882044340840574
0,0857021325204887
0,0801400191060639
0,0834271464668712
0,0781002174648154
0,0713483164424822
0,0895207226513425
0,0945099704872183
0,0862626326593165
0,0811819615051117
0,0817047049109302
0,0752901744583982
0,0862871008408217
0,0741399399934006
0,0860346758456695
0,0913674541433568
0,0760468635390775
0,0897307697044328
0,0868888861913331
0,0842861036298506
0,0823544335257038
0,0753221722046133
0,0812892893534419
0,0849060649787738
0,0853243038641432
0,0863598130544062
0,0801979508765574
0,0976540588237658
0,0952260299055285
0,095304317373977
0,103796014921666
0,0944433258831247
0,0756304570436921
0,0807876861441189
0,0857310078822852
0,118175590588202
0,101377685519212
0,0827900797866604
0,0808994679801912
0,0708405991823339
0,084461367685845
0,0829537967504434
0,0791785218431256
0,0783847473107761
0,085698100520534
0,0846528435342011
0,107928840145714
0,0962403657567339
0,0949920503153195
0,0959604234166995
0,0857035778136742
0,0747397350420553
0,0800209635909824
0,0743708272282635
0,100473423485651
0,104326117709375
0,0911784060140362
0,0828232035871377
0,0784357756055727
0,0963178215431848
0,0969863983088925
0,0745434744321605
0,0897579112991978
0,106358744458829
0,0897752387138766
0,0750663340864632
0,0853040227917355
0,0738233548383042
0,079085435891613
0,0751447767198988
0,0754810620433842
0,078574535136865
0,0777618546169469
0,068498140513799
0,107145477726753
0,0954602264161351
0,119091934436205
0,132854147190463
0,0957634894242205
0,15286068526979
0,0978077138763664
0,0952585003396074
0,137666284862486
0,0990042753171925
0,0856258512060428
0,0753095740275195
0,0845068952770034
0,0839093874417162
0,0917858711069364
0,0752714307828815
0,13145673924778
0,114135721152723
0,0760030923030163
0,0785632622129615
0,0879897715582481
0,0712935703353799
0,135046878115681
0,117063382603837
0,091897692657278
0,10396666910319
0,0815365364436122
0,0957196039831161
0,148363253753654
0,103899746072159
0,0827673881591274
0,0721324737818782
0,0799327679113164
0,0740790671521572
0,107423587568321
0,123660840611763
0,0906369984142979
0,087145950254661
0,0933670595228026
0,136090854904061
0,162300911632895
0,091401854050733
0,0802467147126441
0,0666271187468404
0,0977275425629411
0,137657230822759
0,105396022031416
0,0840595058248781
0,11772095791106
0,0857222046947049
0,0801763941248705
0,0820026137640714
0,085230471513925
0,115072283440413
0,0951266347606933
0,0658896654661973
0,171894957243472
0,146739478664463
0,147939365375292
0,13932896067562
0,0920715208018078
0,0972720147666477
0,0821936605899475
0,0795979962332991
0,0717843697703711
0,0839488995956381
0,0615037804681194
0,104487702657822
0,12168995566837
0,0866778634847139
0,103912605526796
0,126564395082915
0,1085171125884
0,0825981537866119
0,165323032685659
0,0871311778752581
0,0945910817759717
0,126406629233039
0,0974974126735958
0,06732913764205
0,105877781202725
0,106416157392952
0,0758377656568647
0,0786258486026162
0,0759126732703547
0,0973526522649811
0,106967550478223
0,0839816841677784
0,0848571558318818
0,0896990440614103
0,0723930008861973
0,122459610116075
0,164608300461652
0,117520052178563
0,102954694837707
0,089711593221796
0,0663120226337129
0,142319944288259
0,114755381675617
0,0831054939614564
0,0713967503136791
0,0645707647501208
0,0722051842788721
0,0688516147416409
0,0752913776992468
0,068516928603149
0,0675639341369638
0,13516673143894
0,0996942805134092
0,0772217949300047
0,0745169473352831
0,0973032884660408
0,0980158074203669
0,167574012400542
0,120863919564567
0,0834721529818769
0,085539178524969
0,0792864668143846
0,108033598958929
0,0967344004974844
0,0770922122536861
0,0793694156912357
0,0705240516814301
0,0732949872064318
0,0695747607034039
0,0717719721943849
0,0771452975810801
0,0748026658883587
0,0774346635944544
0,0738465693343131
0,0889294748312428
0,0880670373063989
0,0857099767008984
0,0824021035936038
0,0817947374618399
0,0637677401484275
0,103950969814572
0,100343962341468
0,084981071797703
0,0749058785947477
0,0752945922796215
0,0782660742340683
0,0758017140705834
0,0771982626347871
0,077298383861516
0,0717249099069467
0,0857550070994565
0,132502897469076
0,0833981652898474
0,0838221900317644
0,0630867576185456
0,120211888573122
0,090087446615667
0,0754319281123374
0,07591048149608
0,0828256365306814
0,062351511523487
0,0950493955305459
0,12904832820508
0,0933691183891937
0,0794816151248509
0,114080573495113
0,0843543837117682
0,0772498193221716
0,087786012703647
0,0864350556154245
0,188556418775571
0,107308942692167
0,104312531592083
0,157310314575637
0,103103102218237
0,113852604566186
0,0879634253417601
0,0776056507091638
0,253235771361778
0,138949432451809
0,0840905774139791
0,0933160294963894
0,122094904620257
0,0784595320053147
0,100396451102142
0,0990028463465299
0,119658181636893
0,125353242227388
0,187595486054381
0,16830979702338
0,0752940563582368
0,145379008532883
0,111935927781374
0,0914612834580075
0,0781727664492648
0,0825661131327185
0,0742703508044332
0,113354924942621
0,103068215008517
0,116275959992415
0,0856310235457936
0,0959494942851568
0,13462008981159
0,0962909372765045
0,073988789656168
0,101331529511721
0,101630275058855
0,0714133467053571
0,0776306916543763
0,0760914403536123
0,0979777124494706
0,0747619572056948
0,0976058849933145
0,163995611557244
0,100487194945897
0,0996539758289469
0,128348624340258
0,0842417644680414
0,080858934080437
0,0731778174252022
0,0796973056656578
0,0763842959103002
0,0747204405853831
0,0737659354668174
0,117960739208864
0,0797633293881384
0,080236657120741
0,0774769827591934
0,073019264205509
0,0771937927700357
0,0816555611564333
0,0759392166666967
0,0798549643645251
0,0774274455354113
0,0725374729665088
0,125418634181772
0,128383047854294
0,0681185853006359
0,168239484889785
0,11501188144577
0,0970433513868682
0,0794863453294219
0,083790549281312
0,0823335295805026
0,0833341729490705
0,0833184374620223
0,0734986313235754
0,0810171800163795
0,116036816877542
0,0987154900605196
0,103397479211605
0,109741469027795
0,182906323464147
0,180282026831554
0,112992893206974
0,100978620487624
0,0704598455160572
0,153755096252926
0,128606534491835
0,131177300866425
0,117722295304909
0,0800976154592564
0,100327094041175
0,0754855714930886
0,092056022942799
0,0814641191652835
0,0975894724811146
0,0770873343541053
0,102118056995355
0,0818808284379754
0,100655042704333
0,0800549179243801
0,118464354955251
0,154002069102884
0,109397182827451
0,105072644910683
0,106596096679966
0,0890064411047906
0,173227958673445
0,132795492672949
0,200176584867347
0,138344821641085
0,172507565374175
0,175604238448811
0,112869606739419
0,111315644586882
0,0968055627955576
0,109424711564942
0,112395191393812
0,109905528812588
0,105942800783543
0,108538050546089
0,125455629177128
0,10684642389149
0,104214056599241
0,109091666199041
0,121006429799701
0,14440495257812
0,111762662248891
0,1279822516755
0,114253530840654
0,159730796546535
0,206787801359734
0,19505290088593
0,136226409653697
0,153117958484411
0,123624963445418
0,126577831408685
0,129202784081603
0,127420539423289
0,136604452937763
0,136634561309175
0,190087574053604
0,170285106693668
0,179008969217192
0,159379775022562
0,13100547591604
0,175184120906485
0,161159939455761
0,171418633778122
0,1949071957521
0,155224233845645
0,139030341047921
0,199087434066415
0,165939388252991
0,170091271718796
0,202868987607284
0,142177319367536
0,158915992398116
0,149544992205574
0,1697076194631
0,154030517232626
0,18241638297239
0,173703311055569
0,178188162971358
0,177719124539787
0,176999203098666
0,170494243565469
0,21566565161363
0,185038107125086
0,182978027844431
0,183929362187042
0,172324938430628
0,185308481734128
0,16944051094766
0,22652432672135
0,21866303259674
0,23243840802495
0,233247946962523
0,191043660373266
0,196286391676932
0,187625238891815
0,197833822083514
0,17517974426192
0,206074012600297
0,188102952513408
0,193034531361297
0,200399854948647
0,220019536438607
0,194261658094686
0,223850579334937
0,20489382031569
0,22467925977515
0,205836056538842
0,210957064252701
0,229611179955211
0,217802561202067
0,288548427355386
0,281155055912075
0,296431515805279
0,291427933883996
0,229614026428768
0,257455785293128
0,242118242372394
0,258754995212866
0,229179188825319
0,263735878624103
0,243702985460202
0,260939905164003
0,247650502005375
0,258103228349641
0,247184405166539
0,260513236552523
0,247748379989357
0,277895986067746
0,276621489279215
0,281801253541512
0,261486449439851
0,273982949736935
0,266964307187485
0,312496732793909
0,292411352148068
0,333087125626732
0,287016963221417
0,29809363942413
0,295706738139038
0,305974187617712
0,294023155226566
0,313842435644106
0,299248319623241
0,30733020533766
0,299547184961786
0,330875162008908
0,30906985455876
0,314527182669577
0,301833648601829
0,332916455800877
0,329264087353011
0,338295435907729
0,328439927093777
0,342218697558526
0,337970247618671
0,343968354895698
0,344249372969286
0,361520670344975
0,339704917000862
0,371333441363902
0,359492849270182
0,3655119655792
0,353580824018978
0,377316866064857
0,352295733844602
0,376356765613457
0,355237536399568
0,385116597740865
0,354606385793489
0,388510627882721
0,367326289803199
0,398764811531287
0,379220849441035
0,429581869304499
0,402207481298615
0,423852251128399
0,390394139577509
0,411214217499618
0,403841193844469
0,436249204756187
0,419361033632879
0,43385616400311
0,426149903489033
0,440205687007105
0,399485927217657
0,447708696061776
0,414418299046504
0,425575750244823
0,424067042443905
0,437907456577433
0,432623436301361
0,462407783898609
0,426098238618088
0,447783534002934
0,450663064471254
0,458496475881422
0,466373886067429
0,479370440186462
0,441722701626003
0,475774942754522
0,459819526713055
0,469449359145041
0,471812927452604
0,515782138492803
0,479014719244201
0,509278321256493
0,473231458274711
0,503472938088706
0,471174924382099
0,50407080755833
0,489460489899187
0,524561172909453
0,49733241178477
0,53230024327304
0,516575518188524
0,519189693300294
0,497476665705698
0,522417546578212
0,503917762023318
0,538378620893062
0,511089803977812
0,562304233890967
0,52507888631288
0,535822394036407
0,515466967402293
0,542940464183471
0,523899200505604
0,577497804522095
0,56171218853504
0,563751762924014
0,555115547786537
0,584937507845377
0,554076408940209
0,58544480392525
0,564621918218449
0,58106056219281
0,585020166406741
0,597272019475436
0,565017178276892
0,588900330575933
0,593497325522847
0,614847602361493
0,582077758729286
0,632366533958782
0,577306311671158
0,607084048352362
0,589570730245737
0,608242016469651
0,584604258478033
0,603225064982336
0,599632809732681
0,635587829947732
0,604650558408458
0,609555565828121
0,587040371710881
0,630439693587028
0,614102659467926
0,655131699729929
0,628955006123012
0,666150951247899
0,638906911577952
0,640754454798582
0,638255385663525
0,665419108997482
0,639576782888699
0,666041344360995
0,646755580902869
0,673158899220263
0,650444454541911
0,68080975412888
0,643519558295176
0,670621334801633
0,660924777299038
0,685801466280543
0,654169729901525
0,692556546884887
0,669725233544471
0,668649828313954
0,695167132654664
0,694518121053353
0,65886181247996
0,682302025443056
0,68263565432117
0,703602383351085
0,640427456054056
0,710385964610328
0,666529216714889
0,688891516377487
0,666795096129598
0,704536074091168
0,710834290675946
0,723323717208325
0,674853584109128
0,725977974283747
0,745845044276721
0,697255739439494
0,696909198484927
0,704400874398822
0,675498225220414
0,721266145554282
0,744107542153536
0,730466950389917
0,684810774798351
0,697387929705562
0,70698385334989
0,74024660977482
0,716127468758334
0,744663276159525
0,695366824069797
0,747762360660906
0,740318275467879
0,755514604817098
0,71446324532872
0,747197267485572
0,718545345515468
0,741912195686113
0,711225007728003
0,746238578345713
0,715269448572449
0,730830388697274
0,738255204735907
0,778295691029355
0,72794451514124
0,715730283810608
0,724842309636085
0,758669937096439
0,744120361673547
0,761792017286233
0,737083771322084
0,757346110545685
0,773614145469911
0,755521251571906
0,743985028853762
0,756887960229092
0,749113275477423
0,775578612432194
0,769907667401033
0,749434333503371
0,764843283823908
0,773748066506971
0,743796047409907
0,801792430339488
0,75273398516767
0,770396280493064
0,750380262030377
0,783790660981782
0,762053009108608
0,768297675552042
0,749629164832223
0,782289750548392
0,740824205918842
0,748087273400511
0,756304461079647
0,767445417184912
0,759028079329692
0,775418953151129
0,763154322210904
0,768563294411731
0,753802889013148
0,781487090663793
0,781647060089225
0,798869305657828
0,769702448516152
0,771041137481376
0,749740375635758
0,780663163580877
0,772457896636982
0,783869111848096
0,749653807515435
0,757731187995659
0,754175865858565
0,779676747721997
0,762284935154823
0,7749337580134
0,76580806480408
0,74930346252302
0,727526818689893
0,760338565262029
0,768466109601351
0,771623148398462
0,776748747103627
0,784409144269665
0,765380437386093
0,770857523952862
0,762593447079056
0,782725180327946
0,755618279050417
0,747275801673131
0,759710194150856
0,744513702400524
0,775316146875705
0,770324844319226
0,731050634334832
0,77043690728856
0,766253109918926
0,754093165790246
0,777880594720485
0,767016663097788
0,748465823080481
0,782330181552792
0,739436388129756
0,747264768337907
0,762837334364913
0,778035309796906
0,759097786210346
0,780130016002059
0,755259921122224
0,77700966739941
0,75851138138367
0,771324244747545
0,740059797096101
0,786746820442716
0,745804550473932
0,749495253061433
0,758967587361468
0,767051530259455
0,752242365989097
0,756642557244915
0,758952649036476
0,776634591792797
0,750654959970313
0,765632293030165
0,723225686878001
0,734990404396297
0,744610492720495
0,752395879802466
0,74143893821505
0,749933984771302
0,733709969450195
0,72528298714238
0,735992088855469
0,747182007680398
0,744400034540553
0,750455436915213
0,717233607246091
0,740280640708397
0,731702383679504
0,744663802823721
0,721825445390527
0,723160409740617
0,714506063275351
0,715204013946412
0,70475372774238
0,725365369167251
0,717566595102502
0,732802390767157
0,70119871336082
0,721315469995432
0,698377683323643
0,723595354077168
0,723420196386709
0,688681523346907
0,695606160068309
0,71272755609094
0,691842657976264
0,690338624994714
0,690474622848401
0,706066760785965
0,687760558281263
0,669925753576306
0,684750746769009
0,682970767287703
0,67787402248303
0,681427646339062
0,67493232102217
0,676543747246645
0,697083100971812
0,679655148943526
0,664093007676997
0,673339827762402
0,654867019261717
0,656638699316822
0,656091103741152
0,670396084664662
0,659863878858938
0,662672560386903
0,650790205506041
0,674616942354151
0,66410085383384
0,657059916934696
0,641257581710239
0,657225519235019
0,662212512370702
0,642185705468015
0,635172624944438
0,639365623384737
0,635995329273002
0,632331962217091
0,634921109983248
0,625282106745723
0,615022417903168
0,627989800240683
0,613338177987735
0,630372441298498
0,618813102017758
0,611340527331374
0,597560058425488
0,601760120482492
0,61036675989581
0,620472858181802
0,603895367242282
0,603402578774713
0,6050747339467
0,611039693960293
0,591375452524747
0,594279027715518
0,59615188504447
0,588346616498576
0,593879611645398
0,588284235224219
0,57766565895081
0,587235013957418
0,583828882562415
0,578070038709818
0,573033610349082
0,580936538659082
0,556562371120392
0,562518291642265
0,567106119990856
0,576688345387744
0,5620261579955
0,550345525189573
0,569011099916375
0,559185275050988
0,546865627229892
0,56258769925197
0,547568324186589
0,550713993337085
0,543828829377466
0,544608033353477
0,533863061700993
0,54891024001364
0,523234906885219
0,52376386144248
0,5306831649406
0,531492863345852
0,52823210977994
0,529724723315414
0,528290069075686
0,525231371050169
0,506654390330836
0,518957474197453
0,520945280899085
0,51699949396282
0,506202757734774
0,509362568437559
0,502770702275193
0,486404756101674
0,494961869716363
0,497438864007618
0,502147101276224
0,507422577144704
0,496186493566257
0,481404833731769
0,481050053720247
0,478893174093127
0,480693313233586
0,485578545317383
0,476095244137965
0,479108873022567
0,469279836999605
0,464395305714252
0,471980526430763
0,468890158452822
0,466908907102636
0,466933739768102
0,462414765806851
0,453708693238496
0,455326706829795
0,46253550109684
0,450215185883988
0,444020503141968
0,451573332643576
0,455466375264467
0,445415745732762
0,440089616750267
0,436629680917865
0,43706214019031
0,446255961220065
0,439568986130847
0,426909666574486
0,427096118497759
0,429135361137188
0,420192033759566
0,423068453214051
0,431454361415958
0,426723795554249
0,419459975050238
0,415069182194432
0,416366313929399
0,410574284663989
0,402044679061309
0,407386231170105
0,40952690460703
0,399883283665689
0,404287960468565
0,406240443173837
0,399094966124059
0,405510031959961
0,400156066700429
0,392956482239872
0,397561857178543
0,391838163704952
0,387227096609954
0,392198373220881
0,399452809602887
0,389656097495057
0,383056682414108
0,382914052853685
0,388376433159702
0,381651898635273
0,38505318388532
0,391044614156874
0,379613208700382
0,380647026670971
0,373563083387121
0,371741962252451
0,371979127121656
0,368983393396678
0,363289279570826
0,364519639059684
0,364740794008877
0,365081243101492
0,359373854843455
0,352078026050578
0,355749506591582
0,348059755831673
0,345757264630483
0,354851789327884
0,350550099479623
0,34631899082799
0,348675888539693
0,34611836132403
0,344448702741855
0,343633911508428
0,340787420216789
0,338279807171295
0,335134534736973
0,336515872597438
0,340416419194118
0,339319357218825
0,334876266912002
0,331916164094766
0,329650394142103
0,328682599767327
0,330300853061706
0,327493270782191
0,322801849065839
0,32504078076633
0,324732199140416
0,323316914803329
0,32201967076007
0,319332732328788
0,31091414289267
0,316736441682093
0,312381837728353
0,306100686025521
0,310461633125409
0,313852973071241
0,307846544241681
0,310764111050407
0,309300721506092
0,303903115429287
0,302106938603069
0,301201701217734
0,296561795422061
0,300044373066261
0,299859081841831
0,297013424876485
0,298941810830152
0,297739347767157
0,29298983706436
0,296278511991368
0,290649389115
0,288964915288212
0,288448353774475
0,288385861481376
0,287392004226996
0,284668104116105
0,286565903376811
0,28566862025528
0,277721650604654
0,275398545516179
0,272704152305432
0,277542214282918
0,279275462241305
0,280351053613405
0,278473188412064
0,272308795544945
0,265367519370332
0,266014645379104
0,260785120673938
0,265543088855557
0,264507344624052
0,261295452581874
0,260823451709528
0,261474866777018
0,259417015129787
0,259272626347785
0,25418950154926
0,25749279345219
0,251884234976719
0,249128062780096
0,251939738147887
0,253182039624678
0,2530089592416
0,255994650465351
0,253121622675611
0,252981042510527
0,250390355899859
0,252651311002586
0,24955843920112
0,248264297046856
0,244520069882076
0,244693176424106
0,245762153446042
0,246855722777887
0,243824851921151
0,240965324087384
0,235150551362016
0,241266916577306
0,238989630596556
0,237143301010796
0,242345134823724
0,246452798430005
0,239081122857005
0,237836773107372
0,235608378638603
0,237394812795775
0,241730655635559
0,239846688834042
0,239283118710527
0,244260783175488
0,240777498523911
0,239491707608493
0,244657742303475
0,243903617177011
0,242054282117021
0,2458028387035
0,243968818851618
0,243813330676204
0,243345958184458
0,252304365470427
0,251016359089891
0,251217924237502
0,251621253350521
0,256803220062051
0,253172395101932
0,256334864187592
0,254691496996494
0,260823484172243
0,263466622765192
0,263507436105775
0,260973332022907
0,26119726706679
0,261934395593201
0,268335309764527
0,263845943303437
0,268434819966866
0,266463766113153
0,271682585752472
0,268897555374367
0,268062676411793
0,270516233308632
0,276906185884769
0,278212627157249
0,274685876959349
0,27645180721997
0,276506399592394
0,281884379203407
0,287637288031066
0,27827983813387
0,287373167561944
0,285424424794825
0,289425245265273
0,294932634560959
0,290774772815518
0,289379525126507
0,298190471494273
0,299533629584353
0,300646029927924
0,301211833012981
0,299482615122318
0,300850902879782
0,313736232484478
0,314786910358258
0,311081362127374
0,308876467535344
0,315490096734209
0,317398950355204
0,321091651831205
0,322387440173525
0,32834217931785
0,313959589960462
0,322914786703876
0,326688867326857
0,324628975741369
0,330561219134254
0,330525252800836
0,32676997471978
0,325926748078233
0,321375370310216
0,330726435755447
0,323790736656459
0,31871951725574
0,321565901274469
0,327134587681259
0,324748894773359
0,328186816356094
0,323912795360389
0,324417251631726
0,328325628885572
0,328075692038361
0,3173924233854
0,324291417730815
0,321578885140742
0,31600091709091
0,319020559964056
0,32364673234645
0,320910785869399
0,32253551504302
0,318200560548865
0,32052903250609
0,319124654154324
0,325449186852087
0,319720487822956
0,324904687050441
0,327927617062816
0,323275419289802
0,316494489833054
0,323352625363013
0,326204149137036
0,326155420230887
0,321869643789182
0,323867157113844
0,321311930452233
0,323237494322742
0,318233748523885
0,320037158179114
0,324320126072448
0,324315127850176
0,318250682167431
0,324242988675621
0,317194067330823
0,325495011567809
0,326622932810307
0,320453424806525
0,320267527806328
0,324472315296226
0,314819171805591
0,319628124563298
0,319280731211132
0,324354199224441
0,31986035127526
0,316500330068854
0,314979546185017
0,318344726787486
0,306906868893912
0,306647236220632
0,312818541583246
0,308762000568538
0,302805096892204
0,303048865487487
0,301027480410605
0,303561837647162
0,296711413202175
0,296087154576113
0,296694196675443
0,29440854278371
0,293337713284749
0,291204000852016
0,286577917734985
0,284621603080968
0,281513524764535
0,27943932847989
0,270160674291515
0,276878075563752
0,270852384135871
0,267789701558699
0,263657763896624
0,262165355326073
0,262167718948478
0,262426913191971
0,256848455226186
0,261802110773242
0,256578653806469
0,256173895251941
0,253550582505988
0,251291021490425
0,247383733051866
0,251503572869941
0,248000338420655
0,246064003467567
0,242317846465992
0,244010688567937
0,241624658080315
0,242001458911111
0,236132386959427
0,233474660684445
0,23684643562828
0,238406304482286
0,232182619291837
0,23492767286913
0,230358485264982
0,230305499363994
0,231432910301019
0,226877426307394
0,218423167818286
0,228873041548105
0,225727847625376
0,225035199602217
0,222615874273159
0,222689920690419
0,221317259742762
0,219974776028925
0,214803362279938
0,215251826180597
0,215757052418887
0,223504780285457
0,213106969940215
0,210932511565707
0,206512111447981
0,214826168897678
0,210477156492206
0,209762999781009
0,205393679041064
0,210464746759973
0,205259898743683
0,209381315869056
0,200075012307928
0,200627639126877
0,203794448401411
0,202913284321791
0,200705896075232
0,201237265542701
0,198581277090397
0,203492933085127
0,199423711457748
0,20005863134901
0,195504640338349
0,194192354305645
0,195386043145029
0,193378350742795
0,193731507140695
0,19393001624858
0,188231655202723
0,195627194673232
0,19182695085594
0,190562815529143
0,189765636371669
0,190089574807539
0,185641538940296
0,187452522286169
0,182583430329249
0,185069268709427
0,18463910560953
0,187620573708087
0,185207973457538
0,183789979597241
0,18256277887611
0,184277210504617
0,182025280153182
0,179371013311432
0,17899251109879
0,182080897921914
0,18018492626025
0,181668136689393
0,178482785057489
0,184347554428467
0,179274342625767
0,17807395756087
0,177044749047883
0,183110228029967
0,179802481156911
0,180285327860365
0,175592302027523
0,175881038881956
0,177905709681026
0,177969400096792
0,174308508016264
0,174358255705091
0,173781157896201
0,177166576168303
0,171576101095924
0,173418385860149
0,172626154670081
0,168388896673703
0,171559630265101
0,16743180812989
0,169372982717786
0,173597361505788
0,167266171556376
0,168647138326645
0,169928155709333
0,170959352854815
0,167094653530087
0,168097359935225
0,162465078678352
0,170902989025372
0,163448649583853
0,164898103499124
0,16678968750334
0,167702277794603
0,161655006584433
0,164972186023112
0,163970508936261
0,163412234557121
0,162548718545956
0,166398056419638
0,164421412484947
0,164276731599267
0,161711867025253
0,162616902354556
0,160223372149204
0,163891961606649
0,162467126319807
0,162737451427221
0,160346780094366
0,1635354398194
0,16295238122308
0,162477188861002
0,159701439999194
0,164592925281887
0,159296090328804
0,161056645064644
0,15756972812064
0,164274604358233
0,157441313081692
0,159848192727749
0,160585857150235
0,157780954678569
0,158548201788276
0,15904975051977
0,153897321717747
0,159277703939651
0,157294812248832
0,160283717181859
0,155011571997923
0,156266827848777
0,155402833064965
0,153710441771235
0,151338410179194
0,15106508956853
0,153412112393371
0,154275764648844
0,151640538783396
0,156056584689408
0,150933223377726
0,150058901633565
0,146370349844722
0,1525219698995
0,149793133148788
0,15087013718477
0,147795488549031
0,149832729232858
0,148250232640543
0,149306162878962
0,145571958565903
0,145846581924503
0,143633639299955
0,145038084608684
0,142557489252756
0,14630622733265
0,141850288330942
0,148138425733177
0,143675814366134
0,14277723693177
0,13826353016259
0,138230537763745
0,140217993663724
0,141092968448694
0,13936427607143
0,142867192906379
0,138312248243872
0,139749346307375
0,140797914786267
0,144684594539648
0,137599158149221
0,134944510777737
0,136398775794514
0,135823824468804
0,138347234717138
0,137579776036239
0,130977506808819
0,138556709245796
0,138222659369551
0,136218901698989
0,13502589011618
0,136755030603288
0,131093589995074
0,136310338405539
0,132583473018476
0,132061593838681
0,132286081343996
0,136812195842218
0,12852455080281
0,126320424974666
0,130936412089014
0,132953942316984
0,125947539654427
0,131808450584175
0,129907776790706
0,129381624840318
0,125976605183347
0,128227186119999
0,120408784424707
0,125951870992403
0,121424801822871
0,126149470880937
0,120344346430555
0,123251758533723
0,119409759079126
0,120312765967137
0,118297132100201
0,118400405449143
0,118637469068182
0,120954111573245
0,118493498633396
0,118996623854615
0,116919975543906
0,115808114441873
0,111837287382621
0,11810311403043
0,115229477825871
0,118025676480936
0,112557889233976
0,112533144291191
0,112656658212391
0,116586570743504
0,114616363098477
0,111716652409809
0,110255831452915
0,116743715816714
0,114049617441305
0,113865283909719
0,113039328466994
0,115150347852646
0,112873313332143
0,109864778438929
0,109527065741405
0,110926955410551
0,106599454691772
0,110798693708159
0,109902575757002
0,112713079713571
0,110422651719036
0,109754012029681
0,105662767980059
0,111123036227817
0,108658263672402
0,106443558819593
0,104514629867055
0,107519404148782
0,106383857056654
0,11048971352354
0,106567785300682
0,104608025658632
0,102397907006561
0,107589106129093
0,102884638819182
0,105599681131013
0,104891945256333
0,105352875592715
0,104813451462824
0,104010333804098
0,0991707875893996
0,102426974056911
0,100407215085619
0,100474345687173
0,0996188757571277
0,102035107684761
0,100836159051756
0,0995238509104335
0,10007910395851
0,101122519242855
0,0987859748134228
0,100232981183915
0,0991978674159895
0,0964434457515743
0,0943741238701908
0,0996984201886205
0,0947032004295337
0,0972593948042262
0,0950170325602615
0,0975130320213676
0,0962730685950114
0,0968293483220543
0,0947487176419228
0,0978468894294261
0,0916005821675371
0,0979728810473006
0,0936861493408867
0,0946891928909953
0,0960830839143484
0,0978963692080388
0,0938562608620142
0,0964252122738246
0,0935044636910038
0,0964075589408699
0,0959695661009644
0,0954508281889663
0,0933972919220969
0,0932880017004079
0,0913047509784241
0,0957434584503008
0,0922134083203054
0,0941348988873235
0,0940721286930381
0,0920392518071757
0,0958330885158776
0,096319958967832
0,0925910529526769
0,0913601869216222
0,0926419651638942
0,0940701926486593
0,0893537083689735
0,0920262132518472
0,0904307163004107
0,0957249209162338
0,091532850560266
0,0905219144662515
0,089621832143095
0,09302451076523
0,0919106334787542
0,0930186628097873
0,0898426808203716
0,091324423752417
0,0887721799506815
0,0873132926534713
0,0859949974701417
0,0841559587517457
0,0833508122715721
0,0885514694325563
0,0863935480058936
0,0887740525520348
0,0850420764436407
0,0861906755680939
0,0846878367238574
0,0882338295263427
0,0864876456961558
0,0826520921013033
0,0830250592280997
0,0828498708078813
0,0827843612604248
0,0875784955452519
0,0851055240615658
0,0847551941287134
0,0863941298029548
0,0883294551459832
0,0826086907234117
0,0844438883144855
0,0833542589191799
0,0844677362304392
0,081375002824563
0,0834323146786054
0,0830751611614128
0,0846263855807312
0,080297625186861
0,0843557317538359
0,0821935477243521
0,0809621156425331
0,0818000362463948
0,0817897662714634
0,0785947942805705
0,0823527351597891
0,0795381080873238
0,0836766800083092
0,0813217597923311
0,0822670262454029
0,0815254242323181
0,0847231934781761
0,0808698359061883
0,0825590019076429
0,0792302234320456
0,0788983173652552
0,0800739712872761
0,0811721016842388
0,0778561224486677
0,0761716598228639
0,0794156153018301
0,0808504227691699
0,074330072552376
0,0766201384855831
0,0777460756571139
0,0782133333726202
0,0770128975946427
0,0761511723611352
0,0720166639460674
0,0748059845798684
0,0736958311331908
0,0761659262095179
0,0733409988828013
0,0763948157952404
0,0740372967362064
0,0762481090530181
0,0725792725205463
0,072578643894347
0,0730291905253243
0,0732015917759882
0,0722859677435744
0,0709385191431369
0,0700265600280784
0,0713561541135796
0,0699752212900869
0,0733831299776206
0,0717694910004511
0,0704213383629831
0,0692712520705226
0,0731390998809081
0,070846795638556
0,0717560999090871
0,0689233436754893
0,0726376540496894
0,0668805321445183
0,0685536602317161
0,0680267900406851
0,0685100485806876
0,0666395708727893
0,0678095204194281
0,0682355506958429
0,0672979921449228
0,0687353252678247
0,0716476771840231
0,0688135244128831
0,0691885038509563
0,067696606258725
0,0669036320757407
0,0676483898292897
0,0680441831133829
0,0650077276889314
0,0679668944802448
0,0679284058403567
0,0654285146154504
0,066179217195246
0,0681651112195141
0,0681264092856866
0,0652239057160766
0,0636018867714606
0,0669792373715308
0,0633837627930774
0,0639946160258608
0,065558384029073
0,0656786769413444
0,0642168209454908
0,0658092575988886
0,0647486489162347
0,0633845138356544
0,0633868868636576
0,0636289148579905
0,0624066685283808
0,0620233641264677
0,0601767378955698
0,0602564723801837
0,0600976669272045
0,0616601749595257
0,0618210781447326
0,059168502783936
0,0585380588976515
0,0588871311237955
0,0613313592326318
0,0590637631463091
0,0576021716341463
0,0581697738386986
0,0586600025201892
0,0588209809364976
0,0587679877794542
0,0565215390579121
0,058432353955704
0,0605970615691761
0,057904530861791
0,0605197416827799
0,0593042984963848
0,0592871253706087
0,0608189651900248
0,0583487712980593
0,0576469267860161
0,0589151136912926
0,0571553271871523
0,0585413783802091
0,0586604981707305
0,0580143194473361
0,0578541429108504
0,0594297189646971
0,0605594476835695
0,0601396464067626
0,0614946731527696
0,0599526486975112
0,0609710647229219
0,060318101502182
0,058788335783261
0,061281000961067
0,0635874493460535
0,0632446809313766
0,0653391569082322
0,0611589350106934
0,0595248324172579
0,0548948182473639
0,0514011980068988
0,0477602546460605
0,0545364899917935
0,060617506181709
0,0562142198897736
0,0480315632220558
0,0484228282953567
0,0521484567339731
0,055230334256616
0,0424106441542545
0,0516104378422866
0,0458268595470202
0,0498382005347823
0,0536162907154019
0,0485964296577111
0,0426910779180168
0,0495024424149136
0,0481167148583249
0,0571934648873618
0,0471162326845655
0,0581093260325825
0,0538905634199306
0,0611573077290938
0,047761870038099
0,0624957778233596
0,0454973821834485
0,0560076538680754
0,0443215817040916
0,0588411627406343
0,0395123218891844
0,0604524529460767
0,0406303826768894
0,0636639306991045
0,0425778305010698
0,0621953278102187
0,0379271177339336
0,0663625566592118
0,0290017966990244
0,0624297310901305
0,0256383562616791
0,069555639450827
0,0361214143805947
0,0786396587082977
0,0264139106441674
0,0736443364685824
0,0265092125606239
0,0784806750483347
0,0287792717805687
0,0830331055666752
0,024148076946928
0,0804267996402243
0,0379909124584744
0,0767641737437807
0,0372390507960269
0,0675005261993
0,0529839845170595
0,0560733073114381
0,057907554599418
0,0489650075572892
0,0690804288478103
0,0365385822703611
0,078315927602733
0,0364267527776559
0,0695360328024115
0,0412579136918484
0,0703267770881682
0,0457678797277349
0,0612528155084622
0,0484729778714765
0,054522616394788
0,0547991229367692
0,0536791183323902
0,0533962430759115
0,0527332677762121
0,0503325025041515
0,0569560677799033
0,045268677725804
0,0547186554090937
0,0460447585751367
0,0549372971465368
0,0494028166591424
0,0534723129139701
0,0440218917461568
0,0510848517125281
0,0451922461309523
0,0531016236067698
0,0475384622967057
0,0535896825795391
0,0456480192007365
0,050087150352823
0,0474596627098971
0,051422742020568
0,0478592685235476
0,0474479391641238
0,0456166424987419
0,0504396206414058
0,0474381661103766
0,0502083295172545
0,0480348999625118
0,0493802063705206
0,0461324055267771
0,0508258629644693
0,0474059625935529
0,0507458875806749
0,0474654919526281
0,0497437747393885
0,049930665091815
0,0506144501821837
0,0468239826922791
0,0502216739392939
0,0481548682996468
0,0481988808074693
0,0472558237332064
0,0508304701226315
0,0469487010186016
0,0498061759473655
0,0487549548591571
0,0518619719108256
0,0465473958987818
0,047890751504743
0,0485885657149185
0,050652458303263
0,0462538685457209
0,0507326102999625
0,0475761838908964
0,0504327607605042
0,0474942663084434
0,0488309181386707
0,0460867290574036
0,0501966520344171
0,0470018265717939
0,0506440175267017
0,0463552477146241
0,048322889534284
0,0500211633649588
0,048704343852329
0,0467078572191352
0,0496000684689069
0,0437313223600671
0,0481893505158063
0,0459576782404369
0,0499450567707448
0,0463576307328322
0,0468778961672567
0,0449236128483976
0,0473159549978901
0,0484871185311098
0,0486816264714255
0,0464348164649371
0,0495218816563031
0,0458619931585875
0,0481865991169663
0,0459433668105231
0,0487139209352344
0,0459808377754243
0,0477583608977618
0,047015534972508
0,0464366167189429
0,0472431570879675
0,048012080130559
0,0473118271249851
0,0491220607912857
0,0470579959086989
0,0507732107647255
0,0494628414598063
0,0504074604596962
0,0456366049285919
0,0483922227451397
0,0468776236593217
0,0503353238776509
0,0475774036893149
0,04946989001227
0,0463210361131637
0,0491083040403118
0,0479918240729378
0,0494064817041574
0,0481224950100998
0,0513301548563056
0,0479539083864869
0,0475248662981935
0,0476396561999105
0,048994682122694
0,0486917313852074
0,0491164462626366
0,0478183500835471
0,0483744308925533
0,0473077252446245
0,0507633743938509
0,0482038383429388
0,0500527963243498
0,0457910618892037
0,0491761085820468
0,0467596565891196
0,0488635245265201
0,0467602644258303
0,0469387303746644
0,0489372648142984
0,0504645246532478
0,0470397062383079
0,0496635015824582
0,0467044882112851
0,048191343133751
0,0485919121667562
0,0491524740762974
0,0469671832550159
0,0495556904346454
0,0481810537066618
0,0486815962832299
0,0458141432162457
0,0474547219900484
0,0480270392772762
0,0489130463712744
0,047800423719735
0,0491795235546577
0,0453855132840397
0,0482673743051794
0,0479537206780097
0,0492847771672741
0,0465343240104444
0,0512086432014834
0,0487528019729571
0,0483237909551815
0,0507094396049123
0,0508416353606224
0,0497309404710139
0,0499309910254039
0,0481654554078489
0,0518095910223509
0,0504679652050708
0,0495478309059714
0,048786692759564
0,0513677720558671
0,0488466139440277
0,0506805082672569
0,0493265940805233
0,0486138572501888
0,0482687131948898
0,0512182523872385
0,0500041387764757
0,0481802354030361
0,0472705457673587
0,0510374191671707
0,047964328655993
0,0484668076839707
0,0482570803386793
0,0507482974356984
0,0495922085221943
0,0493118673691354
0,0483169750223164
0,050027748504874
0,0488021219749075
0,0504124606559084
0,0470333048060616
0,0478265177852369
0,0479675770717287
0,0479044809128516
0,0467633157971514
0,048139631139005
0,0479151386135507
0,0468679423162243
0,0479809428773664
0,0471925403387156
0,0452104528967142
0,0481543122497086
0,0458742363458063
0,0442700557868957
0,0451656554993642
0,047958410351486
0,0478353359974444
0,0463692873436169
0,0448858503447528
0,0467642862868463
0,0431092918712851
0,0477830485930645
0,048332449451432
0,0472205658417079
0,0443784420805997
0,0472792713574731
0,0461805740560453
0,0429421188789598
0,0462141874293746
0,0469043131997668
0,0451227884586086
0,047979779877674
0,0468470136104187
0,0479547223557699
0,0440361330470293
0,044027467450685
0,0454484594559244
0,0471851437719609
0,046400505954661
0,0480691302462334
0,0472802268193686
0,0472713582238061
0,0454352019774041
0,0468652813711502
0,0465534654038551
0,0477795726105305
0,0449411404367504
0,0457293126385948
0,0474698423916755
0,0461047483137169
0,0446996039824196
0,0445478500608284
0,0449784123917246
0,045432126376654
0,0460653375372318
0,0479717038626115
0,0439232105159116
0,0467175268058576
0,0451718377182737
0,0426775040795307
0,0451057524502126
0,0477130325905323
0,0433751464043046
0,0454144854564128
0,0459199502001864
0,0434910345664154
0,0430047010885015
0,0444204529632161
0,0439082733819212
0,0462376458530814
0,0462742037846122
0,0441693188720236
0,0423520957470463
0,0444586721411245
0,0458630910223927
0,0489596676759916
0,0481495466847838
0,0439117062844082
0,0454311705331552
0,0452554151863362
0,044751258589059
0,0443005338918644
0,043047067540828
0,0430177477564512
0,0423577865620612
0,0441107911605898
0,0428488061435345
0,0425454824741019
0,0445377962876814
0,0451598822945666
0,043690966660506
0,0415981448454103
0,0446556760652336
0,0426361551253736
0,041837406069855
0,0446132032041881
0,0432026249324576
0,0439558339488531
0,0454524454245486
0,0438398341561303
0,0437986459501214
0,0495898093140289
0,0444273040190579
0,0435555221375789
0,0432453926086662
0,0449690921499147
0,0427941986589845
0,042367063489071
0,0446344319488627
0,0444742488792659
0,0435617864057174
0,0446570466187147
0,0419310035616443
0,0425460480563082
0,042529981638066
0,0432763886462023
0,042652910250705
0,04232168362119
0,043327799462436
0,0456735550418043
0,0421919038034004
0,0413906092838499
0,0407507204397859
0,0408373730319323
0,0411020828820639
0,0456476062557231
0,0465302422434886
0,0515986314597936
0,0440677354680951
0,0406841532167378
0,0412762273962204
0,0387406569100566
0,0398744645520453
0,0426340201212846
0,0410212091252798
0,0403527849763993
0,0395045782918804
0,0406603094632331
0,0384536567213301
0,040283218358182
0,0391669156617797
0,0380955683194157
0,0402229820034168
0,0399132302222782
0,0400267244530572
0,0393663385144588
0,0386767353833825
0,0393372477888926
0,0380710615089742
0,0414518158075601
0,03916744586856
0,0385418449940297
0,0396920987645485
0,053326340601546
0,0571901386889667
0,0402440508569034
0,0414700265599475
0,0444914716847326
0,0445317607997474
0,0384255147964394
0,0404455702434763
0,0401666067725747
0,0382805993647507
0,0381695075491704
0,0396402031018176
0,039279103606314
0,0376206501004785
0,0366537194481707
0,0375294522790868
0,0362442813698114
0,0383118413754399
0,0374963592455947
0,0380557225817753
0,0385897004526219
0,0378534649128034
0,037449992127048
0,0374272323530458
0,0372618081035569
0,0378448502984664
0,0399953191031838
0,0494597883553957
0,0475823243353268
0,0413033908329967
0,038746188296751
0,0371002782297026
0,03871195811013
0,0398208253968391
0,0380221963918452
0,0387758813267126
0,0376461955241705
0,0372564098869939
0,0397556174800765
0,039606413909728
0,0381669784643779
0,0373366504349408
0,0378880717733749
0,0375851126231249
0,0355728991599891
0,0359757024745673
0,0367775970778865
0,0374673455507731
0,0356477322690518
0,0389399510611709
0,0429263629543033
0,0418972955433779
0,0369202417980366
0,0500789360881206
0,0624363077177191
0,0426912571629045
0,0387388924356845
0,0392880614870415
0,0367014605208523
0,0351641304238691
0,034918387425055
0,0353253191375824
0,0350284407007706
0,0358821993813197
0,0387677381323895
0,0370240739956457
0,035855630381062
0,0383179944158411
0,036620922237599
0,0351592479457486
0,0364047066718462
0,0354273316215974
0,0364128152158465
0,0368305214540374
0,0449692338401005
0,0591610762914356
0,0479115983034534
0,0397160919893836
0,0348410945499563
0,0408399921192852
0,0658185058385268
0,0486801626632144
0,0343805297370492
0,0413101027360579
0,0378120975222894
0,0367546475512477
0,036030442099699
0,035511492911579
0,0427887583800026
0,0467010433605745
0,0419986974522115
0,0418609936864971
0,0379136051255623
0,0344021962859914
0,0362485957074722
0,0360842811361602
0,0343827954690907
0,0380144885315026
0,0367010504571973
0,0362450098489364
0,0353599822035851
0,0338887548033047
0,0363866046083785
0,0369200798666136
0,0461495199699499
0,0467027514751683
0,0364354714703171
0,0383263319522909
0,0361318294427164
0,0346335574672518
0,0526571368724089
0,0557236424965128
0,0402211505568783
0,0370569348905165
0,0356811643687665
0,0363114064328439
0,0367605696170895
0,0332724044380027
0,0356939686263239
0,034112551516102
0,0336956746263347
0,0365865390434591
0,0369198690501896
0,0350075910871497
0,0357890184753661
0,0349024758269615
0,0334809508993164
0,0348340832148785
0,0352660077568924
0,0369513314315287
0,0381063836041124
0,0457645456331403
0,0667637945023087
0,0702000890362282
0,0597193040574277
0,0538541521456808
0,046071083398205
0,0413835573089882
0,0374026111024566
0,0341024384897651
0,0385807303720503
0,0411714322560758
0,0393203944978762
0,0366696454603172
0,0400845673464665
0,0371061349571514
0,0348514492354266
0,0337062245243726
0,0364992429590126
0,0333870928968078
0,0365015701785208
0,0339971808040492
0,0380830375249707
0,0340721049592207
0,0391621397856356
0,0499182996640563
0,0496172062249418
0,0379798455807645
0,0474622787762793
0,0776399419950668
0,0674225774959867
0,0508448950977594
0,0459175689978072
0,0409440638095986
0,0353256243923976
0,0342570305839257
0,0422361798639825
0,0464694680817075
0,0341876325256654
0,036713041310265
0,0349334617301629
0,0416279378907795
0,0380849927127928
0,0340136144792875
0,0636957053833927
0,0880207204428271
0,057840268767133
0,04073609959686
0,0358310914561611
0,063458386947453
0,0743659458242111
0,0459889231165588
0,0399084537251822
0,0447135093241078
0,0356360539401201
0,0369965692507593
0,0339769753498795
0,0404756413573652
0,0491123879611318
0,0393785824518087
0,0367939491263383
0,0362355816158227
0,037910295063944
0,0437999089098334
0,0465377691154132
0,0568109379603297
0,0519071353330853
0,0420051683232637
0,0467895629512575
0,0444304903183107
0,0381523275978648
0,0420402853205357
0,0380603094550228
0,0412123997259818
0,0589876801172097
0,0572874896418625
0,0567426926633148
0,0676515159633505
0,0541539179569663
0,0408280547426189
0,0469713112859435
0,0613870665903868
0,0493785925906865
0,0391557120079304
0,0721298084173558
0,0746799450160153
0,0832607312741717
0,0603847063907684
0,0517366712746401
0,0372231724502862
0,0466720793322804
0,0330165111854441
0,0503226471716143
0,0603724817797974
0,0529760055058743
0,0380984509695535
0,0412951487755263
0,0568088002226219
0,0615143909146277
0,0523998256434466
0,0452260234952623
0,0385800023911151
0,0455648961716242
0,0680372288068845
0,0474843223075787
0,0582239923877514
0,0849556063084543
0,0921857179086725
0,080854917817059
0,0477545615869366
0,0612850509890225
0,074926269290548
0,0575780094740297
0,0459799443962442
0,04656623858419
0,0476979615964525
0,0385110052650748
0,0636726532449778
0,0891634585034223
0,0573620518796287
0,0489594892011961
0,0497602402907044
0,0618886899893195
0,0809636174084518
0,0650874496359273
0,0455128394831268
0,0511432881167838
0,0432748781462885
0,0618277525058382
0,108861141302036
0,0776391862090155
0,090490669405094
0,0891050752726013
0,0925449878006497
0,0709686195176383
0,0717279050336906
0,0580781022657125
0,0862543137246868
0,0821139446693192
0,061745077701161
0,050583636731066
0,0974309438611877
0,0740591858157381
0,0705469875115178
0,0553999485959921
0,0587612121860437
0,0614833494590208
0,132037260238748
0,146438511057096
0,108795029914589
0,0634990912430978
0,0809240050668377
0,0935482172260048
0,0733691516643755
0,0576966345902663
0,0599943580329668
0,0604893083238165
0,0574290498503883
0,0661913965677417
0,0773876035400256
0,0648497671808791
0,0708001538647692
0,0570647272490041
0,0754874129818191
0,108431646645252
0,171165508396694
0,099061788878079
0,109262003243462
0,10753831013266
0,112003403956348
0,0860651847935201
0,0710879495460777
0,0705558289642306
0,0815696917446596
0,081646873131488
0,0718867695034445
0,0849677563500062
0,114134683313903
0,0946478590355842
0,128773133420638
0,100905547355697
0,101003823387413
0,0840765961876658
0,168376134045926
0,219219450553983
0,148822902876285
0,111895654748204
0,117486052693965
0,169280882842608
0,170993850876177
0,135798318604091
0,112578233316088
0,111934365042685
0,110767461511556
0,130811728944133
0,140073084449988
0,145380289177715
0,158680260856574
0,137295832844052
0,143988469265598
0,185000282205545
0,281837037957693
0,257430738070203
0,172831707891822
0,17132866839584
0,200719263413666
0,19257593198446
0,170527304963986
0,176438985503562
0,165447073346249
0,229810155741338
0,227816438280766
0,215231269119017
0,181221590969218
0,228144602783386
0,217659492576855
0,231694649302235
0,268203693184237
0,25977207348616
0,23390594751072
0,21413043679293
0,238227099707725
0,223062088975336
0,25119515777574
0,267779828936635
0,273524262574351
0,25608313473515
0,248748013707512
0,255096222001751
0,255573600447377
0,271880238507383
0,266698278162424
0,287053629701274
0,33491239883689
0,395132892482364
0,49398687895663
0,315617639251048
0,295086333057517
0,261701581288574
0,306288322901029
0,321718582552892
0,336188668859244
0,346157205135104
0,301797820024125
0,286478196372766
0,277199883816713
0,284059118778819
0,280487092480417
0,286546747406206
0,270771637976031
0,289471712290388
0,317972238539509
0,294578192652228
0,381721785799375
0,349868515400287
0,305874733781557
0,267391203711654
0,285530705165629
0,266807540239244
0,28184502511319
0,256803268132996
0,311116741381309
0,278059993661113
0,285233307884612
0,251049618986585
0,268444709451344
0,292222558391043
0,284519861920293
0,257785269005155
0,243427153769075
0,237909422819061
0,237784576076044
0,225135495783632
0,299583161919703
0,278946946041193
0,252621870868369
0,21498829839921
0,225631086982235
0,215773032705138
0,218996018872773
0,211524067917355
0,233610888581828
0,207085608591351
0,224208568329517
0,212786130358924
0,213814149143847
0,200722285373334
0,213937447538357
0,213009423137804
0,21155778659223
0,209606076244863
0,207683239705835
0,198875555148238
0,207087012820731
0,196840296823361
0,203129350762896
0,205426523398275
0,219017429578533
0,205939174112407
0,205809702706511
0,202913658106326
0,205769147872418
0,206305281770173
0,206636212187051
0,205850288332838
0,20411606022498
0,200387774995149
0,206462100394705
0,204304505308789
0,202244035524332
0,207778314610873
0,205328091927752
0,206775163080269
0,198968220680987
0,210893463660257
0,204001128156961
0,233191443912368
0,307653773040801
0,231075415744211
0,222717406650589
0,194506663407375
0,216302612636004
0,187544440915597
0,216176144661816
0,265392938128963
0,242218230994331
0,204199361264108
0,198149634721961
0,200597756528867
0,239522497912999
0,200481404266494
0,211700432165787
0,191490246799124
0,210488295448794
0,281946469436445
0,293262729442012
0,395102667390837
0,301421654213278
0,239105827421517
0,19682849889932
0,269526416214051
0,232850197220457
0,220433715019055
0,190330265928739
0,206815950590882
0,269632193490371
0,221106530135022
0,212795420964756
0,194899765394812
0,208061371844838
0,253272287069862
0,250710767954089
0,233261127085457
0,272313873448296
0,255031955141677
0,261897602396421
0,295585494602655
0,339420492814143
0,234112066339736
0,198095703125495
0,19980182927099
0,19064447248281
0,241980835617736
0,25517570127927
0,212936109547947
0,218842040757795
0,177249885454469
0,192073603314129
0,19140213836555
0,240037835090647
0,176650667381105
0,237384610284671
0,21008720777861
0,19695054629301
0,209488738978751
0,227875920251884
0,277936808768595
0,256105755431385
0,18786577456324
0,169536761988668
0,263411556676514
0,220518684208101
0,21080343074969
0,189652850059916
0,153220594578973
0,192709795771472
0,182570323356857
0,166301602947626
0,199420040190708
0,198533846172154
0,240475972968725
0,254365415119055
0,313556686813878
0,232039475166921
0,157670344139843
0,146313721415551
0,139086642735237
0,160042426734252
0,135636539043287
0,13922834767688
0,199859323286362
0,134349743240942
0,179605346827774
0,17932261798646
0,155852625172046
0,13794296017157
0,136104209372651
0,1292337888629
0,157895968831156
0,194145314820215
0,222205692386226
0,155896495172631
0,1855793084355
0,163112744813549
0,166125248331631
0,139679094010712
0,152757180804633
0,140530941378059
0,158616663852021
0,162795535134496
0,156538010628165
0,15422217646753
0,16169168758663
0,154179220071227
0,243838320776708
0,17977955308595
0,198013566380734
0,213974530716997
0,245023117732104
0,267836319973583
0,202032110699035
0,199531823290716
0,187176930077151
0,197964737400069
0,199468544661044
0,192313038210314
0,252586999441387
0,230647753917115
0,221115574392075
0,209366491105491
0,217877342532576
0,210736105047396
0,237425202254245
0,272559347604333
0,269228974503746
0,374835842257379
0,264870432666795
0,287235247079213
0,230281253336726
0,239282006969743
0,245706933460618
0,241656815741894
0,234435567247199
0,223965847635405
0,259632318601683
0,275317832533071
0,244018397620145
0,243203933199246
0,23324397717001
0,243269387266364
0,238594229059547
0,245077945745621
0,241190922139204
0,245114540559291
0,250413098556956
0,241377887069379
0,287620585457534
0,34650810703073
0,277268517759823
0,267465421587227
0,260540545616989
0,280225670843729
0,253401742700954
0,277206708014022
0,291994770436405
0,282343952058957
0,274060675178471
0,268042689386672
0,269323573927408
0,265386776354091
0,313532884590394
0,302274996814715
0,279743328088903
0,291313346385281
0,267578931331511
0,388829799270994
0,316254078590954
0,342263214768011
0,303180966167291
0,31322656457788
0,284212716986115
0,29737375781332
0,283394361933057
0,30178804225535
0,293663849498603
0,303304213350286
0,293671882209149
0,292431662855857
0,296871799850913
0,286362166474831
0,309433945494159
0,328757990958375
0,299818205957302
0,299376151900717
0,291502615219216
0,296654053762098
0,292146361390074
0,341616085172284
0,315222366377897
0,31439550100488
0,291132514983221
0,329086362410489
0,333723175577038
0,314554735055712
0,288636756393234
0,295620894514084
0,284846215460194
0,300164835655252
0,275843019613812
0,329710548906084
0,324724199312331
0,319311365659716
0,289664399705952
0,300266726597642
0,287647199807375
0,303039240366782
0,29008261705243
0,305212823872072
0,297628702797636
0,309840704275967
0,307692460784163
0,299426829354888
0,303891994031487
0,322393429038809
0,339925447618363
0,323805529473343
0,295885143423881
0,306140451271627
0,291014841592066
0,311688892726876
0,304947326474773
0,302906042570364
0,278674111917037
0,298541245825782
0,268549906450859
0,312366090533511
0,324256973453456
0,294856281988777
0,307273045762911
0,274703511840111
0,279401958966115
0,27162350281384
0,270737789324418
0,262229179980246
0,269935787954177
0,272174876034636
0,259750303186738
0,263864183781547
0,257120450649106
0,259564379422899
0,260940737795646
0,260785586021112
0,254670568525185
0,257144654001678
0,246676607868251
0,255873891110343
0,252192684397311
0,255401612513519
0,249131014818256
0,256215446282555
0,282111040854299
0,285087545815235
0,286072565086215
0,259087535926959
0,27270353650131
0,257752970679913
0,258083615380444
0,245972344603822
0,248652936251866
0,24902898756709
0,248034229061335
0,254303475368311
0,247622310149855
0,251330425280772
0,248557387669928
0,253136326655999
0,24654855491525
0,249108781515543
0,246990509747588
0,250499323648803
0,247304682083454
0,256660291063274
0,250186127097111
0,271713207060598
0,246822455731884
0,266309067088187
0,253605880916972
0,25721536393639
0,254622807583802
0,256658356635386
0,261805744439027
0,252380641801368
0,250680986558832
0,247723664042189
0,2501333835177
0,257489516172195
0,248696688263437
0,24986820837836
0,247655768904727
0,24854189284422
0,244766837380934
0,247866156826092
0,241757009756763
0,2401002668541
0,238632508700573
0,236538595566096
0,235389720767587
0,238451684770874
0,228631418490426
0,227852383482352
0,226829778230861
0,228644428259376
0,221815668151286
0,223521269702462
0,221407144161665
0,220111741932166
0,218981283256057
0,223533098859055
0,215157686182971
0,214800130461919
0,210415782530542
0,215757551239
0,210895412135544
0,212617037082104
0,21325179488373
0,212106220855005
0,211033903087306
0,215650401840499
0,209795080788795
0,214964767881784
0,210876605702445
0,218225729080476
0,209728252065198
0,216037167890706
0,215954656290395
0,220132888941539
0,219575873127027
0,219724823667051
0,221319161597986
0,221440395687557
0,2224133307081
0,22334323803345
0,222883801115682
0,223272127891404
0,221584589132488
0,222978128681074
0,230937374008102
0,22469809529533
0,227140997052791
0,226460736877255
0,225630733584005
0,225785065451041
0,224412869988559
0,227049570634232
0,224050603207255
0,228124364620354
0,222245396869572
0,225389511373271
0,223260296043168
0,223468800786512
0,222359498168609
0,222529890494341
0,221721053290694
0,224321796639037
0,22173178197682
0,221282102768482
0,217545432917236
0,220399684880322
0,218210575769595
0,217481053101092
0,217790332576341
0,218935263717075
0,216714902494051
0,215903850581624
0,214386815719577
0,215158048321933
0,213674145747244
0,211910677230455
0,21074183985189
0,212487734937372
0,209514231803936
0,211572624070352
0,208981856198615
0,210910496886665
0,208220462400756
0,206096790415618
0,205616687655305
0,207420109517573
0,203597605752432
0,202799849570329
0,201556638512171
0,201384962160965
0,199703816700468
0,196705438924069
0,195359028846815
0,198701566986291
0,195258593662025
0,193996646447559
0,192697070926721
0,18918990907155
0,187643034094911
0,187449924489732
0,185583178811154
0,184352867866136
0,184214271069377
0,182768418481087
0,181221288284529
0,181379265001852
0,177859891550657
0,179113527053248
0,179468001604258
0,179927403681842
0,177991865007146
0,177563234435462
0,175524511801925
0,174815584526092
0,176657409937195
0,174958484261509
0,170195073271209
0,170186783582351
0,166530143089112
0,166787556074583
0,161346126818881
0,162524098977888
0,161973781254668
0,162989333233983
0,162513300002003
0,166076022385864
0,164345457138917
0,165630415722771
0,169969739595781
0,171602943170172
0,176247001089758
0,183064319015471
0,187700565586054
0,196286814254994
0,200484428293305
0,210886237209141
0,217468950379654
0,226964190612288
0,234457821837016
0,243420398450858
0,251439825130648
0,260687538687424
0,267686748092609
0,27996068649922
0,284873264642313
0,295941098373232
0,30349411664721
0,311894559406828
0,316170044313745
0,325689577900128
0,331327373504228
0,338417324560543
0,342077691227556
0,350422539473657
0,354724144577315
0,359301162275916
0,362035206786872
0,370837540674896
0,370689342243399
0,37408831759947
0,375431757720782
0,37833858464114
0,379409323451078
0,384196717158507
0,383905962845634
0,382186938470466
0,380051747225474
0,382497930860364
0,380051180636508
0,381923483757403
0,381995845377111
0,382049106255493
0,383613439598015
0,384458923435025
0,387675980615808
0,39081744043282
0,391057058717473
0,394340514888446
0,399227346455765
0,399613184975404
0,401212377605795
0,40881012000678
0,40812522023944
0,41695328868799
0,421523517171025
0,420490963231434
0,427631001714058
0,435355377913694
0,438198606210221
0,447606645217902
0,454981502321299
0,457963875187182
0,461685570903129
0,468686708700672
0,477519761000842
0,478497764308465
0,484200085159102
0,488367106131617
0,492760237060473
0,496191226128451
0,493179915671548
0,499659562319823
0,497200591753073
0,499172546153748
0,493344577896315
0,501402016074159
0,493200664644488
0,493032004794066
0,491305052259481
0,495214542228336
0,493916085631917
0,497415143661976
0,499276785771256
0,506678024787829
0,512432635143447
0,522339926902119
0,527350482837911
0,538642930431392
0,546042673418066
0,553720768856005
0,56432897282656
0,57131123407183
0,578092546088761
0,588645632146608
0,595382248614364
0,607900433389902
0,614631811896436
0,625367430266201
0,638262009597923
0,646904203186945
0,655854455435164
0,661861143591734
0,677290060682134
0,693039162841518
0,702083467257703
0,716096988014654
0,72863986248639
0,74027073939492
0,733517689807005
0,755193559812753
0,766809000356137
0,776088858647947
0,782294165021008
0,79478496197401
0,790283583228798
0,806545012207955
0,815098305934097
0,826410433496512
0,825786817755331
0,824871787018011
0,824617398479369
0,840016100144305
0,829263166621703
0,838530309250694
0,828184257407171
0,828027989634366
0,817576386702286
0,806306125159561
0,813559427767473
0,804951426094795
0,803530782122034
0,800356028975948
0,803234878458424
0,809687822210207
0,804125759342951
0,814206328943423
0,810887531598309
0,817354643343397
0,827038088977819
0,836561580667919
0,83869700728668
0,847184964963281
0,84501580534199
0,854563441831713
0,858901757341353
0,867192059063831
0,875181935049533
0,88361319515136
0,887846816809289
0,890425967958672
0,884485291760558
0,886209658973005
0,880945943463828
0,888384319804335
0,876303319644923
0,864619487983224
0,873436454169853
0,879790072654148
0,877886897547907
0,887840757521499
0,890140895614194
0,868043339022758
0,864324560802894
0,86368312486059
0,870525939982708
0,865133909465996
0,866945244983327
0,850412788624754
0,848544838307043
0,84149868299177
0,837676782713078
0,824006170474757
0,81656829598118
0,806267187206547
0,79728178028724
0,796860005505056
0,776556033416213
0,769355995015999
0,740248466200685
0,720884014695264
0,706305106426844
0,682423540618954
0,663105296026907
0,641393057941879
0,617086380382593
0,588215640415075
0,567766104080402
0,550345798757864
0,532964365713015
0,51272160939228
0,502328103411087
0,490733721248582
0,479593205563515
0,479852791570962
0,471256129209761
0,467679853770864
0,462957122009563
0,463894955513111
0,453891732804099
0,455314243861576
0,448954388509965
0,442479889115513
0,438286374157284
0,430792460225185
0,427010746307199
0,421932043273099
0,41352167134874
0,405014674423051
0,397185513602833
0,391868900630775
0,378168031693526
0,367896053836925
0,35929848366573
0,350640961278041
0,3338200443626
0,325270648338644
0,309957664259233
0,299037572589483
0,288774882506987
0,273289948589451
0,262586813431968
0,250710674043642
0,239702908678194
0,229976069610481
0,220235501592789
0,210848636527705
0,203822083191958
0,19320042304838
0,185273075488618
0,183120211905693
0,172881873652765
0,167598106171069
0,161328551972773
0,160709723301211
0,156580691208999
0,155916171640492
0,151523677278314
0,147556804849725
0,145847296616819
0,148840770367365
0,147603503681925
0,146447480243886
0,146348572523841
0,141497293038302
0,14680934092622
0,144173109060636
0,147385723992192
0,148416351526739
0,150929313521603
0,150385451756184
0,15149214444289
0,149948392050327
0,147024811017125
0,151040272815587
0,14885041973115
0,147824101474427
0,145925570992837
0,143528019507748
0,14704553609715
0,144396962015829
0,146154285263373
0,140686505311332
0,139901323946107
0,142074623419332
0,135485057823779
0,139726048700925
0,141098017824302
0,135890623343335
0,139048345518144
0,142506117295057
0,144944651653656
0,146361422430578
0,145059542083667
0,147787773660097
0,147449032261602
0,148082891239404
0,150840367545963
0,154311607832516
0,15488586228754
0,150186328557781
0,15387373157548
0,155552566075964
0,159409431765333
0,153433507187448
0,161310924818431
0,159082599720083
0,15978468450102
0,160579531289447
0,161585071161103
0,161462620684065
0,160261707497502
0,162430767976815
0,160557951010236
0,163877852041748
0,168257313236226
0,169735521514323
0,167680156018087
0,169532547010133
0,179336070545301
0,181016219135773
0,184979287775178
0,19435179382363
0,200202198824958
0,206285394549676
0,213255890415834
0,211203589640165
0,218707221987545
0,226138261994027
0,221418779073743
0,224404925287405
0,215176210726767
0,211816031032409
0,213674466262914
0,209222035691596
0,204908890909342
0,203356981943553
0,198302814264728
0,193964934501725
0,1978488315296
0,192029330900026
0,19400471299356
0,191020452712777
0,189249407168784
0,186847438446237
0,189258420434287
0,187093254984984
0,179261220662212
0,183418457683132
0,189871080757041
0,189908135881212
0,18772086849661
0,188330266395103
0,185311708707655
0,180236825671647
0,180325796356966
0,173991516524436
0,177114454256705
0,171569617859384
0,175282337962381
0,171384153335513
0,174279502893481
0,17277294886689
0,173419723841203
0,167217303869169
0,16542200506979
0,166165360285883
0,168748378564757
0,159829243656828
0,163297268292128
0,15951066231172
0,159564457530095
0,159600633573041
0,157238028534036
0,147677188892979
0,152657915479092
0,14723433759464
0,153009002583526
0,148972010661987
0,145731321261509
0,147842561684108
0,145659036926417
0,14134970150051
0,145205982340003
0,146761872597657
0,139914339645637
0,141827532568986
0,150285014328998
0,135819862914881
0,138480423155724
0,136330115364904
0,13929326603159
0,134351927930424
0,140474501385645
0,138991842521355
0,136843112235424
0,130173432805921
0,135136835019871
0,133970247266111
0,137150026661009
0,140590555720352
0,136969958656256
0,135068079188363
0,130915931763664
0,131763397490699
0,147771922943439
0,134134124818631
0,139974646671011
0,141129975263186
0,142851317981926
0,138621133462496
0,136505483940114
0,139113524746403
0,136643520740083
0,142315266442926
0,150855782162706
0,151164793320733
0,149063253939713
0,146312380398676
0,151698781705007
0,151290353476181
0,153540626997232
0,156932189260914
0,162470929605084
0,16245485971561
0,172864071480841
0,168835776097254
0,171488887720959
0,170301914264515
0,178790870730584
0,17654850956337
0,186744945478383
0,195841772612895
0,19086886756722
0,199508329187076
0,211693739082872
0,205038862198842
0,2296248149021
0,233483262391393
0,229820454970054
0,22713110434127
0,254205692157459
0,243441844210989
0,254797772971366
0,26678248099795
0,270598693003638
0,265953226598839
0,257668945729559
0,256614216971169
0,265786099443726
0,256489916807437
0,26543454583577
0,257288905177832
0,269119779044189
0,26220261120876
0,244965687952022
0,243236989429568
0,249278934913556
0,253341226104255
0,254873250126544
0,250939364936724
0,240454262923746
0,24852321938946
0,246176075644371
0,244595016973801
0,234691205865191
0,23276178905717
0,226702091231246
0,217200345527335
0,239934688409623
0,223351939907505
0,231887862672062
0,206505954823862
0,20468452261971
0,228174539713789
0,221315070884855
0,223369108680663
0,222563192855544
0,234346712973788
0,230534382326457
0,223781131309077
0,212189375440921
0,206278048750195
0,217284578866315
0,206622536791104
0,234894578965111
0,221473766113552
0,211889472364817
0,218590894752023
0,220734933876844
0,227683862355502
0,237860731331939
0,221986491268566
0,244105588483447
0,218954914484338
0,239427868934014
0,2384181243927
0,228256245211632
0,228387328090292
0,226021307573859
0,223098592864724
0,227715101267925
0,220110773116995
0,213307965117504
0,208642835413593
0,233117949535932
0,228521274077158
0,246122911609359
0,234416570784772
0,249152814186452
0,232018459446973
0,2356472180245
0,234299693565155
0,231582016641849
0,249510401321409
0,258151832263912
0,247846686632013
0,267344216677174
0,263371435806409
0,267597162798102
0,272749322461065
0,290043875096334
0,305146483788426
0,28277286940043
0,280088691612916
0,332934504247885
0,297963168374979
0,324105533445658
0,299524621344441
0,334928853359981
0,312791091551413
0,328453221112381
0,305738019651756
0,312558394082391
0,316826842779039
0,355913203616288
0,367382614422002
0,319885348047507
0,27193112858518
0,298472536304655
0,317431318231314
0,337825019990208
0,359451169871767
0,371401262926661
0,298938561004089
0,29182219907684
0,304981672684836
0,341877741778913
0,301704822180274
0,260645268486921
0,235546373082699
0,28017120790532
0,315103479375639
0,3559257937422
0,294440908663829
0,332690955258631
0,342315484608589
0,345460663443054
0,308481930354856
0,348101657688385
0,341458245746143
0,293286748855725
0,305815452675666
0,336771937223592
0,292461898254978
0,359525822439837
0,296336850128545
0,248542716149984
0,29404243576286
0,351627240706316
0,298076890034835
0,117083520981131
0,322563133976614
0,236144025202934
0,312578108011935
0,357115672910226
0,231707231975098
0,35772332041138
0,323382114379805
0,366465471800444
0,191294058662167
0,447893492561215
0,457627695224676
0,269516615680761
0,263709279547939
0,415167743289673
0,318535446214475
0,386452618681426
0,271491063990715
0,480444291019842
0,342614229791294
