3596
4000,36533379555
650,420452594757
1
2
2
0,0648157610353848
0,0683256309404164
0,0721428030330784
0,0734103663216996
0,0686414848677983
0,0718156679814888
0,0763966885417981
0,0636603374350281
0,0683428886633421
0,0719615995194735
0,0689803462740715
0,0697437397610654
0,0673146577250998
0,0681470961738448
0,0658310724605256
0,0690003359516282
0,0656395231664257
0,0652419987871797
0,0677567385661594
0,0676869168899032
0,0660105856927736
0,0634204891036567
0,0713774686375492
0,0701822775117529
0,0732619399873412
0,0786639721902544
0,0683233291480145
0,0787402246147005
0,0697532012293034
0,070996475571965
0,0622996468296181
0,069146734135736
0,0712201516013525
0,0715865233762108
0,0671156827270323
0,0781377282531343
0,0647086575720023
0,0726510670167479
0,062189662161555
0,0808974037365671
0,0772182932926136
0,070938456462219
0,075530545327535
0,071418936022554
0,0731190804319296
0,0753698040622469
0,0655366586182854
0,0696241065896172
0,0692710832830965
0,0754705746269891
0,0776046047360895
0,072720702107215
0,0888432421039798
0,0815573371613433
0,0759589552776665
0,0890378592573452
0,077218078595818
0,0624060482912543
0,0660922863537457
0,0683634787414838
0,0973344557044181
0,0974357810923043
0,0637017884471284
0,0777040194137254
0,061012399236419
0,0761926526500422
0,0598396828418099
0,0722064706281691
0,0615037455822221
0,0877123871883382
0,0744785177968706
0,0909561022711551
0,0838404119563373
0,080595142698182
0,0759462203682269
0,0790981943191153
0,0551811676326237
0,0699830194970478
0,0671258478069681
0,090907922881677
0,0884402509184364
0,0835932257967413
0,070287957470885
0,0639862912223298
0,0771212627487467
0,0961892815783837
0,0649639767854388
0,0722882641620366
0,0938722482528115
0,0815071676529295
0,0686326737724617
0,0692036357006191
0,0622183023985394
0,0680578340863656
0,0616334024070739
0,072719235295111
0,0616374690718506
0,0706873833702323
0,0565381866814442
0,0906342126874311
0,0835609655533248
0,0761123795936086
0,138755282222755
0,0689548452177461
0,150270603013895
0,0903466798396857
0,0697608029257672
0,141529265267674
0,0802948157529785
0,0864288329822751
0,053967461933974
0,0779911499393742
0,0713664561347686
0,0865116306732995
0,0611435548517429
0,116982244039325
0,0997460179728846
0,0706262374402117
0,0648676827179027
0,0771484653717191
0,0533779056163301
0,124717964190148
0,119787001171324
0,0721491165990837
0,0957716729970659
0,0705146879597568
0,0717552364311183
0,132322496480033
0,104069605436858
0,0724906466254373
0,0755645103755986
0,059840522897011
0,0627535891613392
0,0634050801075388
0,130398856187731
0,083178274065084
0,0791120314832248
0,0821583855969712
0,113009805246135
0,14828082917919
0,0816633343610404
0,0673073531087733
0,0645708646047917
0,0811455582635843
0,133709726723831
0,0979911553351723
0,0720449710842247
0,0993752609690078
0,0858534073221666
0,0691707348444566
0,0747583026073848
0,068621096072034
0,104056958682281
0,0860404085246112
0,0438518650342395
0,148088019323445
0,164235165390763
0,0887208452597212
0,16411069615981
0,0683588708548404
0,0996856806368854
0,0640238720111156
0,0705228681128784
0,0618513419311902
0,0775537355164643
0,0548588141062183
0,0864334800347332
0,111752458409249
0,0590870600845042
0,0857463530677602
0,109969263867244
0,10860268522018
0,0693375886616654
0,161514980812355
0,0843650057620235
0,064459406384262
0,119686248063928
0,0847466659699152
0,0589114678905704
0,0763886752686329
0,107887314881918
0,0597576470896883
0,0770160045108387
0,0586541677160257
0,0780064732461326
0,0918780914324895
0,0842154594487089
0,0689425874396124
0,0837259149263604
0,0680381503887217
0,123144186146137
0,139833511142567
0,12134370625332
0,076039664452066
0,0794918634458755
0,0444317346382653
0,138463420767989
0,108458532351465
0,071896091308614
0,0619396614533187
0,0599436111574218
0,0682250400014723
0,066490276512032
0,0614654750825742
0,0675978742160481
0,0502215452814667
0,1307552607011
0,0874242827713768
0,0713502051156043
0,0607996931040384
0,0857905472307163
0,0857599516186948
0,148598815922022
0,105609841389915
0,0729913548365676
0,0800628144052331
0,0607709629318879
0,0895831417919631
0,0949123781290164
0,0598057730510585
0,0668137339039029
0,0616101180817357
0,0635904211413152
0,0583906305761525
0,062833323508709
0,071472169680341
0,0703424286768314
0,0574791087667462
0,0660172062506207
0,0705125619204638
0,0851345829102926
0,0799449870464885
0,0706835779737747
0,0669917199127009
0,056243971601498
0,0825367806618229
0,101067308848601
0,0658065877893199
0,0781889787147298
0,063407493654821
0,0734097464670733
0,0623156759498399
0,0686256887351274
0,0533628173922746
0,0737390077087538
0,0630213759372999
0,13071873978292
0,0647110621935033
0,0812212870357161
0,0478177074843921
0,0980952708898475
0,0811477987974241
0,0669886921117297
0,069055847796588
0,0665425563429433
0,059375266169344
0,0669700222207002
0,109069208587028
0,0802680799129575
0,0651801197937479
0,0989918139336036
0,0809844636335539
0,0651870252963605
0,080218488402588
0,0626921449827335
0,163560205525063
0,0977345579311411
0,0769459413839885
0,156403863753922
0,0910292598191897
0,0963102144772074
0,0783977988007763
0,0562042397204743
0,233234031667762
0,121153738606489
0,0730152319591351
0,0838184071291904
0,103833362245657
0,0641648211870386
0,0803603748049027
0,0908516245266571
0,085213984352919
0,125545743855876
0,1409063104925
0,171509684558762
0,0524490822974486
0,124218909259819
0,113917011019668
0,0704162245481612
0,0720712717531851
0,0677904269558356
0,0733066960390252
0,0924936505222313
0,0936748168601352
0,09400156131032
0,0866122253771687
0,0768494162543043
0,129343459798761
0,0733070092928506
0,0696276125894823
0,0833001678959343
0,0946254218768664
0,060557312598431
0,0718947045432768
0,0605337544133517
0,0814323495320711
0,0694885057391489
0,0737794619839801
0,142896413152503
0,0971429066498129
0,0784731428875551
0,119529691937724
0,0683165519285106
0,0651679206167996
0,0629061058165275
0,0715115400759915
0,0607348225950712
0,0660033889666994
0,0556191409164099
0,110464965006744
0,0707357913805659
0,0612301489194991
0,0723824400450042
0,0617822230173807
0,0675298302434656
0,0639310542331645
0,0660390627088318
0,0641804063090645
0,0671351946592705
0,0672067790337477
0,109245771216916
0,114409231993288
0,0501317575484744
0,113671388909505
0,11611810324514
0,0744819362221481
0,0689322842532165
0,0590310808924866
0,0645906536796001
0,0601437700682645
0,0696969635542699
0,0583378454359249
0,0680460265721757
0,100748946254432
0,0885869291999559
0,0747942983607858
0,0948423776479212
0,154981538904316
0,164498782679762
0,0873159060405038
0,0828122399246352
0,0564160442331789
0,124315752172548
0,126558301287229
0,0984433405362228
0,111063752360183
0,0594520996384192
0,0824667951429744
0,058872316196928
0,0718965365656731
0,0643821969678446
0,0697410260155923
0,0623057894348912
0,0720096264666388
0,067919840357134
0,0710351508942156
0,0648861639658795
0,0798142336578983
0,129821937373056
0,0847161480703202
0,0737751726036208
0,0860719899971841
0,0631192109774978
0,123603428994657
0,131846330736468
0,125891896703136
0,134016871045734
0,118122522589736
0,156731205012266
0,0821404287545322
0,0839698090215531
0,0615097901541685
0,0828062150337433
0,0750197903258041
0,0774970548338631
0,0727312523172794
0,0774213521559471
0,0767784172204543
0,0826182901402827
0,0731812864674326
0,0821673013100957
0,0691248850053522
0,113008354751043
0,0820415179130572
0,0888404182903366
0,0822872459794915
0,113777085868798
0,163215840009339
0,145304892137898
0,0981873448238908
0,0919493592527573
0,0856493357032369
0,0788879311595249
0,0930454580090933
0,0797708966396475
0,0970462919217693
0,0934081435474754
0,132962135586967
0,123477490193479
0,111202226675287
0,114583430952324
0,0855542186731617
0,124695906804476
0,111266128296357
0,113687313431244
0,138286245794479
0,110067882240022
0,0823041659521079
0,124709830812539
0,123851768400589
0,105118684918879
0,138295215961615
0,0878217331879471
0,0971808779663704
0,0959658053509626
0,104917843673792
0,0962032234588271
0,110093248774556
0,117739447679761
0,109038420215672
0,107832614245004
0,105460541849495
0,110203420065115
0,122678872005835
0,121354524055304
0,110096489741904
0,126370593271693
0,0979239556880301
0,114638639772355
0,0914071184514348
0,12942354581905
0,162564556036343
0,137710907885405
0,150460967999348
0,112849576321553
0,119091603797213
0,113502197841173
0,111375433017666
0,114233147210008
0,113535711760491
0,117589940427802
0,112986744292514
0,123363571574889
0,125617765688293
0,116567528755974
0,125491488386082
0,125939637799828
0,115439843884258
0,118328687074077
0,121198508564238
0,138699229587167
0,127233651788711
0,153257304780775
0,180383010608093
0,177469285132341
0,184879842690763
0,136849070704496
0,14781509165663
0,135559253247105
0,14401224550254
0,135464604496613
0,151255983049936
0,15363042101168
0,145205798187722
0,144024983933221
0,145052882773623
0,138039683209219
0,138351147089351
0,153601262663865
0,152794966488571
0,162418113939531
0,152735529148903
0,149990879257248
0,151928421484433
0,157092698081097
0,172796359584723
0,177567159133841
0,167494570731675
0,17281123718203
0,164906246011448
0,160225646495468
0,157781295576992
0,162947167537028
0,165617497906767
0,172470747393668
0,165059321189699
0,173715435275319
0,186843911741212
0,178187431031535
0,159821729727802
0,173839166568003
0,172676661960333
0,186029739295437
0,178819962375947
0,189587403714058
0,193002842614013
0,183072730904091
0,189241251469022
0,175882878489017
0,18849440516177
0,19784503157888
0,200589831470157
0,208895049078295
0,19281627210418
0,187690396174355
0,191136820857076
0,195094836979012
0,190342949356888
0,194960193806341
0,203983931000237
0,199236725198057
0,194223247074196
0,205665989461668
0,2081966573151
0,207452124609642
0,23529555206459
0,230223929540922
0,209139671432507
0,223258141975462
0,211293907891049
0,211025101131638
0,22231069159909
0,242829539438148
0,2327878744525
0,233766486012722
0,229403569745259
0,224813213512499
0,225542247587259
0,222966987676405
0,220754302775531
0,227801807390466
0,232479451789892
0,244289842013613
0,233826418659846
0,247254210409064
0,24269293710502
0,247519936608096
0,246319715972459
0,243164084082402
0,235120119492807
0,252280197093997
0,252668669948076
0,264091667217622
0,253722814985634
0,2602545743394
0,269411412525767
0,255550667482215
0,257211548176422
0,254891691577964
0,253504851388778
0,265179431297433
0,2628772851988
0,262720388252998
0,269687017042415
0,258029137540954
0,279081276567073
0,279237869492878
0,267378140842459
0,276695747358099
0,272231496909909
0,2796247887959
0,278906942503597
0,285895172354262
0,281368958515194
0,289338205611436
0,2972521258912
0,288008426689016
0,283320886399788
0,280803498677096
0,28560883700509
0,303133136611317
0,289845845523013
0,299726610398999
0,299889075583664
0,299237969601165
0,293250762815739
0,291401407636032
0,294350975099925
0,297353169690015
0,30079099638482
0,314375351193892
0,304844658900278
0,326057051071382
0,330903153773856
0,312633699805365
0,307196424767198
0,317520318431855
0,336811595483086
0,319914330373315
0,319966740893129
0,316841343743377
0,299617959644396
0,315118872901934
0,325538598546804
0,319959420180521
0,317714495188945
0,316857397016024
0,328224471333847
0,335395330965447
0,325513274461212
0,332293922226518
0,324531062005433
0,331067762632643
0,342434924870123
0,343672722632549
0,329153590651491
0,325548301999106
0,333018100437342
0,356615892751868
0,342286630653043
0,342266505487309
0,345981425534012
0,330274605217591
0,333855217649643
0,351592281173133
0,336855644041869
0,336585492936926
0,346665397788278
0,347539200075517
0,337518143890713
0,353735782454438
0,344897473918607
0,34752634004887
0,351160863468862
0,354717605840704
0,349192917614775
0,356729512789458
0,348265353575875
0,344804485682021
0,350692330973022
0,361697981313431
0,345106456788727
0,361169424716141
0,354444540008952
0,362417339081889
0,354150548828913
0,355286141047861
0,366792417414185
0,362865462463602
0,357644364866783
0,361419725397423
0,361054458448269
0,366631415421349
0,356619664246622
0,360469919119504
0,365469500408283
0,369206503065407
0,367651187445852
0,373119487503002
0,356253064852451
0,362905715000843
0,364854244210349
0,370686955800878
0,351965645579535
0,376339401320897
0,379302301913082
0,370685868896527
0,37256177789579
0,367998614115409
0,370408239579519
0,377891022281448
0,373145835028658
0,376443119474892
0,369212452187049
0,385377324922103
0,361050135943124
0,36281648361337
0,371083626599162
0,378181537080299
0,374865610305809
0,38136335802795
0,379112799242771
0,372595262093449
0,356370480866511
0,374380723091864
0,379327337955831
0,377597102847088
0,364216050359402
0,386005248673823
0,385374802898825
0,381182198856952
0,378600718588867
0,377786881402084
0,371837065540131
0,382660384839621
0,372827373877221
0,372364258650115
0,363288879260136
0,38497863811595
0,377219116887826
0,364963048353265
0,377096055846377
0,373982003923019
0,365391844433697
0,375953593089613
0,36447010151154
0,380257057081363
0,369155412726994
0,362353412358089
0,368165358014822
0,374905984021596
0,370213955981851
0,376385211888603
0,387497754177644
0,374595356303444
0,369515441950381
0,374268609282228
0,365986103873078
0,382010635491057
0,379134142861958
0,375464101920913
0,365159067233358
0,370919832183517
0,375081780120951
0,380259235028558
0,364177730768485
0,376902476992605
0,373557406530411
0,371997112597844
0,356529418026126
0,370014749385358
0,374081100602543
0,373206051829668
0,369379784640303
0,372985935969883
0,363653137144403
0,372012626839808
0,364668317669173
0,377878857650242
0,362344441420677
0,365598086250957
0,368192187890709
0,372314966997663
0,363386017755671
0,367215185627367
0,368975515239222
0,373423739427184
0,367963967040172
0,373860955500942
0,371068209293762
0,368417594781631
0,354908858951831
0,369240135525007
0,359663692129909
0,364350082119829
0,364456562693161
0,365859049712663
0,354002660238927
0,353867381176673
0,355047776025515
0,359039632283134
0,355432108730952
0,358787058054728
0,350116743692991
0,356382249390384
0,358844116050156
0,360870333274784
0,352068668811495
0,359261044720376
0,351372721256206
0,351266567006589
0,350886541943807
0,349784302433752
0,346542819857115
0,355841791672107
0,355333032433506
0,357959856883992
0,344499224660459
0,353858547079385
0,344618877047126
0,341197865119
0,3345706254362
0,342521476973809
0,343622180654667
0,351702815536833
0,343229920565672
0,343090939924427
0,335849167842947
0,337940121292184
0,337398610147563
0,341249775078727
0,332001241503675
0,332722147077776
0,33198941126745
0,335051021887281
0,331468936379562
0,333304228177565
0,33058139819207
0,339037122487711
0,332206518729984
0,324886672842774
0,326924260070232
0,330364842621313
0,314203798433186
0,327623543616108
0,318419668029402
0,317442130769332
0,322067569587955
0,32019042968415
0,316655405613724
0,324815197132879
0,312323046702814
0,315001225009178
0,303688697543208
0,30898484632533
0,310473460902403
0,316742002961503
0,306886199621186
0,307949294821203
0,300377205170561
0,310717375323076
0,303746513361593
0,304544590977538
0,305886640532451
0,301566686037017
0,297232464250263
0,304933755102065
0,295999456234003
0,304096121748069
0,300301589948741
0,304625714764319
0,294803689686846
0,29504002740468
0,288154549801238
0,299818565435743
0,295601269262059
0,292851946750689
0,289568175417207
0,289370257289996
0,289862249681911
0,286898469794548
0,27864837092055
0,291423634971573
0,281896165632686
0,286801640595414
0,280644183938839
0,281927474699257
0,273027487695313
0,280522055226349
0,272036280347836
0,278375563439089
0,275144382189871
0,27225381008434
0,271931372884219
0,270132977158335
0,263629386951306
0,273572602403952
0,263651538591126
0,270123336438598
0,262136253626907
0,268691585181272
0,263312268032424
0,265986367574527
0,265743107629238
0,262034737375341
0,254940105152409
0,256838801662319
0,248929058449175
0,255128266980879
0,255998587610887
0,25297917833432
0,247260415815532
0,252149054507105
0,243730762018475
0,250524355970782
0,243613775103564
0,245053752711156
0,238262256694493
0,24812347307963
0,249040456767074
0,244477610014179
0,240185940170182
0,240489564017878
0,233059084606116
0,238633885733593
0,237565839279362
0,237542396618656
0,234057279196286
0,232767141731299
0,230123661404757
0,231065844098352
0,227306518824204
0,22701073696725
0,225100171694995
0,230659106768191
0,225871746245764
0,225634534908359
0,214522969238594
0,220874681664045
0,220131350508158
0,229659453239646
0,215079666032298
0,22458203877399
0,223316756997694
0,215586196884386
0,21532491497359
0,212492033848945
0,206009726159258
0,215503585693386
0,205606922521565
0,206878800494562
0,206654487968668
0,209022848765303
0,204886278744941
0,207629852530135
0,204180134099861
0,207961803530139
0,200729924083509
0,205601869145539
0,198088846566407
0,200819907717271
0,199785414739655
0,200779331934879
0,196125612104944
0,200827618055378
0,20281021269389
0,200890583054292
0,188927748752396
0,189018386588993
0,189014517398469
0,198404353644112
0,191749095823755
0,189334344537542
0,182563545421055
0,191053283341586
0,184436327115794
0,188137979013336
0,18311048692149
0,186417678315191
0,180744697389312
0,188997958473556
0,177937666279587
0,17870083569242
0,176427406762391
0,179926777876733
0,173656959170579
0,176900053923938
0,168848767373036
0,179755190293595
0,177656639076471
0,178430669286445
0,169883808591137
0,174405665131147
0,16996018785376
0,171746796328325
0,167166085070943
0,168185020795623
0,165805957450201
0,170179609836273
0,167754990891238
0,167553979249039
0,164758145591132
0,168728288595005
0,163567408167124
0,16189713464717
0,161906752027606
0,165386906469637
0,158032403787209
0,164219657112537
0,157812893001065
0,161161164530137
0,158880099516733
0,162517992004023
0,151249278310289
0,157824727045927
0,154862874600453
0,152356874894049
0,151595283363377
0,156670135642512
0,151069766806142
0,15498618545189
0,149833282646284
0,150791585328057
0,144407931048403
0,150398638501258
0,146173766245728
0,150550607276523
0,145964793111243
0,147617688932719
0,148776021253544
0,146083606574113
0,14253678774688
0,148034184947742
0,142801161309036
0,142671917555269
0,136606708207258
0,144739961309628
0,132249504963246
0,142275289847914
0,135339815576283
0,141001987294638
0,133949248329847
0,140944536298526
0,13372800272834
0,138518795768676
0,13267804958095
0,137337872757462
0,133030339542716
0,133801115585304
0,130526203900751
0,135184625939323
0,128225136650003
0,138350916875446
0,128995751827202
0,128384319784807
0,127324795332119
0,131463722577556
0,130183271468499
0,131108478050507
0,128067679613083
0,133085945079934
0,12645335252525
0,129998057383964
0,123603247070707
0,128254954762303
0,121241309841874
0,128184125529371
0,123741555536261
0,124752458259984
0,122292511387154
0,12390819671834
0,117651614295518
0,124323913226474
0,119194787898796
0,120309723856754
0,117157163991277
0,122738084405106
0,121499273791924
0,125046801301972
0,118103208356038
0,120326520451089
0,115176785763631
0,11690357322792
0,111819102672934
0,119619842342009
0,112096355848485
0,116729002877087
0,111139967117139
0,112907303885062
0,108611028970702
0,110912255344485
0,106122580700036
0,110407049610921
0,110790997510342
0,111052773294886
0,105815957772812
0,110737719501052
0,108229261404248
0,116685122848692
0,107460950970557
0,107882540492933
0,106208561612533
0,110777443162742
0,111589987802361
0,114231084016924
0,106459414524244
0,105940433222386
0,106768324314392
0,110444974217154
0,101940638859791
0,104863033026792
0,106514938927326
0,111529637675859
0,106031636819887
0,107110420774401
0,106186859830364
0,110650138536365
0,103713607691114
0,107247049730259
0,104259113339156
0,107032431444416
0,103815949686525
0,107175208883328
0,106071232854517
0,113047808892656
0,108838892469022
0,109609046523423
0,108668586631019
0,111797399267098
0,107346362899743
0,112318422584371
0,106178133356417
0,108141543246868
0,109848119245459
0,112789948374181
0,113129240707941
0,111822706079556
0,107608015056609
0,113528638820789
0,112776853326898
0,111458522624761
0,108860192418627
0,112312969032539
0,111898866748701
0,119869737104015
0,115612149278325
0,114418844393899
0,116144807669182
0,121320651209176
0,114173344087419
0,119393604025141
0,114889700609842
0,126769614730883
0,12216980600347
0,126151026053139
0,118602761438714
0,122241198976435
0,11787583133288
0,126871210698723
0,120410770911246
0,122295872028892
0,121370868261535
0,125795692115671
0,12641788319253
0,125586571139386
0,119353018404679
0,128968998693102
0,126934192043452
0,13108056399981
0,125735432375205
0,132694490778895
0,130243799420257
0,131919590587565
0,130150830591933
0,130248753032851
0,137109233275824
0,136843345820087
0,136527826256664
0,137318202337486
0,134943879375678
0,139533916803855
0,136276322477252
0,14257330254462
0,140006704496493
0,146907361723599
0,138912488880326
0,142452664371888
0,13876671370552
0,14399501361721
0,138049365440289
0,146286538450038
0,142132840196695
0,145842375128039
0,138653337583844
0,139314347146042
0,135458574914497
0,144873540775159
0,13967637530545
0,144896031168846
0,139982056281016
0,142288371236199
0,135415043739714
0,140285090105649
0,140505003733447
0,139868571131174
0,135839391287006
0,139376321367655
0,138569510679227
0,141167370543616
0,134175408613182
0,138462152850303
0,138325396775162
0,144701055395046
0,133102999823722
0,142279329685066
0,138212715029435
0,136549012809623
0,135467212001286
0,138502758796477
0,141372480766039
0,138170232584159
0,136913009187648
0,141384865243099
0,138913157955817
0,136816640889053
0,136953950834395
0,13805732982495
0,14154069179006
0,141279708154739
0,136078448982623
0,138343700046554
0,137182441310056
0,142618671122482
0,142301350435962
0,143549809900625
0,138920979220177
0,137446143424279
0,136334226802548
0,140424756263919
0,140514188977624
0,140271042110909
0,135888058956643
0,142452479581694
0,13868311196578
0,14120752574013
0,138234363516816
0,139792618982843
0,135016891327436
0,13734891702591
0,129826232979017
0,132690726613795
0,132472403893949
0,135309831662637
0,128660592345031
0,132131255120998
0,127374826710067
0,126609206434135
0,123589699215124
0,131473943529427
0,122376028476294
0,126854030022722
0,127809205789847
0,125221213105081
0,120259146177045
0,120063348717849
0,118669599810987
0,12070939119385
0,114484720727719
0,122415907813055
0,114031488490969
0,118298978936642
0,110753996846945
0,113040064100297
0,110933315798207
0,109799046297431
0,104463489197133
0,113215373779774
0,105671932497269
0,106353668298638
0,105258613802584
0,106481309821638
0,103771395762945
0,112107537355969
0,105678185267469
0,10823233807422
0,103230772814141
0,108584991429847
0,104076364197278
0,103478237788049
0,104350542418957
0,102455565119434
0,0996317622268649
0,104254054647084
0,100517915774918
0,103592938908848
0,102346917842664
0,101148193706583
0,101907648466216
0,101781127846043
0,0937413228592812
0,100581048727107
0,0966102440113368
0,100392663032844
0,0904718472806736
0,0972267323592689
0,0967761328311561
0,0979717608446287
0,0956335104325874
0,094690313527743
0,0924704010899886
0,0989207988062882
0,0953466857247708
0,0938636014467983
0,0914283790750595
0,0941679474391539
0,0930706043547252
0,0916113599011457
0,0973175110129511
0,0936931537392664
0,0870864742331799
0,0933634875325767
0,0891095979221937
0,0886861401511796
0,086235418348847
0,0916874884367918
0,088936734585116
0,0888273016333356
0,0858769128944315
0,0902082522272655
0,0876066081225118
0,0869171535810956
0,0872214946939457
0,0893961317311998
0,0861099262288373
0,0865153388046594
0,0842967497659514
0,0854752568717847
0,0829908860523407
0,0843470779422879
0,0814498516008665
0,0855577506605136
0,0821581934256766
0,0829965701679763
0,083196843821887
0,0838678478197217
0,0800375575876458
0,085877051612164
0,0823439852939684
0,0866670483099899
0,0789476479729934
0,0832957043037906
0,083011814729568
0,085381360604238
0,0797842385475383
0,0841053013827006
0,080063249247551
0,0825513982883906
0,0817259610977561
0,0845926894523752
0,0794702797354211
0,0843718710173131
0,0828582692183032
0,0820412304751179
0,0787438551494129
0,0830230723469912
0,0831259995750916
0,0820678482703425
0,0783754805612399
0,0818123013608387
0,0795492372747525
0,0830252025236786
0,0764268253635551
0,0838987881376145
0,0771905940429865
0,0843434420007358
0,0785691478427356
0,0805170983214529
0,0761053059862231
0,0771568723408783
0,0767571106625718
0,0771601091968349
0,0772066705757289
0,0783845651584992
0,0786044622456855
0,0762910030242643
0,0753707316198698
0,0798698409200927
0,0774060591101446
0,076983599559869
0,0743028784697771
0,0760063328759139
0,0755369150328323
0,0764748999240325
0,0709684815307564
0,0757647884663525
0,0746289920907903
0,0784563408218151
0,0720356063250375
0,0736583732493563
0,0746054451105595
0,0788743945128329
0,0722185759953312
0,0757493390742114
0,0749862548802328
0,0761003148230419
0,074486378015031
0,0793648961606576
0,0750319742981513
0,0787032088700067
0,0714777602242753
0,0754721266796105
0,0737218401717937
0,0772108689490596
0,0749266757842631
0,0764968810461288
0,0718798929349809
0,0760798859360246
0,0750920906091936
0,0791511100386654
0,0748326013008895
0,077031092940505
0,076005030449424
0,0750370253125877
0,0730535571525473
0,0753200589736856
0,0708561535066622
0,0728289845881978
0,0751603435467827
0,0746245623680609
0,0678154750662169
0,0774616572872529
0,0713039716321578
0,0725839824059158
0,0706089263345021
0,0733487967296069
0,0711152997017951
0,0702016844424358
0,0695664935595375
0,0737698985232663
0,0707922529036932
0,0684301528467739
0,0713859667356107
0,0726711166815888
0,0684241502892407
0,0680681500172512
0,0699372648126618
0,0712502349291249
0,0698971787120085
0,070186493269643
0,0676001383328707
0,0703574095092373
0,0666430759541278
0,067899287347645
0,0634836507805236
0,0661641045470729
0,0679372453866963
0,0688309430667971
0,0677959249460568
0,0663317910183643
0,064212046885054
0,0668435940000991
0,0661142748272631
0,0698252550486697
0,0668483516473995
0,0672006383499719
0,0656789786549771
0,0669338563419903
0,0673781422064217
0,068713923289782
0,0635226496632471
0,0644770392946974
0,0646769636213155
0,0644899848291576
0,0651988534212452
0,0640992092801397
0,0619245635141117
0,0677783033663484
0,0635608994219162
0,0682088871567745
0,0656881668255242
0,0668106794033997
0,0633373993212495
0,066192658326173
0,0674517084769176
0,065006413758412
0,0638561564112506
0,0653392773122108
0,0624926634933696
0,0613053212183399
0,0614736075420526
0,0669881778309028
0,0612241195694863
0,0640072410926136
0,0655802957159582
0,0633790237783339
0,0594135428589733
0,0610891110341377
0,0568243928078305
0,0601187579265067
0,0591461153569698
0,0612969432896348
0,0594104057403122
0,0615630394464249
0,0575405700893734
0,0596487805911237
0,0592763642488318
0,0589990757132769
0,0568951914676734
0,0597691965914396
0,0573573786700167
0,058483383987241
0,059319258709647
0,0554838224159438
0,0560356074221439
0,0590566552193936
0,0549642654628
0,0579442937797357
0,0540678847419349
0,0567445418856312
0,0557607290062456
0,0577195954387331
0,058117144447736
0,0575490185358988
0,0547056353931855
0,0585257125893545
0,0539927955980664
0,0572095780961486
0,0555366088281408
0,0572090383401445
0,0576952459346792
0,0574017600367295
0,0524478902153638
0,0544304463388391
0,0539962267485084
0,0603248928638256
0,0522596933948696
0,0579972199658931
0,0546685848184763
0,0561292913630653
0,0538220080802672
0,0571767654327784
0,0571888081939207
0,054456729326032
0,0506080261135598
0,0577052619244177
0,0574085405358715
0,0559559582477568
0,0541858486248613
0,0564616691641308
0,051930787944818
0,0544064207907185
0,0543353429447074
0,0548046297760313
0,0549047297819605
0,0555398023040725
0,0557466573438052
0,0544725140934243
0,0497806954557561
0,0554856942939641
0,0520117509860515
0,0535732288060336
0,0493771829948322
0,048651183203241
0,0513723191003174
0,0518079108097569
0,0510131579830016
0,0535272046804277
0,0493157159649317
0,0508310200628798
0,0503087103231413
0,0514582689851255
0,0481550033239318
0,0534941216326598
0,0500926965268492
0,0517820974935533
0,0494850063235392
0,0516650922644772
0,0510877901880705
0,0505712640937562
0,0514808914859401
0,0514748495368552
0,0491821432764181
0,0496359918903988
0,0462736624658621
0,0478565625049899
0,0511812054900901
0,0532910394555552
0,050616997936797
0,052041957625883
0,0488181250757969
0,0480425251907877
0,0498795892239511
0,0508686728638232
0,0501346589745686
0,0508396105556995
0,0493201962599113
0,0518001947317892
0,0508026877563384
0,0489196433457052
0,0482290646720852
0,0504435062560863
0,0509975354779066
0,0546886034503885
0,0488411674088234
0,0508237329415328
0,051583278351439
0,0505245567927281
0,0484511639077023
0,0499237354470826
0,0473426815520135
0,0524688477349985
0,0477679938264778
0,0496660339551837
0,050273721493766
0,0504785706423341
0,0503519274689867
0,0507147921187352
0,0464836914930249
0,0458438783121852
0,0476915669685193
0,0485354452658225
0,0447779936854509
0,0451906656701837
0,0457624533835024
0,0475098789770771
0,0472487844044597
0,0490692938237265
0,0468220390057582
0,0469515197762393
0,0464139654512322
0,046237293077669
0,0459096116723001
0,0462840577509535
0,0437225488480107
0,0435419745537644
0,0437670961600909
0,0474448778714071
0,0463652549963897
0,0459092370243494
0,0454438565487125
0,0451326833882195
0,0443562902055528
0,0440103033623787
0,0452684661777864
0,045653400231826
0,0460037735953045
0,0445191881693629
0,0451674802615549
0,0466434305896275
0,0463735742621035
0,0461979708584412
0,0436378873928864
0,0461462519670675
0,0448193184714462
0,0430792112488371
0,0469528330692082
0,0429864570122481
0,04699026711364
0,0454702458272108
0,0461412650256497
0,047955001118008
0,0458963448225615
0,0503111386185044
0,046671035108602
0,0423620747752973
0,0431673132379742
0,0424960933295093
0,0474658529094648
0,0456508731252157
0,0457898957173925
0,042438853617006
0,0427220566539111
0,0451928583272903
0,0417950154720737
0,0445501628296617
0,0452627284359545
0,0453374899717903
0,0445391754395953
0,0439740682874506
0,0427701152123013
0,0421711683894749
0,0393381803886797
0,0420133880526553
0,0423579329591118
0,0424790108319706
0,0423212909047459
0,0427185242201027
0,0429028781938624
0,0399420003208778
0,0388161014475223
0,0421871655783882
0,0408531797664351
0,0395449511428722
0,0417788804741919
0,0387584957510443
0,0398082539214597
0,0413529072462218
0,0416447483855077
0,0398579612299813
0,041192475341188
0,0414915367509464
0,0438027111414043
0,0423904257775409
0,0385221332220039
0,039125774837201
0,0389804543898485
0,0390088320669728
0,039878176976432
0,0402573615848145
0,0401044122144006
0,039503143013834
0,038591635643822
0,0391623536405147
0,0404829350263092
0,0401609884664237
0,0401110474870041
0,0389719749035505
0,0414865275398533
0,0406234956250757
0,0396715219207889
0,0397077054398607
0,0400448179001321
0,0434190818394642
0,0398888006907461
0,0391572352599204
0,03774804934504
0,0373629834845593
0,0405541910440329
0,0395141379307427
0,0369662408260507
0,0403001364150407
0,040318856293591
0,0384150880569144
0,0382698527468034
0,0403349742738988
0,040337100669227
0,0391722681974823
0,0394400191425699
0,0376266481458707
0,0384076409648279
0,0381328116783145
0,0374320153999392
0,0381640990990987
0,0368732286665041
0,0378621091112651
0,0367140235269012
0,0352826156596023
0,0366755708366978
0,0357326246776842
0,0350957635627713
0,035657941885773
0,036925471087615
0,0365896478450876
0,0343248854269644
0,0363649005829747
0,0379441574237114
0,033985903593114
0,034767769708481
0,0343623845150697
0,0369187047725641
0,0375896474683256
0,0371417341252123
0,0367513359790798
0,0360431387608905
0,0354501827887992
0,037694043316156
0,0352747495963275
0,0362944155988778
0,036768584626831
0,0353817028098245
0,0351350135363711
0,0354632982120024
0,0362340940798348
0,0380405777309287
0,036240321143239
0,0387388383457056
0,0386972382933779
0,0397503207795629
0,0370546732107528
0,0389189469394168
0,037938086210573
0,0384701161472134
0,0361327759449451
0,0406527687995914
0,0386012018110752
0,0414887686168711
0,0362621260126466
0,0376891492580667
0,0302707266594306
0,0315805992198736
0,031377574043084
0,0362356779028005
0,0393225637281011
0,0346599541099998
0,0218298063329429
0,0310465541240072
0,0349953606312816
0,0352080919239917
0,0217613119435894
0,0309951898152233
0,0230376117147534
0,028625160178675
0,0320127974827743
0,0307933292199307
0,0228681900948219
0,02834132661101
0,0265334823480694
0,0353487721934348
0,0287224933354378
0,0424386398145047
0,0336995756712855
0,039027821926067
0,032028120806153
0,0399449738061094
0,0246605815004896
0,0403250747736732
0,0274380044073224
0,0391615957696302
0,0259471943598811
0,0387712794503746
0,0277492230883024
0,0395179429784771
0,0258263737341217
0,0422935547189271
0,0194122295936346
0,0386363665302902
0,0181603388103831
0,0334620199589677
0,0193236180566293
0,0447104183786032
0,0288231345680007
0,0456142278850426
0,0181918561477446
0,0343711590159096
0,0248484966880894
0,046613911148969
0,028144666588284
0,0363880161551246
0,0245151170432913
0,0389013391786946
0,0384892001015148
0,0330703625649464
0,0350914861125117
0,0346625396533051
0,0472199905845004
0,0240302774878694
0,0487364618545313
0,0266727034677232
0,0525863772111056
0,0212370930348355
0,0547045499581314
0,0245096266533496
0,0461061249360608
0,0293152284273045
0,0437335443770691
0,0327011173407345
0,0380190891241467
0,0354499792641782
0,0345766870164848
0,0354510039333676
0,0350130888334495
0,0337854684689609
0,0368941989519338
0,032985986436941
0,0367257200066071
0,0286013340989149
0,0355677162980911
0,0302840070847455
0,0345713617932566
0,0321368847758103
0,0335412151529315
0,0305002663238062
0,0328546746046429
0,0289398884875226
0,0334847014799159
0,0306749314469737
0,0356320198809401
0,0312964318181765
0,0321777068595019
0,0302745183355733
0,036172705709563
0,0296853237549577
0,0284464131934568
0,0304174033628839
0,0336202661868498
0,0299359665531701
0,0316434005440426
0,030800464090964
0,0322513410136581
0,0289261338078868
0,0328507605501768
0,0294304523738104
0,0313210861470545
0,0318590718397356
0,0312261897531309
0,0301549245146339
0,0335170953850817
0,0285137995141731
0,0326409229946167
0,0305743133988648
0,0327344519748608
0,0313362741410154
0,0330264374521715
0,0285604813339026
0,0295919823817288
0,0311569624639375
0,0342468101300055
0,0278426317953392
0,0313091163600918
0,0302241794800908
0,0300311797511764
0,0296492455408135
0,0324630831712445
0,0314804505902984
0,033584875666137
0,0304081747298224
0,0315760628347646
0,0289742431623013
0,0317843418321204
0,0304910794168396
0,031592670323479
0,0305517551643319
0,0312638882692534
0,0308269081086398
0,0303190101795072
0,0282855806666251
0,0308635576662061
0,0292399239217903
0,0303727600148353
0,0282578143154181
0,0308569808856906
0,0289578124845514
0,028915500909016
0,0294136489722322
0,0308415711670991
0,0299801995316868
0,0308610202991342
0,027974324666143
0,0305026014439496
0,0304035052688006
0,0293554197440124
0,0295111725918609
0,0309283956802812
0,0288217899930737
0,0310811108427385
0,0293921250332487
0,0307524447967698
0,0308017450612253
0,0307533567563653
0,0310054095686481
0,0304976819520829
0,0294495203468224
0,0318547830631203
0,0331228985259095
0,0311306229612258
0,0301199316488724
0,031575310483755
0,0298044105682646
0,0319913267608943
0,0303703210901031
0,0305022705728379
0,0295791906146724
0,0299678230275007
0,0306450577482145
0,0303354169018574
0,0301950418425364
0,0319738657216362
0,0295406650691501
0,0292502770418262
0,0290841874969842
0,0296849974074055
0,0297357049582318
0,0305378354242069
0,0307325252993475
0,029941656368973
0,0282811266605108
0,0307268826362002
0,0303466899279208
0,0318579758171375
0,0317429220533688
0,0310911279758456
0,0302367977802163
0,0317960999301811
0,0290495888236375
0,0289132989190152
0,0301341132821646
0,0307825724456332
0,0303567120384987
0,0307303493990257
0,0284185650476288
0,0294142024078529
0,0298606656897114
0,0299022348564615
0,0279733782253265
0,0306378836906816
0,0302369849532034
0,0291502378476654
0,0281692861282149
0,0280465998336223
0,0281307619794269
0,0288291134323371
0,0282946247073084
0,0286044149909147
0,0281557861453683
0,0290840169212914
0,0303799203253533
0,0295046722008079
0,0290253136147426
0,0311019752285785
0,0277293830178987
0,029101290486674
0,0297132282014492
0,0298744258850509
0,0319105781591151
0,0308593497256589
0,0295417037068342
0,030836682232915
0,0306047962042578
0,0287288716298615
0,0304928124291419
0,031808024764727
0,0288976558809151
0,0294662396083991
0,0302470682042969
0,029472520946614
0,0289047425115386
0,0302772807840802
0,030291052045721
0,0294617200531498
0,0288674725745825
0,0305949347975764
0,0326409365389845
0,0291436831624248
0,0284608472192669
0,0296180766911145
0,0302278548139041
0,0302160994981517
0,0306607940777285
0,0287011794476957
0,0274320228582698
0,0305272000459115
0,0287945836813761
0,0287074540425371
0,0300980350172502
0,0300695862515337
0,0275106710475022
0,0278042016963108
0,0314308458538595
0,0290064286012253
0,0292762593107672
0,0287196238830383
0,0269259279794303
0,0293749369770595
0,0301026680033926
0,0264437067668709
0,0263446470176985
0,0273116335315
0,0281641381577931
0,0285207836324622
0,0267579524727209
0,0276547854148939
0,0276210093877785
0,027359012942328
0,028816271186978
0,0275947223584975
0,0271095158419061
0,0285993057232775
0,0293899635661626
0,0268751375863853
0,0288112445841559
0,0285488529741764
0,0276425624197509
0,028600574687704
0,0281308803898114
0,0294712100569571
0,0263681190255843
0,0257823635998894
0,0291846594164541
0,028080295706405
0,0286922185142388
0,028992507476165
0,0307043548425554
0,0308665171840709
0,0269420946837293
0,0269429323065461
0,0270068839657079
0,0274959921964734
0,027289045413657
0,0276216144528874
0,0305453720430991
0,0278921604963056
0,0288909796106091
0,0295161341478268
0,029662753816411
0,0265620621016083
0,0279805681972297
0,029456685653106
0,0268659035520376
0,0274807380679035
0,0285832486566239
0,027832452742765
0,0288552940696181
0,0275772740871131
0,0258857602507236
0,0273367009546492
0,0277936198146405
0,0265629944490244
0,0265693632544475
0,0270039747960392
0,0287223120342772
0,0288194998080923
0,0282697710382682
0,0239074729276196
0,026380666154569
0,026660500442638
0,0277501539315856
0,0309116799121243
0,0304879819544431
0,027189614824752
0,0291158075588304
0,0287043648878845
0,0286263886723412
0,0278115664533575
0,0262049756650894
0,0260512614115837
0,0280613679243032
0,0277090805296507
0,0261743550162642
0,0249132094254553
0,0291986529860621
0,0280252134643789
0,024768817365222
0,0243795463547095
0,0260681834504184
0,0262263104128657
0,0272707170090487
0,0264741515991606
0,0264250568201137
0,027039876865895
0,0299096120639452
0,0280097988442447
0,0281337078628736
0,0301959558396173
0,0275822851629852
0,0256824401703413
0,0291637721263245
0,0267398636016994
0,0258928274446268
0,0263305311390259
0,0277540718814803
0,0268828507701517
0,0288360676708405
0,0258920072986296
0,0254296442115123
0,0258397946473532
0,0252364770624241
0,0253494951504105
0,0270745570744545
0,0252183019203549
0,0251517416171534
0,0266120363692149
0,0297379173323844
0,0256183827827847
0,0269780383246041
0,0256963912080269
0,0280325484912471
0,0292498861794978
0,0305168427726706
0,0312847257333176
0,0277343852551381
0,024298392689624
0,0251248895672672
0,025538105808743
0,0271546177796728
0,0263112434382384
0,0249558535352763
0,025216355399371
0,0255793516770475
0,0239572988870889
0,0222415962068197
0,0250355775604942
0,0242495367894855
0,0229524452556393
0,0261158785603741
0,0245441362160964
0,024938750720291
0,0235952100466091
0,0243295394280379
0,0252325613422248
0,0251166951445265
0,0220150250421802
0,0238283246816684
0,0255775472148902
0,0246486339579879
0,0381692436501334
0,0389778317569002
0,0280313024238116
0,026322921225289
0,029742395855255
0,0283667228689108
0,0256123013823869
0,0257044296338619
0,0250815452864834
0,0248237280552928
0,0240772476473734
0,0239660906888387
0,0248585153015979
0,0248699896287242
0,0230272553184941
0,0246677710163848
0,0238132939659265
0,0260653221110339
0,0246203595799606
0,0245591680841718
0,0235769786379739
0,0227761335483402
0,0236991430775539
0,024025059404546
0,0240020993387464
0,0223462152064107
0,0269362689239917
0,0354511847420777
0,0324156091462192
0,0269323423514469
0,0238676259825541
0,024243931645931
0,0233974653438639
0,0259192038680997
0,0257784482195264
0,0260215336442672
0,0223393548184325
0,0246555771792054
0,0256864555377917
0,025213667392768
0,0224830349314235
0,0247319014832458
0,0244625795472441
0,0247949198522363
0,0205825221785342
0,0217487872978727
0,0228843887704996
0,0245942239411566
0,0223551830280082
0,0258319289891699
0,0262195468380722
0,0300095128367179
0,0208335882218351
0,0382912414349538
0,0409647326245883
0,0328140164119057
0,0254285732506051
0,0260210009887592
0,0219828408154537
0,0242392620748229
0,0225968144254774
0,0239637268806206
0,0218253105723738
0,0243628919126281
0,0229644333339949
0,0237825872783806
0,0220659239500971
0,0255635980995126
0,0219055612550286
0,0228252189746307
0,0234936145806289
0,0240150149100639
0,0229995011970296
0,0234877832445557
0,0316573359506746
0,0454859601569136
0,0312529517448685
0,0291077349625564
0,0185903088240399
0,0306997010691007
0,0499141360070646
0,0328463193796922
0,0250135831744817
0,0261530673468215
0,025825671048552
0,0219066071483503
0,0248302239557235
0,0198287803136083
0,0305333366609223
0,0294051181373899
0,0306549535004533
0,0264688301309087
0,0256419634313973
0,0224961198660354
0,0235781323964623
0,0229649059389652
0,0218458949507792
0,023867853456735
0,0217813131561148
0,0230505349553748
0,0222379468221591
0,020175053458049
0,0236513613423335
0,0208653350370205
0,0327671745961539
0,0295781220942154
0,0234360441590514
0,02315998468948
0,0249593443076891
0,0169146613284272
0,0402692552675972
0,0381838923255697
0,028502623686224
0,0239651038187849
0,0231230749693339
0,0241861306739319
0,0241081665819159
0,020067096987278
0,0206141819168839
0,0206371039666923
0,0222551653913627
0,0249655632214797
0,0214927627452832
0,0229738738730864
0,0220640078227585
0,0222083481690111
0,0202892268935148
0,0242961359819948
0,0214665087734881
0,0250377819036749
0,0237577204530602
0,0307811066980474
0,0508576679445248
0,051354988017297
0,0466049351437085
0,0368993521380619
0,0334303363194925
0,023439963600175
0,0253085301846874
0,0197756634526094
0,0267608486327752
0,0253073633235801
0,025668609320701
0,0216923534584895
0,026719695550387
0,0199725105834083
0,0215304301367459
0,0198420365607824
0,0256579838202587
0,0198717122697861
0,0246346158316734
0,0211814494423161
0,0254416554269612
0,0190758760949224
0,0252645670598233
0,0361696868773144
0,0356981616370638
0,0266277999377643
0,027557346821025
0,0701858198463389
0,0411229744371009
0,0421439244297551
0,025658152204549
0,0292355212498688
0,0215647544834292
0,0226190004423648
0,0283787304063666
0,0327615396425439
0,0208038622241933
0,0248018352488768
0,0195644981235735
0,0288598356968286
0,0243159924685301
0,0214461688538992
0,0472397278659477
0,0642889612843841
0,0387300753170804
0,0319848466606553
0,015704374459821
0,0524619077097198
0,0504767362914295
0,0307681889654944
0,0270881940610049
0,0279694454139849
0,0224072964388362
0,0220333729797594
0,0215792502452712
0,0254489145354968
0,0331650944077894
0,0228595067258065
0,0260637409455208
0,0199732140608759
0,0245196658606739
0,0311793158762569
0,0293466688623119
0,0444882006064019
0,0359132768208881
0,0260536741171172
0,0300667455008227
0,0275657662378774
0,0246003484134984
0,0237992904786508
0,0242932051025544
0,0236638515231017
0,0463913496712237
0,0388767682751828
0,0385225690552013
0,0496819055182139
0,0360227925271216
0,0267626951321539
0,0302102224477275
0,0417444787811722
0,0380902870723303
0,0154243412831127
0,0657596536322403
0,044761274927725
0,0702408261783728
0,0387578400664572
0,0374740870413566
0,0214354432379669
0,031392336462131
0,0164258328836912
0,0341652727249683
0,045165377404716
0,0283369830058014
0,0289357118181917
0,0192253597746716
0,0478144867512768
0,0362059587344679
0,0379072346144021
0,0260393002908758
0,0261982281712931
0,0255740542010305
0,0544320643568613
0,0217757063269161
0,0471913903109746
0,0596114686055627
0,071516654766608
0,06629249274261
0,024257956556562
0,0452348065363806
0,0599264047635312
0,0344987018599518
0,0305376319808413
0,0224885672225105
0,0334955449187174
0,0141808422314371
0,0497103876035519
0,0658618149078439
0,0353618429568791
0,0327763811741959
0,0292755512438737
0,0390220048289312
0,0623955712707482
0,038564006876683
0,030282354661155
0,0294221495970273
0,0273581879584792
0,0356629860890484
0,101730605479066
0,0369345814943546
0,078420131265748
0,0484748825474601
0,0736946827134576
0,0402061971550821
0,0516354666760842
0,0279159540438477
0,0664313984906968
0,0505419113348424
0,0411347823112118
0,0215909931224006
0,0800397656655215
0,0396228990937734
0,0465444493966602
0,0334130690293067
0,0328827014103307
0,0352320981348093
0,102879354427012
0,101539581646232
0,0830165927625031
0,0332197794739353
0,0521849502456874
0,0657602188846501
0,040687170778511
0,0324701994426467
0,0308233246620495
0,0338599045577845
0,0295206085070646
0,0356468551377431
0,0482158369272111
0,0313446061908829
0,0443595997560469
0,0218639188584052
0,0480152274871932
0,0662965907536469
0,134783801142105
0,0619270508820719
0,0721290972489063
0,0799086324636457
0,0665528212041751
0,0563912972338572
0,0358574939563254
0,0392109980097094
0,045652774790184
0,0450256564428231
0,0375045994993249
0,0427055815327862
0,0832868478879929
0,0501040563460338
0,0937387333168245
0,0524281689053977
0,0624021837040234
0,0374203230248467
0,110801262756421
0,203059768859653
0,0822732585724858
0,0773384755427785
0,0530900841033844
0,130936645905756
0,109299675299209
0,0752255473723464
0,0542838724567596
0,0544592887972837
0,0478395107026135
0,0691791368534552
0,0663537569767642
0,0769925192050148
0,0837451854990288
0,0646290353767035
0,0678049812995664
0,119933007244558
0,173131666375978
0,164894125324011
0,083393808054088
0,0834586045302347
0,103588423860141
0,0992036141609798
0,0735228976469902
0,0871168821806303
0,0603389856909299
0,14126894942005
0,109379261286585
0,107970529977029
0,0757930967732063
0,11645567219663
0,106178218045789
0,100109648110729
0,174266044182665
0,115057003862988
0,1200288033375
0,0793957248668453
0,111190904568067
0,0847932474610988
0,115860564383764
0,132446085583839
0,12475406784511
0,111939036029329
0,103383777630511
0,107749223568139
0,105509643960358
0,115217987173847
0,109943328073504
0,131952266753007
0,177303381671045
0,203656850897626
0,371643251735839
0,131259291768294
0,140820203781582
0,101169382591244
0,145403015102568
0,151280183872558
0,158946167189356
0,191982194325936
0,133563233564567
0,12166814890483
0,111163432692137
0,121606557967392
0,111415763823295
0,11927708665014
0,112698517714981
0,113424899460073
0,15721269570097
0,10940151628674
0,240704065738159
0,146663455163205
0,140618268383661
0,100609102277948
0,118787497782318
0,0956012437907094
0,119152865388339
0,0910997261613914
0,151044024356943
0,111598869646339
0,119924566109677
0,0978085930308711
0,108271943271039
0,14707190136984
0,125044986187823
0,109832735407422
0,100865095584934
0,0933551975141877
0,105649561329655
0,0834335512132124
0,162103017819346
0,12931563398502
0,114980957327129
0,0906075767706732
0,0944221622722222
0,0886985807283677
0,0934926465813972
0,0845545588158105
0,110603526850404
0,081750312831864
0,0962342298013105
0,0913748196846885
0,0891786004213725
0,0856964592786859
0,0907223390888943
0,0965526848746823
0,0888930435470191
0,0889582394183644
0,086746562215314
0,0888119883534762
0,0893322895888497
0,0834404816941377
0,0900134109078011
0,089513054479844
0,0985425963210183
0,0906162803892431
0,0887627024301174
0,0907726854224389
0,0879700023280334
0,0907959091579268
0,0871145303596559
0,0883804438553716
0,0884434619858679
0,082891736019766
0,0854342477379479
0,0848084358884411
0,0837641519093689
0,0878082226304999
0,0835875707602944
0,09099176994538
0,0778292354718681
0,0903440073905056
0,0868052332031145
0,102937108861361
0,180519006603688
0,0958447415181635
0,107769112066764
0,0740024653916265
0,0995090557564281
0,0720470786444031
0,0947186288888578
0,15332591467477
0,114304856172446
0,088083582284804
0,0812612871091455
0,0792409948930366
0,118127601236865
0,0791849865190824
0,0920125718406429
0,0809053409729918
0,0856559124738118
0,180912499983189
0,147662439052862
0,28323295838398
0,158830354207454
0,116951184534079
0,0754061863648469
0,145977066553478
0,106205704462193
0,0937524067386589
0,0793777979909102
0,0767293533676265
0,155063344597259
0,0868091458580997
0,0902340658379522
0,0763775924840802
0,0843639481855716
0,127810208153903
0,123935105358639
0,106591589406649
0,152583437494167
0,123255959683318
0,136967697476981
0,177964061968056
0,196031354114342
0,116788066170668
0,0781201235440019
0,0862650446355311
0,0761249444630107
0,120616112450364
0,145203854363424
0,0884882223407781
0,109808393719129
0,0621926153366906
0,0858433178875353
0,0762564188237071
0,127124683598027
0,0708613411556784
0,122680977943822
0,11268968845311
0,0795053265919154
0,112542786845374
0,107929244427335
0,17150325321586
0,141408300208555
0,0903632599574241
0,0648199147814612
0,159051787074598
0,108514561829198
0,107741907062237
0,0980349694199675
0,0568392089350345
0,0954578125796381
0,0897706901973401
0,0689057978392328
0,115135176394085
0,0958165236573602
0,148048953858589
0,157782660421488
0,196581402895445
0,14660513105344
0,0767572222809174
0,0621128431402475
0,0591038811999399
0,0739499120397916
0,0629104366581598
0,0518175480267579
0,127289644368583
0,0506036974477097
0,100029965196819
0,102899796433572
0,0709707178461961
0,0591952668407463
0,0587084125501631
0,0487754453207052
0,0803022066137577
0,104555861565586
0,135194600958362
0,071603752175259
0,104007488401117
0,0821106350164721
0,0782207920046593
0,0596009844911052
0,0686402980676944
0,060035056390889
0,0708988316141515
0,0784215873582506
0,0701278859262258
0,0655758020672429
0,0736408508251648
0,0570802130661017
0,141602891034223
0,0856256301487651
0,0888462153438467
0,124439305770156
0,122486922043973
0,173636236023033
0,0885190978874507
0,0907586635029517
0,0760206650502821
0,083208575841838
0,0862367564439167
0,0738136983425718
0,127723903565352
0,111722674938846
0,0932727644982317
0,0928424950319771
0,0880665038592904
0,0909000188359281
0,10251061670491
0,157090109287431
0,122241271858936
0,245128949366125
0,126474124415156
0,148023244858035
0,100387204984765
0,100130787888196
0,109808619637236
0,101067916928745
0,0983178280904578
0,0875588625738016
0,118720429258313
0,135891230702556
0,0979613395010933
0,105467454626229
0,0962385717495003
0,106567962234936
0,094541301287749
0,101711968929885
0,0988420429395576
0,100513693150072
0,104467308942896
0,09977204069578
0,132090535369801
0,200355624815582
0,120583218623538
0,121573919991047
0,106978760076789
0,126737225664166
0,103973955646234
0,119630546633542
0,137290128933382
0,121028834019582
0,118199936347472
0,110134914461444
0,113967263129371
0,108327485874017
0,138307581303683
0,143025694236996
0,112561135990643
0,135055359705889
0,099037730264999
0,225090511978034
0,142030650776227
0,168052077597429
0,136985108729155
0,136382748232024
0,118771909833804
0,12316277054192
0,118656869049319
0,127879375065289
0,125433500401745
0,123206722369786
0,125626406277306
0,118604871693477
0,124676858271632
0,114720550410518
0,133544660405624
0,158422649465784
0,124208212618801
0,126262961699817
0,119518437513804
0,122330761862462
0,118103519991011
0,171876217180222
0,134783689974004
0,142569219777254
0,125715767162597
0,153747983645806
0,158139576710562
0,135412385872847
0,11437834782929
0,122975861011202
0,115920481402485
0,129775464872544
0,107400368528887
0,154141733274653
0,149524662170507
0,136788157436121
0,118434523914061
0,121320950899931
0,116940791523075
0,123714532650149
0,118599926552138
0,128084354702182
0,123773266721287
0,129964083692939
0,131493548127909
0,120869336697877
0,127615925483348
0,141731500759086
0,152418377743709
0,14130731109678
0,118347723437882
0,128540415949332
0,112964969111089
0,129136147124136
0,125774134291206
0,124996371324592
0,109808327870914
0,124112210590377
0,103784548640034
0,133513328801218
0,153710292538528
0,122472249215414
0,138696266785268
0,10707735236767
0,11318700373096
0,110138199442973
0,111073480893132
0,103741361824391
0,110367212958591
0,111568158691567
0,104225413991793
0,10485123483856
0,101978125661094
0,102290322694727
0,106393249966829
0,106142901265828
0,10010981646579
0,100186216037569
0,0978471002756343
0,102344014850786
0,0977766403940686
0,102460792342702
0,0987100574934035
0,103271242679379
0,129240786082377
0,125501166936994
0,133073045521475
0,105037705321259
0,114153040475615
0,10625509844567
0,102067177235613
0,0973970090975735
0,0970818624704284
0,0990354151528658
0,0946080476529143
0,103271057403074
0,0970940127829945
0,0990264768846
0,0976704208937564
0,100704446978625
0,0965296782440759
0,101057540390056
0,0981970032051857
0,101652428765899
0,0953779147015361
0,107048299798634
0,0999846382225234
0,118881333747161
0,0984149652548309
0,11056979445942
0,100069895134924
0,10480186064995
0,105642981335325
0,106680271938595
0,110007228768926
0,101632807587436
0,0983704140248319
0,099753639233708
0,100473244326379
0,102044261138303
0,0990150954980316
0,101099945989093
0,0977452213087954
0,0976186274002855
0,0950808808599554
0,100063267740473
0,0974078677744724
0,0968504234614322
0,0946761563016043
0,0936227608190027
0,0909796524057783
0,0959750535588308
0,0909391495687984
0,0906843852245445
0,0894885590887965
0,0912079020272659
0,0877701873127286
0,0915654052652225
0,0882300289384355
0,0873389213542632
0,0882752303324686
0,0906572654313043
0,085047241610648
0,0848341331958849
0,0853346125559186
0,0889469685391503
0,0825819316857219
0,086587368342476
0,0829188936297116
0,0859077838671322
0,0826906615435497
0,0890565186679886
0,0837814155055988
0,0848274279880043
0,0824536787016665
0,0886309558306552
0,0824310854604218
0,089549615709994
0,0890806250093576
0,0894539863123368
0,0904030187960993
0,0890070214334006
0,0890652702003622
0,0889216509382851
0,0886711187984191
0,0912876467803539
0,0896178468591062
0,0908074252665149
0,0893335452020181
0,0892668290557324
0,0922889195555443
0,0891482155337335
0,0912281297483422
0,0928162258670231
0,0895699614546875
0,0891908618341194
0,0886617733109994
0,0909710702209407
0,0900947183260415
0,090167217914785
0,0890573851985831
0,0899581421155265
0,089636452772702
0,0888949853379874
0,0879914795675118
0,0894332334159568
0,0868181252707443
0,0890504123162172
0,0886441608343091
0,0879666490140306
0,0874030639679213
0,0880081511148715
0,0864264650784814
0,0881847014159363
0,0863265592827443
0,0868830801869004
0,0866475918018474
0,0862730056486779
0,0851543998449494
0,0870543502044348
0,084737914353177
0,0841063520790884
0,0825946472912803
0,0848766917962439
0,0835660858358517
0,0850564767091382
0,0841457547984842
0,086216058003279
0,0828243988910161
0,082064442324767
0,0808942618570182
0,0848582204969511
0,081963081713861
0,0821871187090339
0,0797015173918141
0,0802104854694051
0,0792854634609177
0,0789576790097183
0,0771628261737938
0,0803212748453584
0,0768098802282184
0,0786250957341685
0,0776154179872244
0,0774317189587911
0,0767347395514853
0,0769116933888328
0,0759553725807987
0,0766233084963643
0,0739413211146857
0,0748665256266253
0,0735078727416638
0,0728472159434807
0,0723069344940884
0,0736894906849058
0,0710831360083377
0,0723408591700501
0,07125296195206
0,0728008977706835
0,0722040504097809
0,0704864550262604
0,0720255197163521
0,0717638512323831
0,0690431151438376
0,0711513035690994
0,0705199834073483
0,0714107393579627
0,0665215748815535
0,0665838333879202
0,0673694435495168
0,0690431750544882
0,0673112970729406
0,0699857855737133
0,0699450003109553
0,0712641606654011
0,0720932556941465
0,072825076107384
0,0739497631636304
0,0756695824033668
0,0799186657110371
0,0829877102963868
0,0845664436102742
0,0898841989536101
0,0941100124475219
0,0980441750125329
0,099713991225091
0,103240486686347
0,10702577409245
0,112216717624628
0,114488545129044
0,120505829039588
0,121709851080396
0,128593421418855
0,13025711685352
0,134455628157391
0,136267092263988
0,140537742257706
0,14299232570232
0,146237191191474
0,148166796610289
0,152244630948116
0,152616929072461
0,155518834759283
0,154863180443304
0,159097000099449
0,158232307527652
0,16066589957616
0,161182756915586
0,161049874015702
0,162595678177557
0,163705657263601
0,161213880377552
0,163858751118595
0,1605427447612
0,161114617840945
0,159679045876302
0,161042506621624
0,159535593261505
0,160794403385473
0,161334579560526
0,162543214647373
0,162703562362328
0,165446628425391
0,16480880797252
0,168923393814988
0,168689676189284
0,171414372262023
0,172643564209478
0,172428148434414
0,173455235780235
0,178520014942402
0,181186646204869
0,183916781356493
0,183064258672297
0,187077936936102
0,188581760464445
0,190520235984104
0,194322513758648
0,197040314441356
0,198359463367526
0,201562441850498
0,200161074089736
0,203687621168744
0,204818506774392
0,210265009103289
0,208441594908681
0,210529379933085
0,210810773544101
0,212761174065723
0,211053991307264
0,211999195726821
0,209822761800262
0,212340358859819
0,210362900705399
0,207770338105735
0,210235426425368
0,21111498330623
0,211950421823924
0,214470002322457
0,215372533293527
0,219100382660361
0,218708498819706
0,226745922187995
0,226519751603137
0,233924908607815
0,235947744111051
0,238215578117816
0,238719024757074
0,248034984849473
0,24965020041036
0,25350354346395
0,257776925548355
0,263889736741124
0,266489949757779
0,269735380086617
0,275592697819984
0,283813716035327
0,284213016557124
0,289687012643283
0,293351139398982
0,30031553711727
0,30522643194366
0,309360132625294
0,314199806643952
0,31903014512148
0,323565340550835
0,328010695489787
0,328946539959749
0,333274923778762
0,334264197081371
0,337180481114679
0,339272738712392
0,344275350798664
0,341543195942059
0,344820783797425
0,345851910224012
0,348674790002487
0,345214210905855
0,344480777640416
0,342893310431495
0,342356706238124
0,337553310725575
0,33708732716791
0,334377460195763
0,33269982209359
0,330476517078888
0,332668538297355
0,326959622336381
0,328080126664213
0,323263884676244
0,327217370022871
0,325394889580794
0,328659236761748
0,334628949189815
0,33649702922343
0,33531440847005
0,336593931501396
0,34033779368912
0,34256102775867
0,350460288797986
0,349725135548298
0,344496796213202
0,344684654769586
0,349248095616095
0,350729920442799
0,347071347170957
0,346663068904739
0,348827949254333
0,348588750919189
0,343641511457807
0,342060549677643
0,339750083063499
0,34126960444783
0,33897563492232
0,341229444218904
0,336160504799253
0,335714343813746
0,331928141327388
0,331068543456973
0,331171198196601
0,326314804057879
0,324714507669578
0,322682049148235
0,322171771550131
0,321190080553195
0,311436794435941
0,315054078656254
0,307611049930087
0,304908006849077
0,293460315565067
0,293201777398091
0,287905226875994
0,282735616261102
0,274807403529832
0,273089329284352
0,263645545795275
0,25780577898558
0,250402315679356
0,240326108211523
0,233562407891862
0,221549291576816
0,214094892557423
0,206176320467885
0,198215471097189
0,190684246086483
0,182831681149183
0,179488570003546
0,172951633307182
0,174170026366872
0,167729253752354
0,16955678581838
0,163678974602869
0,165937277311109
0,162112596971016
0,160758606848804
0,15844847271633
0,161147826026439
0,159248155631579
0,15545403359967
0,151909634821043
0,152312085229225
0,151065208629706
0,147754722187665
0,145727176072342
0,142973861315787
0,138803974177581
0,136160811373072
0,131631660477271
0,130149214627825
0,126989000654413
0,11898167039026
0,11656058706449
0,114899139160136
0,106478713804696
0,104582056096995
0,101166546730798
0,0944874132007951
0,0904071093454615
0,0872157159331252
0,084866585401948
0,0827759162256455
0,076750128870636
0,074520432450617
0,0704503814977336
0,0673574372479771
0,0667636988296989
0,0663049706773129
0,0615509130535982
0,058561536484165
0,0565397649786483
0,0581159891357897
0,0570752718130819
0,0575507027722195
0,055094242151538
0,0525489427419262
0,0526039773489968
0,0541024833446964
0,054097677658315
0,053935747458589
0,0555323667929797
0,0514622299036189
0,0556750960974021
0,0536707288889205
0,0522657209164994
0,052549960618098
0,0555618092032949
0,0574072916429673
0,0561116348761146
0,0504798703835908
0,0538773960836055
0,0548113020020887
0,0528691143803821
0,0536387887557173
0,0520659789247641
0,0532049280433224
0,0560149471009441
0,053697757680313
0,0549169664738425
0,050422629404009
0,0529375002897509
0,0536315007615839
0,0501060723607052
0,0518349190024442
0,0528315199837134
0,0506603122190921
0,0500715261096167
0,053800859612766
0,0530721651671189
0,0544915537789244
0,0558345640573625
0,055641035897638
0,0540758282063976
0,0560948633356866
0,0567444624040698
0,0591148619059082
0,0584826372424346
0,0554821936990922
0,0575673892441855
0,0554178905712319
0,0583874869993965
0,0580948712993179
0,0607102714287764
0,0586474296460534
0,0602945803905606
0,0610550415787419
0,0599481582858966
0,0616394189314573
0,0590778120599115
0,0630859769752031
0,0586623095182834
0,0611542139638883
0,0624772729999292
0,0631330165655544
0,0621103730131285
0,0635873267337532
0,0695236595484211
0,0702306243100737
0,072516043735399
0,0742157469235535
0,0741442717508981
0,0772330233144152
0,0797744018282124
0,0820048488112028
0,0838551743865091
0,0835863422840203
0,0843681912439449
0,0807872660390924
0,0802637148582312
0,0813063435698095
0,0790651658142623
0,076062173180823
0,0736987272702637
0,0755270018650881
0,0745077468490727
0,0676848043239024
0,0723308700552838
0,0726947424225334
0,0691898317305837
0,0714199452424223
0,0732349903511525
0,0653395987405498
0,071015844150851
0,0726333393100084
0,0608430565914994
0,0620412737803196
0,0701025509226113
0,0689524480005065
0,0706191249245964
0,0714012801721188
0,068260945689185
0,063019621665656
0,0692445136344159
0,065605650753488
0,0655833431208705
0,0683971359232334
0,0660718128410414
0,0642411419964052
0,0675258427192482
0,0631793021962019
0,0640364783520334
0,0627096172204547
0,0614778449787736
0,0621207936687624
0,0655519870705985
0,057834426087064
0,0577578156055788
0,062011590146378
0,058430109560525
0,0594361284926868
0,0586794385661847
0,0590266253172268
0,0574649995481173
0,0539388769119249
0,0581741950056742
0,0535724855210983
0,0509356817919278
0,0551088747399335
0,0515643422304701
0,04877020907466
0,0530286115101362
0,0545624555032326
0,0511263126871493
0,0549588517788344
0,0552422164527746
0,0490352640656828
0,0517856140676434
0,0479916182868278
0,0543337760119711
0,0513441077329417
0,0533641713072557
0,0589188118832047
0,0483450783929823
0,0437483884650416
0,0475209551942338
0,0456787093589206
0,04899154712837
0,0587788579639183
0,0488309040612766
0,0499768927985516
0,0489998429196002
0,0475433616286962
0,0603644462038906
0,0495541425878392
0,0499154684439111
0,0536515113496268
0,0565460480319994
0,049761928969956
0,0517833182458958
0,0532302792699295
0,0559079606542449
0,0577254042615561
0,0559949772794389
0,0556189019118094
0,058157330394022
0,0511790349313621
0,0551574006443365
0,0644821565018267
0,0603131388389453
0,0593007461368147
0,0578233196866412
0,0616362540667553
0,0639235827215575
0,0633982498467744
0,067717643825858
0,0662151672752108
0,0681371162715758
0,0628356492834836
0,0772630608422215
0,0697149576005198
0,0783692821673596
0,0841875295939229
0,0758818631690881
0,0741806623453354
0,0895473332609299
0,0796365551143578
0,0978210623185878
0,09803626001142
0,0930715644029289
0,0924794454563033
0,0986020983841003
0,0909087626226454
0,100623346579096
0,0975761431803003
0,0982734673972711
0,0992765643069789
0,106214759263578
0,0865212802938442
0,0859919297235137
0,0908130615439708
0,0949288764790972
0,098721006866123
0,0886181134219855
0,0887419149550312
0,0813198669563234
0,072443027049754
0,100955333926385
0,0980781723856656
0,0813347325799296
0,0893164656549511
0,0915583952377312
0,0860223572122952
0,0783319730795687
0,0912447479580555
0,0818432758626195
0,0747304650993814
0,0855025491151645
0,0907270224502868
0,0888623824316684
0,0702347826499372
0,0704301271407355
0,0817082532700547
0,075082358318013
0,0785410646890175
0,0789299187505073
0,0832493431707504
0,0734047396971939
0,0785147003499339
0,0789038015334788
0,0785383414173442
0,0740730278623243
0,0775594597528554
0,093698083983064
0,066352588005045
0,0927872559980484
0,0850015203843797
0,0817865505659958
0,0792262089191322
0,0981591326815904
0,0902088567749078
0,0879891973847603
0,0806917743033787
0,0826024246581861
0,0915896187516927
0,0907007564636547
0,0915795419301354
0,0751783666415657
0,0822254385818423
0,0955956275999633
0,0699260058366624
0,0705333714617475
0,0756031495754538
0,0831160616702855
0,0700290181896167
0,0819673085794612
0,11367702886492
0,101234317899801
0,0750746826730788
0,093705243866548
0,0782860002922376
0,0857253426854153
0,087259822343776
0,104190537683221
0,0939958109645871
0,107325890378715
0,104526085551036
0,0846001539960473
0,0990671384861155
0,132949477353962
0,124844370501089
0,100911076885552
0,0991167120761233
0,12637993927866
0,0930291586434786
0,119122269951602
0,092603079688529
0,116095740584486
0,123570074531042
0,131865149655145
0,127521950762911
0,135904847045324
0,107942593810499
0,132793668703587
0,144097940427851
0,107133107306555
0,107829007743055
0,108486729627411
0,112608852921843
0,104217019472033
0,125233580045324
0,139104177459843
0,1102867746874
0,116282889919603
0,114448917958018
0,152929565090344
0,134363574978569
0,114103041761053
0,107254348947173
0,114746875245942
0,147540327947577
0,114056413021329
0,0840838532900463
0,149481103785362
0,113664266024663
0,144691850394696
0,103808726008065
0,14666240750167
0,159653673946456
0,116367764230748
0,120985928208273
0,139371459134986
0,188268173011738
0,116776211168584
0,0635676589242125
0,0723636848134904
0,115909379849601
0,180694041196481
0,19868828876977
-0,0156063866556694
0,160807343773
0,134141427223198
0,120157183821638
0,124171712114901
0,0747573442097046
0,135455298143229
0,109170219286941
0,182334544205701
0,0714278310887949
0,257158556096859
0,032620971916446
0,109095285295312
0,230574028398255
0,175532927641616
0,148293770354843
0,316365590999902
0,094090273275191
0,0657791052608012
0,152650291463068
