3596
4000,36533379555
650,420452594757
1
2
2
0,0937418881633509
0,088865407917341
0,0940247317660408
0,0953972379292811
0,101703614807738
0,0955884652431549
0,0993741683111385
0,0880464296324738
0,0996684505119565
0,0997482345706575
0,102369356355042
0,0896077449964896
0,0947591895403843
0,0933470360278885
0,0910169313972371
0,0905284809499235
0,0947331418894214
0,0893806457282864
0,0945575298181928
0,0895706508909917
0,0986379449015877
0,088371003913232
0,0944722884055946
0,0921246038644884
0,105038570577043
0,101753543090121
0,0921465616334242
0,0969779996153897
0,0997515741080331
0,0916656843036625
0,0922944051119425
0,0970074971903658
0,0990258718992872
0,0926018100205501
0,091400304855602
0,0885724415953817
0,095043045626596
0,0955700116904526
0,0940439577616236
0,100545835379935
0,107407538664294
0,0908983508382142
0,102694523866843
0,0946339077517738
0,101302012689673
0,0912055885363561
0,0889012583793614
0,0956586137260682
0,107983101018691
0,102685597288559
0,0994803135096802
0,0917926127157268
0,115708481833482
0,111579997493582
0,107562909207061
0,115576887132036
0,107939252147181
0,0856418724330924
0,0958086217839848
0,0993267015450432
0,123037409233653
0,117455204365442
0,090006833392972
0,0916618590998568
0,0877893660668122
0,0942139811222723
0,096693481896431
0,0881005048997879
0,0901613020786636
0,0940624002624223
0,10176594127843
0,11926195108439
0,111703506493815
0,0914477268846106
0,107813283920092
0,104710712705563
0,0861143937204877
0,0867999846816159
0,0876143330629938
0,106824857236967
0,119694208267817
0,102437103217563
0,0956364282510834
0,0824017475648787
0,11061547670458
0,115298737176881
0,0892735088308492
0,102174284711057
0,125622540626268
0,107529440853411
0,0960705635540985
0,0929352417680782
0,0868678522658332
0,082795425350606
0,087833737588228
0,0857815439535164
0,0886576932692899
0,0831886496152937
0,0928378117692909
0,111040544927526
0,106990028218361
0,120506201784767
0,140295258610924
0,114003181369701
0,148227130995178
0,117060763718796
0,107855559744506
0,141699849094891
0,113834797153016
0,0895163053206573
0,0850610484644267
0,0881200063609238
0,0937069883158725
0,0977790707872248
0,0941510218662653
0,124796074472458
0,132406335179198
0,0891064093207467
0,0895451517220454
0,0864376871911661
0,0892111223776701
0,144131525633012
0,134473788302993
0,100438272420487
0,107497303730782
0,0898575319239676
0,111601377851431
0,151563659328473
0,121897759497984
0,0913999339566527
0,0856085475193177
0,0878247640420684
0,0781908168453725
0,109176426906973
0,145229270761594
0,107871725517738
0,100793102157545
0,1046584650018
0,141807698020428
0,157110228224375
0,105272528991906
0,0864348502354856
0,0783383372827201
0,109536764409418
0,145194169991118
0,108189157213916
0,0924242941300292
0,122590466376925
0,10577107682928
0,0892955249179763
0,0886845959759546
0,0863419294011511
0,112135526491323
0,0978366889368033
0,0816328179366791
0,177109715833624
0,183107872133392
0,148160685886788
0,147479591689765
0,103423197890498
0,10079108647909
0,0956440724174722
0,0827124113574311
0,0861950932445261
0,0898826391633208
0,0768111602583519
0,117245483476397
0,122883360816125
0,093930697771878
0,111924776064509
0,144430185075977
0,126194698378928
0,110468052156086
0,16257270637037
0,108900846907908
0,0969642959169235
0,141570186837123
0,101072988501569
0,0786644354518563
0,112123080972614
0,121940979719507
0,0880523110637818
0,0904453549547476
0,0862716891809049
0,102989089316993
0,112535351494892
0,096349213295512
0,0980828615913994
0,100843048199878
0,0941522672220831
0,143691830607483
0,173146640795276
0,125961880582882
0,107545585495688
0,0939761034320239
0,078566118010086
0,14245894318946
0,129147405051331
0,0874960444394906
0,0841555703847208
0,0811468821684156
0,0781415515676233
0,0789016801076079
0,083856628848935
0,0801551237900189
0,0860104804120818
0,134461112172635
0,113895902746203
0,0831824489585414
0,0865628820175993
0,104646056314949
0,101953438608266
0,164843191777339
0,122775498311167
0,0910532135119571
0,0910268702381742
0,0942345595139971
0,117409463002767
0,107671783734871
0,0865912750462895
0,0866278459897002
0,0852836136106419
0,0821763758890649
0,0789958470172613
0,083759566454553
0,0863013357950333
0,0864265517163531
0,0877834830682524
0,0868855962925359
0,101610942342619
0,104283048437927
0,0918170892120297
0,0865641638439928
0,0885178893283607
0,0794553205667188
0,114330569829061
0,112961268177094
0,0989247896056297
0,0852472062872901
0,0850780902602273
0,0860932224004883
0,0864031185952849
0,0802395896466915
0,0905413717476039
0,0837801433224097
0,100692606553073
0,134221526480368
0,102447584258594
0,088004563254928
0,0787485865204218
0,127136461621445
0,103130988611454
0,0867003374070389
0,0884753038726005
0,0940535666660671
0,0773744354326007
0,0973212467080167
0,135849451170488
0,098186272962965
0,0885905377199829
0,115557485376595
0,0970462627576482
0,0930352658037132
0,090920446278158
0,115397225309212
0,18725363323941
0,121412401785179
0,131038883101727
0,168926548890144
0,11321468699144
0,116853886859787
0,0952865465000302
0,105319500340296
0,254884851795601
0,160973819703363
0,0922964513148725
0,102785906913719
0,120334086694682
0,0908724922877295
0,113283774432317
0,105649422788941
0,13721474284669
0,139066254087547
0,210972033883727
0,168449606338773
0,085334688641396
0,153094193632052
0,129974201832981
0,101064039637123
0,0856921658399447
0,0905615390777514
0,0907047898894679
0,132089075771761
0,11445814498119
0,12619323937383
0,0999597808921777
0,112614051715198
0,140210871836214
0,106232083880793
0,0868352067890102
0,113233592334888
0,105256563038009
0,0903503339808568
0,085173361583601
0,0905805924764492
0,10400191367784
0,0903410116167502
0,121198833397569
0,169926397127159
0,115165455196091
0,114225954810528
0,124312945346231
0,0996361560830572
0,0926555876760343
0,0898188949879813
0,0894707183117461
0,091712308628795
0,0825159874939648
0,0924811635654053
0,134830527861819
0,0951655635514647
0,0947445471090465
0,0935154433040196
0,08386141857226
0,0920271558297114
0,0907171752383571
0,0931931352385875
0,0990314353073989
0,0926333479768511
0,0926931421143021
0,138134174465529
0,141178548079114
0,097845261069679
0,176159448490266
0,132229599818518
0,107901422033696
0,0869265403930512
0,0967314379158094
0,0968049381156284
0,0995798666865855
0,0994054394957122
0,0908938576888944
0,102920948669366
0,126756301926041
0,114977710466271
0,121696811008317
0,125255756084099
0,22477650138683
0,18452494827711
0,132814523306434
0,114685466266782
0,102739789759787
0,17046117621597
0,154368101603636
0,163172616902246
0,138752942719076
0,105013528211117
0,117985226369025
0,107285161616113
0,116945554658976
0,108677738069289
0,116853618846054
0,107680749026427
0,125733871365431
0,110829935717904
0,120631763027072
0,108690335510188
0,153960936912992
0,17400584469691
0,13803611099702
0,129502950245814
0,132125920914404
0,127822659429119
0,20097791630381
0,173853438087716
0,248585694893257
0,171355266511646
0,20695340756848
0,198761046005547
0,145277202612816
0,135812398143884
0,138195381652077
0,143266147079144
0,157117160069628
0,144635054701879
0,148108714532677
0,145906320251752
0,15773819627707
0,146376195056827
0,153225884520325
0,14341991575022
0,171737225444606
0,188953633817476
0,158037682177381
0,168719146583196
0,156481094156721
0,215194805151238
0,281743486905288
0,233837862465607
0,186835664547399
0,18916879386853
0,172166541305239
0,171419519774998
0,178784650252421
0,17769143607261
0,182344030660309
0,195277772770844
0,240661220996781
0,215365781751045
0,242067062217878
0,204564915551116
0,193823381663499
0,244081150224192
0,220736857260764
0,235923235807429
0,251124341196404
0,220641757702161
0,203221010373503
0,251739795512826
0,231855990392753
0,234002427548503
0,252682821516536
0,212380439019446
0,219800262708227
0,209349585361206
0,240172686064285
0,215953433823237
0,26157387905927
0,229149604488275
0,245242979272436
0,252775036057283
0,243390933671022
0,242659370752702
0,286431793378234
0,240161105813565
0,279075779132891
0,261852234123667
0,250034965817763
0,236980244087519
0,2411361181735
0,31231222745041
0,293053008990508
0,315854629613609
0,302717163408128
0,252218299400056
0,288368549352987
0,262376440530901
0,27262267491354
0,275968535523873
0,288581112147871
0,280308313754641
0,285275581969064
0,278061468772431
0,300600958965135
0,283122195876721
0,312890099232693
0,298270609458728
0,309399005404497
0,29379098899737
0,310264894712217
0,317226946734666
0,320071241098147
0,358566402474869
0,362899988801646
0,397412161045178
0,382572053034587
0,34919228197173
0,351129809745175
0,31471812492854
0,353585000647521
0,33596497348958
0,360099011384243
0,34091134841408
0,367460555230092
0,337632483159449
0,349206066806785
0,354894268182787
0,382502644432816
0,348489216247877
0,399262632744905
0,376008562921285
0,382235783248317
0,373988729072409
0,393688557793036
0,385095439164771
0,434432867965891
0,404220870902849
0,432687773958171
0,40195866481271
0,426386435821606
0,392738336530544
0,427147089309297
0,394824772529028
0,444591425384129
0,40748400997901
0,427945331760863
0,423350276972688
0,461587302610407
0,436933525738423
0,444134518901467
0,442069369050555
0,453144711951868
0,431114209705929
0,464413405694401
0,474117032857753
0,484526959775128
0,447295442336824
0,491999045123414
0,461053556409095
0,477428945664415
0,485371957995454
0,521612882443314
0,498481817771404
0,502673660770637
0,490360907243608
0,516678336378277
0,476989929851368
0,524107961797035
0,493100083568722
0,527312585354872
0,510723824732239
0,529718608209744
0,51409942365171
0,538356769261382
0,521539700779525
0,573358792426297
0,549631888907514
0,555007240573795
0,541152372466926
0,567702970854117
0,541671043926054
0,599185103340494
0,570091993609438
0,570666861435185
0,573500340129847
0,613056227053649
0,559745920775588
0,584715944427977
0,58179415237552
0,616337900835153
0,602428567836291
0,614730976233499
0,587630519326847
0,63478071040081
0,602351481322088
0,659160869254156
0,625908466766185
0,641742228468559
0,619346406045981
0,621035792316747
0,62647110127112
0,658770059953917
0,639003502996745
0,665722401346524
0,656865282208955
0,714403138764105
0,638549115862589
0,70119319699246
0,651888409070791
0,693046692143532
0,665324488808317
0,704584425251383
0,660746353271646
0,736338536392338
0,671367498929791
0,730475404199898
0,671140092310685
0,708456226929
0,692348691058482
0,709910736506672
0,719528622687223
0,733236715390025
0,732134788086766
0,780111099551532
0,726388824102538
0,75176445052375
0,751607216800501
0,764968330302452
0,697560225324903
0,796490368728899
0,726089847658706
0,748430118120385
0,731322550940795
0,765715677944125
0,742174224470455
0,817692785963674
0,743694077707295
0,822637641636779
0,73464849292752
0,839957153994401
0,769244540422982
0,831692080460878
0,813791421919795
0,86670697716385
0,798102195049789
0,839047387501696
0,76910512656956
0,875212703977296
0,779031933190501
0,898748744983108
0,809753352061735
0,845285320632055
0,798740508720098
0,893316981474104
0,787068631377238
0,904005030459244
0,832678169084825
0,893961665825238
0,836965512753146
0,899189821870614
0,816434741947092
0,909921469128213
0,826492816123284
0,910578673109372
0,87699855902455
0,944406483860885
0,858398176739198
0,898126256174419
0,907194605266064
0,928553478447763
0,903331319981538
0,936386679195422
0,908033340434718
0,901364356814118
0,957532600292965
0,974220355300662
0,851058116057258
0,95006371020414
0,874501283390109
0,930810041773202
0,909847605616907
0,953741651536451
0,876948865607943
0,946742568233725
0,977108722867534
1,01905251587934
0,92311584984606
0,999424705485666
0,921099995296053
1,03258755878647
0,938827474236642
0,978395094019354
0,931832503306466
0,961640577243296
0,967163987395628
1,11171719557618
0,951734155490162
0,987425031704346
0,940754779877159
1,03025455368211
0,942192576725976
0,972403958361592
0,967467528552402
1,03899649698688
0,991203999329255
1,05582455841879
0,981296681873355
1,02415742351467
0,971881141539513
1,06643128318581
0,974734058229162
1,03390121338612
1,01234159405782
1,09034276306211
1,03143380925964
1,01984790143376
0,989460185285372
1,1181295699756
1,03771338560869
1,07048170664413
0,975270270375317
1,04046229232271
1,00165145017634
1,04535237562846
1,00520665565811
1,07666175210305
0,940298520277442
1,05119051702981
1,07076109078664
1,0490542791026
1,07584998354012
1,12744027639315
1,07000636685589
1,09967469601089
1,06737817588165
1,09646143425987
1,02214315784877
1,10572345670298
1,06632496452911
1,21410314803821
1,11550540690529
1,10266406285864
1,04389851805674
1,12819028453048
1,07057051585794
1,08941807706338
1,10456536978497
1,13546430878251
1,14367126579367
1,10657216198283
1,04609912453925
1,06933141799808
1,04340526742061
1,10276179987133
1,09171963983894
1,09340153982378
1,04165844712962
1,14123340729238
1,0563820502903
1,16485225061642
1,12249990998524
1,09909621553209
1,11897713900566
1,16483096311775
1,07100431585616
1,11638689651365
1,08552559520739
1,20581608297529
1,11858994922089
1,09178479554235
1,11169773372836
1,08156395551484
1,10374167841171
1,16869780739838
1,07901197276834
1,16105873893307
1,07666537330766
1,09544381409759
1,09761091381554
1,11728169322351
1,09234550460721
1,16710870256794
1,12178038411228
1,16238945914849
1,0953370083143
1,11390001771431
1,0989083095115
1,1131122055261
1,07458233575363
1,10544855545042
1,03363957956733
1,10881466911776
1,08049079186798
1,13216185263447
1,09092196740547
1,12403282490868
1,04901277417712
1,14850803555366
1,04394885823659
1,10290273767669
1,07656004062929
1,1470625668513
1,12011097095581
1,15955272127013
1,0997578887703
1,1360192480716
1,09800149637071
1,12295982670404
1,09496894282632
1,18502213075921
1,08738641606027
1,17038717690865
1,08634680286559
1,11524166842564
1,06569000947362
1,16052049246266
1,05475181647348
1,1010519949592
1,09138294788466
1,15454776311987
1,06604434400636
1,11625535406518
1,10347698284421
1,15079810963933
1,08657233026512
1,11779493358247
1,0786026955362
1,07947500062377
1,10899479106964
1,07564335648563
1,04715863817192
1,09639405704619
1,03376194347246
1,13132379746982
1,05977372450484
1,09436260425966
1,1060015548521
1,10826897372084
1,06236391566944
1,12313013258668
1,09342372403982
1,10367428627487
1,12315295913284
1,10186874056145
1,06041486577552
1,07231831452177
1,04494084524397
1,07940419119678
1,03363257479991
1,11524941406515
1,06447118839661
1,07720860975485
1,06775527690812
1,04336365463626
1,04564349795266
1,11747611068145
1,06015838431207
1,11567870960107
1,05353698205777
1,11189445282093
1,05837892676986
1,05907450263968
1,02282595561666
1,08090313191978
1,0507964612679
1,05363998554205
1,01987866131487
1,10769064887986
1,03824570056503
1,04122788072556
1,05345678952093
1,02427988205677
1,00347010334575
1,0668601763508
1,04654589750774
1,01769044115036
1,02843967883635
1,04074441074863
0,984427403286464
1,0617318238986
1,04718318999108
1,06557207591124
0,993598182620434
1,00842254147998
1,01906162772862
1,0317060437066
0,995405433327245
0,987724939749795
0,982484582267818
0,985680121756754
0,987610517628509
1,01209455634167
0,990160086562284
0,970878113803452
0,982618958270891
0,980905342171101
0,952347867659785
0,986774572813124
0,934896218513052
0,963440590114273
0,970489124875425
0,977886663173425
0,955506108512246
0,984665684407607
0,965426089528184
0,974641098513591
0,918793293066026
0,952619145577083
0,948001506994758
0,95662997481961
0,946467105746162
0,930789766227002
0,905115602788119
0,926886347789886
0,938336863305023
0,905243468924466
0,903911697793743
0,951230901050266
0,902779398737318
0,93708091373459
0,899509455512937
0,923791045258579
0,896731950065696
0,906984856516379
0,901421141270661
0,858557944421144
0,863593159858876
0,905103478857089
0,854714590388203
0,880724703553873
0,872778164292368
0,886668595903486
0,854261052264194
0,847204689298103
0,868968478338251
0,872301052567931
0,865697725265695
0,8746025856219
0,84605386050611
0,820334613754726
0,824408929438864
0,856460370229508
0,821914202992384
0,823636281001522
0,816509344874126
0,847725567888963
0,812454408843179
0,825427808380609
0,820406870866242
0,807595522144115
0,812839173339653
0,807311886627402
0,782741086159106
0,809246894473774
0,804836075606383
0,81391249149562
0,772045801641731
0,763408296023118
0,770883522539008
0,795382285777548
0,784310509314135
0,777079281465771
0,77230293777181
0,764715601635668
0,73991866210618
0,757062742869561
0,727740101330244
0,755878522926749
0,754214908560823
0,750464949244611
0,720872342782209
0,740776835363556
0,729422519238174
0,733172919967236
0,724074357221934
0,729039018632336
0,72036712611645
0,709506648118411
0,71967481957616
0,715306502335304
0,715517870484184
0,705166295697463
0,693545517181026
0,698620370670925
0,68821320128341
0,701033271763241
0,698174426307667
0,693425349701061
0,675418036304928
0,676594026709935
0,680726303980745
0,687533254021935
0,654073476853822
0,669107998560972
0,654924694200662
0,667587763576127
0,645327457129582
0,657948235697705
0,656772093373449
0,650473331113583
0,658492749470113
0,65974658630599
0,638496881865627
0,644160968176486
0,638372693856692
0,636980145894955
0,619728086988316
0,624599504407588
0,626376987715889
0,631065025894501
0,613291816689901
0,613281645568844
0,603422951049122
0,607379652570724
0,612799587444295
0,610445476786138
0,60504671966201
0,61107717140189
0,590657839076433
0,598055098397703
0,593418970227046
0,589611066600173
0,582985723477691
0,58605639624608
0,576428842857813
0,574328065211628
0,569549732929264
0,570731696604484
0,566944052416119
0,570235771360957
0,556473131126038
0,555187720753287
0,557963853184007
0,556043481203977
0,557452808739608
0,557851805539257
0,545832585322634
0,554531553475919
0,533735678640078
0,539346748520806
0,537875035382121
0,537001069074321
0,538430084148949
0,535853475473703
0,530877472187032
0,525076629264303
0,521793671682145
0,527056072812876
0,521102576830808
0,506448207101727
0,503921831948128
0,51873608499268
0,519549096769718
0,520800883435029
0,513904259261979
0,507210546373382
0,495301557580277
0,497401305558364
0,497712043808404
0,49298450375072
0,488252430835356
0,498571813325707
0,493190308930219
0,479137371263268
0,482637326455867
0,486701196210341
0,47510934126999
0,479317695790244
0,475980838334181
0,472913728757522
0,479087662169142
0,483793507831773
0,463431962331613
0,467718787321927
0,462513670416262
0,461580082724853
0,457510217549316
0,460416392778862
0,458571033057043
0,457065431352139
0,462555664335806
0,454336827853426
0,444774970900433
0,447206311026678
0,440861714828311
0,443471262641979
0,443522630653451
0,44125749584868
0,437685961834456
0,436343033896082
0,428786933792121
0,431856002801662
0,427735397710409
0,423547885216372
0,427930364601494
0,4255451613351
0,417489441418128
0,425621947746883
0,420776099757351
0,417560409190449
0,413255839288091
0,411465590091029
0,414097568728256
0,40704943372491
0,409914027630162
0,407434856186545
0,395510146059501
0,407179854105618
0,413361609167182
0,402633616687787
0,39946864186981
0,401011221769043
0,401841188601422
0,397767556588358
0,394220227302782
0,395059337216789
0,38943463973206
0,394422894548881
0,387947889272001
0,386651480215266
0,393416815518321
0,390314547069645
0,386170948076951
0,388904277818919
0,380906299298718
0,380584499230844
0,38319125393211
0,380346922605639
0,384336761392257
0,382971748309784
0,381868046274595
0,387454588153222
0,383430827567982
0,384828471223528
0,381516079860158
0,377294497158806
0,378720133159822
0,384068565811421
0,37956708918157
0,383506935689766
0,391992047321284
0,386043619201515
0,387161786081415
0,38178690854741
0,388379689211726
0,391662125253177
0,390459159544366
0,391280147225512
0,391607299064812
0,398227113680956
0,395775080303329
0,392537223551327
0,398532631286367
0,398176679714725
0,399613695546227
0,407545497657018
0,40505714740016
0,402632399337191
0,405848468328095
0,410432814443565
0,405838631802901
0,403962129108985
0,413454049999954
0,415016648135743
0,41746443795928
0,415794951866266
0,412988118904009
0,417956605441026
0,423958341602772
0,423394565584687
0,426510154583011
0,433902868031154
0,433020273339526
0,432266332993818
0,43180141688192
0,43222132410624
0,440575252441579
0,442665583694361
0,447209896640752
0,44938119755118
0,450394376973551
0,45576063153235
0,46030216879871
0,465441043383649
0,465349499537665
0,469857777303665
0,467572210273859
0,473063459554732
0,476730843921952
0,474104591379142
0,481122746632102
0,48642184830722
0,48682479989016
0,49115878782993
0,492973420466772
0,486303204825453
0,488587345731252
0,498534767024389
0,501312097891482
0,498627997901181
0,506972926536843
0,495702725612046
0,49986908073722
0,499368259227948
0,497082933937423
0,500202437168069
0,498710454914971
0,498713567183626
0,492985507891118
0,491508549753396
0,494475241062145
0,49552626551915
0,497071761047753
0,492945454344024
0,49404832234646
0,507386362829409
0,504892224478366
0,497613685274473
0,499650881242737
0,494291308187214
0,492903306079402
0,49911698465726
0,504357124429822
0,495825295640612
0,496569673775828
0,500960084723664
0,498273257951105
0,491268712932287
0,496415625716726
0,495123822828383
0,500720890711417
0,50408070198224
0,504481477288347
0,506096811456068
0,505919995615704
0,504036663606468
0,502371468811598
0,500952651686619
0,502039862335348
0,510229913039889
0,5064895044044
0,498114881096461
0,507363145471348
0,508235811512005
0,510032283476266
0,512118061799638
0,509811430770223
0,501280256400017
0,508680721223265
0,506058992732824
0,497210826904476
0,507252522852936
0,510493713329476
0,506637050007348
0,512390277372568
0,500575645609373
0,498785356266985
0,494997827661938
0,495086555742392
0,488787300359131
0,499333250104666
0,494937364571654
0,483153326871582
0,482133726158508
0,481358447203147
0,477850114869038
0,483426844928073
0,480327634474972
0,476863075823361
0,471119511534097
0,467830145885262
0,456926379050165
0,459318426848303
0,465381199059727
0,462122378100122
0,45589545175137
0,448114134534222
0,441899923492406
0,439030611781833
0,4378380107023
0,439265403122148
0,429151729763725
0,430916057611397
0,42565749102668
0,417697032250549
0,417704569585509
0,423819354518244
0,41036508734625
0,404037051849066
0,41317235852846
0,411013463815639
0,40288892536818
0,410195008833977
0,405199140274066
0,405350183119878
0,403047814469369
0,399715527086492
0,391821117511609
0,392666546266694
0,394232121808342
0,389790600421929
0,383951130074466
0,388689506368134
0,386989185109612
0,384945604324627
0,37537392979221
0,377761729689189
0,376740901138786
0,373749389736864
0,369775016031687
0,369622939874601
0,371716100472442
0,369833797593802
0,360557529662995
0,365301178153228
0,367389535090562
0,36532191103889
0,362189753859893
0,356900824745841
0,35846029480615
0,359787258814964
0,356481223410525
0,354172959462261
0,346720822617258
0,355624755438407
0,350095862141766
0,350624754980868
0,345534741555274
0,344808369636634
0,343799629679422
0,341137081788318
0,338925850743099
0,338806595551282
0,338149425431326
0,342048157560935
0,338761179550667
0,336472007915686
0,335632379196117
0,339147697870315
0,332143283691404
0,330050848996511
0,3228816626819
0,328410941713346
0,326812175866215
0,327411175753417
0,325773546237751
0,324821855068392
0,324716294539023
0,327492982209341
0,320071757087989
0,323146514691499
0,31864532554967
0,318295361453311
0,314658891327981
0,315902117654367
0,31539150589344
0,317590064016169
0,314997746788452
0,313086125076186
0,309035405166238
0,308212213977409
0,31044974142648
0,310867421954153
0,303890086672149
0,311552801365884
0,305379930186359
0,307265408185429
0,306417384028209
0,303011267190065
0,298618638927897
0,305060846670747
0,302741154234334
0,301627714366672
0,300568762977111
0,300295871605001
0,29745762663036
0,304201326742286
0,302476050645501
0,299985677363651
0,293007438783018
0,29682220187332
0,293885353905782
0,295473586444373
0,292179020160976
0,293473843996586
0,289945155634163
0,295656535397743
0,295562010899934
0,292750364220327
0,288390841969997
0,291258858084568
0,292306324372507
0,292274797356178
0,285840930292644
0,28110306281296
0,285197607321084
0,289306752595048
0,283074113039787
0,283851216625489
0,281231961469859
0,289426067965834
0,283870437116186
0,282513238251474
0,278851716232622
0,28899904362878
0,285010027719274
0,280414701035867
0,280456762884153
0,281536248147938
0,277149632738549
0,278029737764502
0,277186990689239
0,276462341412345
0,275865050111396
0,279535186526641
0,278869145403625
0,282539364508225
0,278840849101933
0,277945391441209
0,274175098171536
0,277870616710276
0,274158610097799
0,271422226328763
0,272833021573983
0,270969455277042
0,266674315113249
0,272801371486895
0,273344560399249
0,277126636596605
0,27177720824301
0,272582541500319
0,273691466733755
0,269777997546046
0,266324170996771
0,271474294094242
0,267354764900085
0,264495343962788
0,270152797483068
0,266991409200989
0,258661345882529
0,269902267621177
0,262783122247122
0,265747253135975
0,266504315273108
0,266811270089562
0,262994210457409
0,26058609451556
0,257631815497965
0,259229790368228
0,260954675027755
0,258272105523427
0,256842253676004
0,26194363748934
0,254969135274356
0,254917353632908
0,254995606923626
0,255640815649109
0,257246784239242
0,258992193026717
0,251146281641553
0,250481031295952
0,250362050498871
0,252678511281207
0,24408424981355
0,247698108248351
0,247736699824151
0,250395644184527
0,246040257914095
0,2478692238813
0,244429334504387
0,248813668163578
0,244822974448557
0,242314268059093
0,240277586526613
0,244063347236632
0,241738727849371
0,241825742644818
0,23752204244889
0,241194974263399
0,238131108598278
0,234063107103816
0,231937831038131
0,238332244620051
0,23560868657739
0,234407379968287
0,230340964970416
0,236687033676528
0,234504145831365
0,232272073440152
0,23046230034484
0,231263722794518
0,227125536703719
0,234621940379253
0,23138345078445
0,229119866922114
0,224365683624221
0,226923595654102
0,224689752529091
0,225301190590534
0,222363690986407
0,225147518284934
0,216000532892231
0,220534832354413
0,219697844217323
0,216763762519548
0,218097811248812
0,216623028987813
0,208816488973411
0,215330748442117
0,209141286688277
0,213226546612127
0,209916133310903
0,207711155226247
0,208098109618372
0,212035158418446
0,205142855727842
0,211030595952812
0,206295907040597
0,202733265201893
0,201017875207811
0,201691155545891
0,201282106031321
0,203905052432829
0,195947314655852
0,202049770230341
0,198122414527204
0,198567728541078
0,194864067533941
0,194851424643993
0,194515425805423
0,197825043324695
0,196015489014251
0,196326065222987
0,191164246866131
0,198907708128458
0,192759118181066
0,194139153390298
0,191594539244463
0,192370279899272
0,190996118252923
0,193497917298185
0,186314847104972
0,186527014559859
0,18547720690805
0,191731946311309
0,187397290275427
0,189340767531016
0,186808386157468
0,187441405619585
0,183712480682181
0,187039683469772
0,182762064672257
0,181730997091083
0,178195639710048
0,182297464841669
0,181444981071626
0,182621743867426
0,182223836314812
0,180105755550771
0,175122614088187
0,180674097119482
0,175754716019336
0,176626768833349
0,173141157908466
0,177251674879122
0,174533083192768
0,177492160575721
0,174016012761955
0,175526924129319
0,171782776644765
0,173132098889613
0,167115035861742
0,168054746901014
0,168905985262035
0,172419999181192
0,16986102808191
0,171006758690581
0,166181451121264
0,170098405034997
0,168509521416062
0,164321243462158
0,165882242034774
0,169445995649913
0,16354175079776
0,16595610363763
0,166542592686644
0,16536199974721
0,163941383073177
0,165012827311566
0,164265449876036
0,169277748806793
0,162855613096401
0,161184821174634
0,161152632719632
0,16106267818381
0,160795848956443
0,16435679007508
0,159989647480722
0,160685922944425
0,159547562121919
0,162570782836429
0,161461918658295
0,163016067062442
0,158250101704341
0,160367573176634
0,15805870402173
0,161132569497964
0,156311916706677
0,158877569304228
0,156290339532253
0,157451398808399
0,155292715437532
0,159419359666543
0,154723991945779
0,156446243290921
0,155401491113254
0,158728303467265
0,153492640160108
0,15646518538132
0,151080178611697
0,155210230647255
0,152499131625898
0,1533096674057
0,150509361328356
0,156217341973517
0,154046781122327
0,1548939673882
0,150122857913103
0,150412451732321
0,1503890467701
0,149776934465554
0,150006792145247
0,148298521802181
0,146178200116247
0,150943514478406
0,147198599397798
0,149474630372319
0,142238187089857
0,147047829803384
0,142826798345888
0,14717595283829
0,145905280394047
0,144144928061488
0,142473705263438
0,142779485032643
0,142414798800653
0,151353986632397
0,145511390504978
0,143674269409966
0,142305864414666
0,144655649604334
0,139547683102313
0,138616063848129
0,14049774846246
0,144529680962153
0,13993994588118
0,142458288914338
0,141792780325325
0,14254807420421
0,138382519451826
0,140626921790752
0,139532163248547
0,140692482101296
0,139454798448972
0,140072160900593
0,138439567573341
0,138125929915049
0,13693649620723
0,135915232512294
0,137757913064343
0,138526449612905
0,134643970281874
0,140050404446236
0,138117777354912
0,132905918651168
0,131785126403288
0,135488201964148
0,133871765149997
0,133474749903287
0,12976142245355
0,132133570936477
0,132913063935664
0,134663682133701
0,127898742334009
0,130508766132261
0,129940105614948
0,131786633423992
0,127933845133837
0,130638678896635
0,125761049746084
0,126330543857531
0,124704933161214
0,126399987966143
0,126372573171552
0,125632583167906
0,125266166875152
0,124621767988332
0,124725553754344
0,122290198724047
0,119697649337058
0,12502838619502
0,120879163985928
0,121195874545485
0,117814234815472
0,119759758352554
0,117712870838182
0,119161804044057
0,118119013212744
0,116180876293643
0,118993197949503
0,118224272335508
0,118611449360432
0,117980219873734
0,115537956220766
0,115847159181271
0,11530972696435
0,115872174508771
0,115964192691225
0,114455141454722
0,112483487435596
0,114674135656299
0,111500733021322
0,116147074313926
0,114692988764725
0,113552723376959
0,110778205718793
0,110171573870615
0,114190520417589
0,11140603891239
0,11184624762258
0,108503963310584
0,109671437178602
0,110443942280459
0,110614001430593
0,112248498921801
0,107994368122897
0,108949832520972
0,107520040959498
0,107369489354954
0,108153548944533
0,107653909991079
0,108030465482127
0,105455220265389
0,105043276814585
0,105952592619523
0,105058613767144
0,106449406502355
0,10640525601387
0,102908916560232
0,10382168083268
0,103903078810337
0,101667276753773
0,101415264157304
0,100119415175153
0,102324235882904
0,0973687855728029
0,101668445236937
0,100384445707716
0,099014663586326
0,0980347949119408
0,0997167807557159
0,0981154664633901
0,0986733736205959
0,095370004259186
0,0963642677015316
0,095496880058364
0,09589047963882
0,0954000554109427
0,0922158222127773
0,0930932223451548
0,094904729862231
0,0971698448803892
0,0963252857993206
0,0950394668032337
0,0961333276699021
0,0959086053227064
0,0940361522748168
0,0953002076945023
0,0931202596380599
0,0913720814866222
0,0969702721461334
0,0952883941897729
0,0928180209518853
0,0949862079604448
0,0945643102195453
0,0930164022711993
0,0967250243118741
0,0994061283970048
0,0965754176910143
0,0960899750093976
0,0962432939480974
0,0942905938538037
0,0979143908254298
0,0986494402724851
0,0965186564695017
0,0998382926753007
0,0970961733753405
0,0926043965955748
0,0901096321622335
0,0878526061513104
0,0878222684134517
0,0862665903715059
0,0917287953585726
0,0925535925200915
0,0814890210921128
0,0788372830408713
0,0871063912425099
0,0845314945857469
0,0769746842236876
0,0824777582675758
0,083193702445528
0,0774369725059402
0,0903337311491934
0,0866230565211069
0,0792849914119347
0,0815973272323024
0,0880218756184827
0,0912063344739396
0,0834316843029798
0,0879537306010204
0,0878326394955696
0,0909898843700437
0,0870795033744132
0,0906467453293373
0,0776483587273377
0,0887028744766557
0,0814273731666076
0,0906983994836088
0,0775685870336543
0,0935217144631339
0,0777157057893478
0,0946463770272992
0,0798387189212345
0,101803489766953
0,075590710567785
0,104597317865657
0,0692234473714727
0,096497135451435
0,0609158695747924
0,101778512397356
0,0701933559094896
0,114073021088682
0,0578812938127473
0,104757894287014
0,0573357691010534
0,109998305541601
0,060717835081109
0,120839056210954
0,0516523311301363
0,115165009910628
0,0625459267106991
0,117556836648521
0,0619670627242564
0,106760791601034
0,0751115249517982
0,0958027330672482
0,0821702564534072
0,0851765032556023
0,0959426136968953
0,0747102965664619
0,105666669584619
0,0724499465604072
0,101978144028602
0,0706748490109575
0,10171717272029
0,0758323581638497
0,095217759132685
0,0791861495817353
0,0880293945784255
0,0840204132659094
0,0839093150665011
0,0861167749710034
0,0826750251197737
0,0822749132421806
0,0846931149678492
0,0776697819968821
0,0855646909587557
0,0784694089744351
0,0868726212969128
0,076925390151583
0,0835396753041162
0,0759478872241005
0,0812959870088254
0,0788367688198943
0,0806502189714666
0,079108518271249
0,080819745570252
0,0785815709868347
0,0814740412011367
0,0772894522854634
0,0811330881478897
0,0792624557741861
0,0791467647252419
0,076504901167341
0,0805533487841274
0,0783572458202896
0,0791504245836269
0,0781966371338003
0,0775183930715135
0,077160098348043
0,0809213023315886
0,0744463435314162
0,0799736743808259
0,0783702237971731
0,0802965969022442
0,0789999978622775
0,0828985371816684
0,0779336214594993
0,081596446742144
0,0806191480641314
0,0796889271858426
0,0774149779044535
0,082205749684245
0,0769944293928712
0,0811920400762653
0,0773829096084037
0,0809951845420088
0,076136251557872
0,077779303218887
0,0791173326647729
0,0786126576515395
0,0767946739159747
0,0804537458267937
0,0779355552479922
0,081505327136987
0,0760138858281945
0,0790381217826359
0,07551374391668
0,0789353948343399
0,0763168751274604
0,0795962201157277
0,0765916622485096
0,0810946389566684
0,0806876820400177
0,0802052130960594
0,0759851495500883
0,0784339427186256
0,0750955514551509
0,0790547279678391
0,0752100333449225
0,0796377250998286
0,0765776059579216
0,0780659678162685
0,0774382714806578
0,0806849829099456
0,0759536587251466
0,0783838055825003
0,0761202296264977
0,080440735279803
0,0778340475248541
0,0793718587013729
0,0793184185645531
0,0801902868713638
0,0774544856162113
0,0777651948434441
0,0765668828544517
0,0786066316583236
0,0775943661207142
0,0805645700896111
0,0784290166408197
0,0812479193073682
0,0784263616912751
0,0793691178243094
0,0785506044577219
0,0819010505093062
0,0775202029278487
0,0825041553757489
0,0784772471137217
0,0819046570577238
0,0799289614071635
0,0805939348785695
0,0783990198771844
0,0792882104209105
0,0791430467719291
0,0816778197150818
0,0784556796662888
0,0821408195237894
0,0789704252957477
0,0812430282711483
0,0826791857880324
0,0813220216275064
0,078196591131236
0,0838688782969854
0,0810692706533468
0,0822458182981188
0,0787358267969265
0,0828172210471743
0,0812736618508667
0,0833685491867464
0,0809513644246306
0,0834720982841237
0,0810116253689957
0,0827880304371919
0,0780823240248957
0,0793200102197801
0,0789014547629623
0,0813905770791669
0,0806379066354561
0,0847646416607309
0,0777361611457117
0,0820680542001189
0,0820773729142213
0,0838455897646483
0,0795671219471658
0,0822085066130861
0,0794081723280833
0,0834809527129574
0,0806407133692273
0,0817004165835309
0,081003492031581
0,0837644849897682
0,0805413590321353
0,0822930055746014
0,0789471129645995
0,0837909039176349
0,0801502403646503
0,0829806626266499
0,0825293098064661
0,0839194669762162
0,0819357573783741
0,0851409433370353
0,0836110788484398
0,0854010014440633
0,0838385915514797
0,0845252106186371
0,0837076651732018
0,0856794634243742
0,0835023926577063
0,0845759250245437
0,0834124020272235
0,0874445065333452
0,0838127844999505
0,0850091765303145
0,0838770593864626
0,0842710045151741
0,0842549455564252
0,0843701202291369
0,08240369614672
0,083168980414923
0,0824474595399201
0,0863106625081768
0,0833176676183568
0,0825048762906977
0,0831135731978691
0,0855503561749438
0,0832382490278076
0,0835150060129106
0,0831841240382432
0,0843606219545949
0,0816707898270852
0,0829616952751472
0,0808459875550913
0,0843367639192515
0,0808156180278593
0,081872285255673
0,0799906854374204
0,0804023193716246
0,0828962631288026
0,0832921951898963
0,0800182505145057
0,0815346713155375
0,0802151719506142
0,0805425815084254
0,0803907362195466
0,0800200137237868
0,0785460801547845
0,0825106690639529
0,0810386368211397
0,0807985813468405
0,0774844359001413
0,0803830297392124
0,0789818007361212
0,0805401297493048
0,080429819700635
0,0799423533327695
0,0793238298212653
0,079274232659612
0,0801803879545628
0,0779879284396083
0,0794085041808224
0,0811359980285892
0,0777634521923668
0,0806549021968099
0,0782537710244217
0,0812319243491164
0,0779582005436756
0,0761359735610871
0,0769185121201362
0,0811641404020769
0,0765323961829423
0,0801537379885179
0,0804378903001777
0,0778747556091035
0,0758971172117324
0,0788963891847706
0,0790009318711893
0,079097769664364
0,076186045675346
0,0770881037036159
0,0806878360198308
0,0796351044181202
0,0762509900315863
0,0793462084527621
0,0783399744033477
0,0765687438629597
0,0766909598033752
0,078417873544104
0,0775997862998583
0,0779418260071983
0,0766164811006846
0,0774177387090784
0,0767073568818324
0,0787490681482645
0,0763395091532384
0,0766180526758683
0,0779327500256578
0,0763247012390148
0,0768371247253397
0,0777522701712404
0,0764542344729676
0,0768575306104826
0,0756290538663993
0,0765040145895009
0,0752621831799298
0,0764979760886539
0,0767867021200875
0,0820045285470885
0,0801998900384602
0,0770683701934498
0,0778972538823072
0,07800869545841
0,0766376658873571
0,0773444043233965
0,0739586934099695
0,0748951721316879
0,0770649183970009
0,0750585604915463
0,0758367501839747
0,0762103057679315
0,0770809147395158
0,0762811929865534
0,0726875774441039
0,0750659720293027
0,0754863308629693
0,0768572176400988
0,0764227104981021
0,0757513289196479
0,0768169552759801
0,0768738448441613
0,0769475469205497
0,0751892084244657
0,0773696686580437
0,0825986096170545
0,0735294405548238
0,0772783949149001
0,0735306557882301
0,0723633235092803
0,0728817142520529
0,0753229292849666
0,0733389196953837
0,0741734719869705
0,0750852444556823
0,0742821577971088
0,070971326111325
0,0716409012413966
0,0704467073202642
0,0738723123352991
0,073541561825149
0,0728180280960864
0,0704207872739413
0,0711917065795159
0,0731105501351823
0,0714103037455353
0,0712367262275962
0,0723573435693196
0,070288922969753
0,074039434982285
0,0750657315399512
0,0833056512366856
0,0709859486709446
0,0690915015663319
0,0684504961038676
0,0675862335286323
0,0683566409197289
0,0707123520693773
0,0679095234592355
0,0686446719968381
0,0690237350892027
0,0693493271812084
0,0669267269749445
0,0691009887880116
0,0666714326673543
0,0678081951919337
0,0676937896830803
0,0677352332028636
0,0681341561852563
0,0673277723709396
0,0661140778004136
0,0673114352401519
0,0656192011914995
0,0671298767083366
0,0660875537994739
0,0663126247783889
0,0661443321472978
0,0800127496180564
0,0828536252505302
0,0663115768740864
0,0690401444038905
0,0709303099275322
0,0690606444175446
0,0666633735909087
0,0678176775820425
0,0660430399316876
0,0673963467982497
0,0669013381663919
0,0666740463877161
0,0656639681785598
0,0628206008073112
0,0630365357266166
0,0647759882147422
0,0635492387455744
0,0661808816266675
0,0662568430192114
0,0653382199369077
0,0652537189406729
0,0642242600289888
0,0642457371312178
0,0646590241343993
0,064958937478022
0,0634850419622011
0,0651891814778258
0,0764631566083018
0,0748211928131703
0,069563047597123
0,0663786502740793
0,0642021932469857
0,0656578720827785
0,0651371219515394
0,063424481225315
0,0646181298984544
0,0625621657141368
0,0621329332207298
0,0651874102238117
0,0646480322415981
0,0642984753419936
0,0631750892227319
0,0628991789663086
0,0635950520205596
0,0611157961347062
0,0611853002959988
0,0642092036664107
0,0617286066911208
0,0599554286069187
0,0645018428488403
0,0693514096473448
0,0662286912113925
0,0614253349236015
0,0761683615055838
0,0903080418019824
0,0676218176540745
0,0686266937111502
0,0631633694735401
0,062098380943241
0,0618911935201103
0,0632907927412694
0,0610346258798325
0,0607878619975958
0,0615165007733687
0,0654188321019831
0,0605653484106626
0,0620001884047341
0,0650150980500156
0,0614414353802836
0,0605428145358465
0,0631716729188612
0,0592836257763073
0,0624748980122743
0,0618578453807381
0,0714408770922713
0,0860401414723274
0,0732507219440816
0,0629750437665144
0,0627821901768569
0,067062409725223
0,0941887101811997
0,0716315440823131
0,0599849351998814
0,0655325839523035
0,0631081908028972
0,0609263574472362
0,0602998051321499
0,0608480381732111
0,0667211715760973
0,0718877861279465
0,0666713052058853
0,06897370227129
0,06485597018039
0,0600802354544614
0,0628964669286858
0,0634441404564606
0,0599954562932252
0,0619176887638478
0,0624004201464365
0,0609248774387844
0,0620328800614377
0,0602862364471855
0,0604040646131305
0,0612930503485884
0,0696534780372185
0,072589314407132
0,0594011459608671
0,0620612520396112
0,0597129941279481
0,0586800578097694
0,0795393884510598
0,0854677820612816
0,0605520758296352
0,0632125175293503
0,0608700195610689
0,0637036903598299
0,062143372484275
0,0588481964858954
0,0610724966475267
0,0605126139363224
0,0622234648965071
0,0635910235151537
0,0611292164760107
0,0600233326109618
0,060791571268258
0,0604962487257072
0,0599278194817357
0,0615918032785663
0,0617271673578717
0,0609403372386582
0,0634149392339843
0,0705260979609047
0,0964055484110298
0,0970468744417449
0,0841678090379665
0,0826114548010372
0,0696902924894368
0,0665153174781507
0,0619563917762701
0,0604936295770108
0,0644072150749046
0,0680330664299759
0,0640032298318106
0,0635094182940056
0,0656648138685213
0,0640933534544043
0,0594751835274144
0,0594060758938395
0,0616344677669953
0,0601745067309083
0,0602686103514547
0,0615775235209889
0,0625678938768525
0,0600617133907745
0,0627091308616672
0,0764849183308956
0,0767214955992318
0,0645877709845853
0,0733996657977354
0,106741306398514
0,0962761344132577
0,0744050963257746
0,0724689948726771
0,0645108138204129
0,0634300105015306
0,0624726504506145
0,0687058706144367
0,0742522448130687
0,0633264551756767
0,0605181495596032
0,0635220389885161
0,0684967099951971
0,06485686424342
0,0643548520346461
0,0909285364688714
0,116032534336936
0,0855058276433562
0,0678314522027662
0,062936435560919
0,0851879248590468
0,102923500449031
0,0721114299683229
0,0671729344024758
0,0714784272522698
0,0646978115976978
0,0643135712965271
0,0606775575905117
0,0671447049378169
0,0766364515660087
0,068432682930548
0,0653403880576796
0,0637424920589394
0,064851724707968
0,0736612593931065
0,0751484446034666
0,0856846367506363
0,0809515831621491
0,0685707806275734
0,0748759610499944
0,0743793085363088
0,0666781445546553
0,0692704870089918
0,0662047470153901
0,0696973955623618
0,0881510717790381
0,0891648020449989
0,0860174190377776
0,0965602181407009
0,0836031820534515
0,0707311512254605
0,0764499921155073
0,091143200209575
0,079039988481533
0,0715010280307178
0,0996382130011777
0,110936225128491
0,108835941523753
0,0938779694467954
0,080959939537424
0,0691455178254681
0,0752959873059243
0,0652565177657159
0,0807086135529909
0,093298917464509
0,0824161397761175
0,068607068355561
0,0739444084719968
0,0843221178819657
0,0929500966966611
0,0812815131806831
0,0777405589884007
0,0686072524703037
0,0758819024974325
0,0972478696416014
0,0800337864847766
0,0871262448751647
0,124074739495539
0,12514929503266
0,111191595583633
0,0805191647367283
0,0948326791128779
0,116887645214101
0,0898668659116513
0,0756027833358734
0,0772811326537693
0,0779094659205911
0,0729489152681729
0,0956824298577926
0,125308990497425
0,0885249010345259
0,0804319306455964
0,0841474796056466
0,0934634388289255
0,113216252433337
0,0966470213229852
0,0762760670689297
0,0843269290097072
0,0794370296378305
0,0998882172152555
0,139685683216768
0,114566181617041
0,121109029162083
0,131261056946604
0,123666651290722
0,110959518775614
0,105102123474669
0,0958862780997587
0,124765680243433
0,121709725752885
0,0965185229576564
0,0881617769154113
0,12975938990509
0,115679223077832
0,105752099235617
0,0974585205783365
0,0992816295614697
0,10430316577895
0,176094370973753
0,18932128274423
0,145670856445644
0,107560865204138
0,123176278870886
0,14079352252555
0,118702009825048
0,101974689467371
0,104849290022026
0,105178429958837
0,101508222769522
0,112109160350237
0,120930780035192
0,11103403025806
0,114772380884768
0,10592343058292
0,123906562320425
0,161795317705461
0,217139371291113
0,154744481967553
0,160383892035752
0,157996160170112
0,158025976077013
0,136014316048679
0,126402176426517
0,122998887786313
0,133347606301172
0,133875617473394
0,126621123583745
0,140844401975433
0,164791471311984
0,15279981209117
0,180077821563217
0,155936663879085
0,153873102517984
0,139289135140156
0,220789903209057
0,29297265421124
0,20819528822145
0,167745914196491
0,177474552053342
0,223054915028659
0,240412224097117
0,192717755409258
0,17147574677844
0,17246780602528
0,172594370101131
0,189272929083869
0,20176104744453
0,20894180555742
0,218730092636842
0,199091506895579
0,213593118643481
0,258097391021089
0,353943353223345
0,312642543051465
0,241579877667557
0,239217351892275
0,27299892998105
0,268404405170931
0,246249886259481
0,249893839962475
0,246280297004322
0,300513192802626
0,310151545002946
0,296105642423449
0,264626011385682
0,310056478310005
0,306956522987995
0,32405920659669
0,35573866968224
0,35750993860271
0,324457242176122
0,306684856532722
0,320504561699945
0,316099458080341
0,34575331353066
0,365807742338991
0,368308321443908
0,354696696336225
0,353196811534979
0,35230226577704
0,356226907468579
0,366966391045409
0,36525112323338
0,389583880428136
0,437518213462506
0,517218821870452
0,590152909575906
0,423225710638167
0,394735421303629
0,376691796967795
0,414804129028343
0,429217866182147
0,446843373063293
0,467148643231575
0,424186800447759
0,391294891201792
0,389012856400069
0,396767349341567
0,390310171689599
0,40232211600809
0,38718446825363
0,404163752532555
0,428532221594234
0,41486917199836
0,499613671579319
0,465159760240329
0,416101432627966
0,387413675381501
0,400588250181358
0,381256308996922
0,404566575237011
0,386503205048842
0,422879667728384
0,404941265711371
0,411152943049618
0,380862908998667
0,396726212548104
0,429227132894707
0,424519547099201
0,388359711222902
0,382738821179906
0,376508240439365
0,376732514459588
0,364692694410748
0,43041072288386
0,417382075260493
0,391060012417756
0,358382961848844
0,36983699633471
0,357078437177024
0,36576165188958
0,359673356707185
0,387411445262886
0,35745946810381
0,369308314928059
0,357339275247057
0,364600444753509
0,351050487589049
0,358024967910744
0,362899918526482
0,358054469833637
0,352842989470576
0,357227426668297
0,346602887367481
0,352689198798628
0,344762271393814
0,353601886470362
0,349684443811387
0,359785103999582
0,352243805678428
0,352429295215733
0,347165699011872
0,34873315843454
0,351007335053649
0,349857737238024
0,344929979060929
0,348035492661275
0,34009314831017
0,345425615680883
0,342853583836702
0,343623383174447
0,344249886458854
0,342052088181564
0,342949012984539
0,33329769127862
0,343150505050594
0,335457493587088
0,361655584952098
0,42972052831087
0,363258511372176
0,343815178595799
0,319528460796092
0,344165652111488
0,312331404698008
0,339073399022065
0,390119419073357
0,364258010577333
0,317541617574438
0,307440496768394
0,310313858986664
0,347051911520778
0,309555152932274
0,315821455832503
0,292379215672219
0,320844350659277
0,371417279885126
0,404465069642158
0,514827556148907
0,40240085815441
0,331765210648249
0,287678717060019
0,352871472867275
0,322083942858589
0,304232086863483
0,269418626388683
0,285029526932417
0,337865918195513
0,296801857630182
0,287804849749367
0,26477586865118
0,279478409185183
0,318088247074454
0,321138593753558
0,307752191798964
0,340941642603693
0,313827135653943
0,33109375322335
0,3720204274003
0,412513686542341
0,303586786720621
0,262982790674424
0,262067775627944
0,255056115672537
0,310296913767202
0,313191330957278
0,28190863598489
0,277255932660586
0,237888404557244
0,251832363118602
0,253855342283735
0,297080248839897
0,241318901027168
0,300816440810716
0,276215068522598
0,2610999593579
0,262842364161498
0,293726211879227
0,326470531905979
0,324210426386813
0,254555003479683
0,232306646429345
0,316341245006389
0,285729425604807
0,272894779275326
0,254226942553165
0,21751963020153
0,26028611662452
0,241909170540695
0,237565854667904
0,264381774532737
0,267537752720559
0,31107342368203
0,328079865578666
0,384160378371167
0,303709058426937
0,230087140477914
0,217772649268387
0,210180804824862
0,232930156236783
0,209078650183742
0,219831726694503
0,272182424648212
0,218945951831394
0,258370325592192
0,255467846446161
0,236924410670131
0,22345323034108
0,220944135019042
0,218322833384279
0,243661390393649
0,288384966238545
0,311646972585332
0,255008617002546
0,276813756216789
0,259604541139324
0,262011796904798
0,239919019350869
0,250478231233031
0,242751229799663
0,263901664821364
0,27128462523944
0,268140434337729
0,2686392046545
0,279162218781845
0,267996520388586
0,350267997812804
0,295452522588532
0,319480228495946
0,329571105828808
0,373188885252549
0,393015119435838
0,336471304780001
0,329723712292201
0,320437034028519
0,333197980961467
0,334705589958068
0,331600087897412
0,388371397424808
0,3736358986683
0,36417044691297
0,351182291195621
0,364579592812747
0,360247238930991
0,388963758109832
0,435808692997029
0,432545523690908
0,517839170811102
0,432546255620141
0,44505399345715
0,388643837614697
0,395309197074752
0,396672297717949
0,399890460336686
0,396026672249452
0,383987314692902
0,420480666270853
0,440028924313171
0,408271277576041
0,409915049130454
0,400143311517377
0,406745768164821
0,404482198198021
0,41150361430361
0,413712981787559
0,418620212413363
0,423720262343167
0,421127063063137
0,463308522349986
0,521811520712231
0,461862314950456
0,447317117384706
0,44676957250811
0,46834367468574
0,43662705471893
0,463936984692285
0,489151736776202
0,479140112692394
0,46771405868908
0,463828878830005
0,471077532633126
0,4673804724081
0,511488194457813
0,502516008973929
0,485306866191613
0,496643152895346
0,471697840284821
0,583172909692648
0,522255148177648
0,551075169634911
0,516447942530725
0,52237045766669
0,496094560123407
0,507164995983798
0,495902704664834
0,521765179885331
0,510637722320398
0,514741945429044
0,508973411664232
0,506537540699328
0,508117953730627
0,500176772130423
0,518331606098036
0,548049418084395
0,508248646621998
0,513578647928767
0,50708942572785
0,509355561479466
0,499939820930088
0,547272119632967
0,530091852754941
0,530399789162845
0,505319367640209
0,542725416922102
0,54910341647557
0,531405918461613
0,506306381347357
0,506116663404517
0,502494789222193
0,518626125822815
0,490628139107741
0,542728399007519
0,545176387467945
0,543212551281334
0,514310757753173
0,524147971103843
0,517148276033407
0,52950057998242
0,514330077572322
0,540153243797625
0,528823436898872
0,543614959948128
0,542565391986885
0,536801302039356
0,531502341384914
0,55989004549139
0,582163165357242
0,560558332113862
0,529526945805418
0,541264524481254
0,5242315114981
0,553745637469035
0,534447425758277
0,537405367200417
0,512986762302719
0,530651244277688
0,501989497435228
0,542449659261482
0,554309877550943
0,534245941198391
0,536981042412902
0,500057069030158
0,493758145710943
0,488419301084879
0,488688696723038
0,483405975660348
0,483329098923017
0,483728970760022
0,475630164112046
0,478235258912428
0,474243039540074
0,472665295823379
0,470249560934125
0,470097600032236
0,460777915734468
0,464912223232825
0,456309591729149
0,468032137004459
0,459737954123668
0,469016079244512
0,458500355999591
0,46212746996708
0,48787193940824
0,491355673303652
0,497271927103271
0,465921758616438
0,481602392323318
0,463923807618207
0,460479000994893
0,4578883199548
0,457228083659955
0,455591908475882
0,453516000487625
0,452988618764773
0,456785742614737
0,45542198033119
0,452996374752954
0,457484207196775
0,449380449359081
0,459445293645872
0,452041266243106
0,456953245648344
0,45402545934117
0,461641862791214
0,457596951499356
0,469907757766224
0,453675534643858
0,47062086638579
0,456799865840258
0,461442206146868
0,463297861129075
0,465046318385962
0,46459031579499
0,455189377705671
0,453933640665949
0,452741892779896
0,456212111268678
0,45824288132818
0,455955539010767
0,45654432361607
0,452159589640887
0,451933910996255
0,446953487256765
0,449654272178101
0,445480197505113
0,443409499813006
0,431275408739319
0,433245851794482
0,431331829101055
0,435046862933748
0,42146849152627
0,419545796246305
0,417085322074316
0,413863939167729
0,409302391117509
0,412198966880161
0,40574056618674
0,40787706734108
0,402444567056292
0,404952717544026
0,398906561620068
0,397546784327231
0,39232068242847
0,393165260394461
0,392749307481976
0,392130737881332
0,388976579408778
0,391474841760687
0,388095695429025
0,394009533356227
0,390559785661563
0,391324470989659
0,389340528075574
0,397163986901712
0,393486401174843
0,402032718686639
0,397408091856645
0,403133328293819
0,398275898174704
0,400125989420681
0,402915611420333
0,406262713977042
0,406959487402328
0,410853629885563
0,409362912627277
0,410813248047034
0,408412998177997
0,41182224649613
0,415654748646681
0,413633596500206
0,416126521132064
0,416239725822447
0,417807489266007
0,411469467254455
0,413936361364809
0,416999892343141
0,411853683760426
0,415308690877216
0,410069042510128
0,41231951640726
0,408928396593302
0,409286020393965
0,40748117342949
0,407956215749538
0,404549211941797
0,40785098939303
0,400983764642217
0,403074995566128
0,40049014193826
0,399729177803407
0,395888749607427
0,398148765397081
0,394932338500614
0,395272202975877
0,394697716890012
0,390597847095026
0,390571667457616
0,393263542024677
0,38675241614216
0,3858978917988
0,383018576404841
0,386313908689486
0,381881422878457
0,382305738567974
0,380771553872111
0,380409851028576
0,378906153785208
0,378110908454056
0,3773842758123
0,379246566825822
0,374940067653309
0,374830177007359
0,370754420080885
0,367829789141881
0,365525851119756
0,363797789728629
0,361701517948122
0,36185170366004
0,359028264929073
0,355676800310387
0,350879292270791
0,351757939227197
0,347499387125759
0,347936367323034
0,341869936374529
0,34221745538073
0,337498581673131
0,337727024822853
0,336265859736445
0,335415854154558
0,330898765381345
0,335609705633111
0,329595027981672
0,332421870955873
0,328040315934644
0,330541903552841
0,326696425144583
0,32295280599938
0,319818169471185
0,32042990267487
0,314908977567408
0,31196782416868
0,308938259955459
0,304014193986953
0,297406891977234
0,29878267763905
0,294450684325832
0,294910615139471
0,292201020771387
0,293727975234934
0,291471217567061
0,298588601164079
0,30237135271549
0,306582170065593
0,314383455214408
0,320170197265001
0,330909710615327
0,33925824789708
0,353732090377384
0,368681667372251
0,38071227352787
0,394293146147964
0,405609305634074
0,420065489042495
0,435151826507803
0,450518194874611
0,464465757274697
0,481028957688029
0,487916272733326
0,50853618706877
0,521929785979909
0,535160573116936
0,544932918179988
0,560610395794417
0,571061499563354
0,578641754829851
0,592015000337213
0,599383672444622
0,605774833321624
0,621931187999835
0,626564906598534
0,631829763679072
0,638497442795035
0,646918217127257
0,65021726298371
0,657418252255201
0,655442314146241
0,658147564151263
0,659177351423569
0,66616376370286
0,662350560504599
0,668232996476848
0,664188694404496
0,667174730162603
0,674320322219683
0,666164316159467
0,671179552361973
0,676690127088411
0,671735067954588
0,679879257191969
0,682665288798558
0,687433984309734
0,689039253233587
0,691644701823261
0,699854944296282
0,706132287013467
0,705643950973629
0,717821810188543
0,725827239823245
0,73010805769691
0,728235189351855
0,749077175922546
0,753989667231855
0,756717374523696
0,776681064942614
0,788500153424486
0,795154131882259
0,809570526415373
0,807108898279082
0,815886785871739
0,83027192904788
0,835441308037599
0,844810191923611
0,851576772242234
0,848066843274633
0,849454969610617
0,854346738035883
0,859548684086642
0,848366767412615
0,862860433050057
0,854497949580126
0,849740968753151
0,843083389145695
0,844146652864957
0,83724818664116
0,844639743555587
0,844651025818262
0,854159402553204
0,864690275832351
0,869895251209863
0,879461616645785
0,901472895405251
0,905629768585971
0,936550680233435
0,933788290940315
0,945854062936022
0,955969568134313
0,967216919764559
0,987784772798374
1,01188333955964
1,02430262376231
1,02970059830071
1,04659217805652
1,06012840155755
1,06994266756171
1,09989319432666
1,12205852329103
1,12875350034426
1,15363510609817
1,18545176747744
1,17815787488485
1,20133035857685
1,2358349136826
1,25065521081082
1,28538403128665
1,28247510624854
1,28303160032834
1,3193468751184
1,34857178507592
1,35279300443429
1,4002664011925
1,38444848507567
1,3945976090178
1,40669603295135
1,42930554468593
1,42264793325335
1,44348716215202
1,42077857050536
1,47013662678922
1,41431511853201
1,4192283860552
1,44285647765411
1,50650942903673
1,41802989374449
1,45202364792252
1,41237361263276
1,44687962893811
1,43953159627464
1,44070128829963
1,47267057643423
1,43581351602756
1,41948829841288
1,45962142744272
1,50617949311283
1,48009359590471
1,49882051867843
1,5493158139948
1,55084202059365
1,53872607526888
1,60293463880271
1,56880564714098
1,5950774996346
1,63248473249059
1,64767249007153
1,62343978543662
1,71192012865237
1,66716211611637
1,63926605746541
1,70436108198456
1,69075423913281
1,71406047873136
1,70511159737244
1,73456091425146
1,71112072170331
1,77674787463202
1,70049301500992
1,76260922899469
1,7638072222571
1,79831576890915
1,62617540893483
1,75787662797173
1,71383255220975
1,80750812169049
1,83181997564076
1,9232159952043
1,76472255319592
1,75957002160702
1,77880953626268
1,85781450609307
1,84951304802213
1,86027202824004
1,70820002073441
1,75415445688392
1,76953211364622
1,7441259432708
1,75646578853031
1,68003005244972
1,65402214851139
1,57183177573176
1,54061701969673
1,55722638917909
1,43174790709589
1,38132953405121
1,34066203488265
1,3100161878032
1,27689181924445
1,24498151008225
1,24390071838427
1,23587344045825
1,21221222520943
1,2035451048673
1,18039674812706
1,17762428967637
1,18007971619921
1,15711755206629
1,13917991042089
1,13353403437941
1,13636369454932
1,12440861517219
1,08477030797542
1,08426789041493
1,05013185244334
1,0577895790133
1,03148130376553
0,997278433735081
0,965289804204583
0,951960665287104
0,930869460014145
0,897055243151836
0,867855255818734
0,8240571961579
0,804204291713514
0,771817854185064
0,73244091862275
0,697730542571552
0,664322786455473
0,641765742513716
0,598860666086265
0,56802798995654
0,543535477119862
0,525722695672056
0,497746134761697
0,48344938890669
0,464445178632465
0,445023727852788
0,432820506323057
0,418025264713463
0,407523798855877
0,401546217819593
0,393173281346214
0,385722685129875
0,376006399743991
0,376932025053563
0,374447699249589
0,361974394033717
0,369952824839593
0,368446443279428
0,361877875871766
0,365431515216513
0,36787896132851
0,368296233964904
0,367704718501524
0,370260004586777
0,369233662832605
0,37620228426778
0,371494605731283
0,372590410519578
0,370709342127467
0,37101176598379
0,368486391879005
0,365557243645772
0,357816391071675
0,357887707802272
0,354715242577996
0,354617377380288
0,349702390851253
0,346926486241377
0,345424606909532
0,343495889276438
0,341781522319608
0,341303513364796
0,339584750951089
0,339822996625968
0,341283512517747
0,343242068819467
0,349517300458096
0,353562241682699
0,359438880840918
0,356301479674958
0,35852121725524
0,364073618683736
0,367821420042696
0,366088525606558
0,364644842617806
0,369856604015209
0,374343131396125
0,379430286103933
0,373000849229788
0,379942441768796
0,380821661352633
0,389070547784463
0,389448690103886
0,378543361519855
0,382249433137488
0,385962256907327
0,383980608284686
0,389773852022627
0,392446333679204
0,393307889100967
0,402004121742309
0,40046334265051
0,413434056994894
0,42660969470084
0,42835891623445
0,445081917379934
0,45124204335673
0,466130057863518
0,479404566693625
0,490117694207354
0,496300943710648
0,511901069351661
0,518463279846284
0,525082198140892
0,521125587617372
0,522475819168611
0,525211640118341
0,519939363303308
0,502541094659633
0,495117180040633
0,491009108319619
0,481600823207328
0,477261598533743
0,471686163508825
0,467480603183917
0,458164806494755
0,45382630640933
0,456078664912974
0,456609432535995
0,464709132272131
0,457933422742327
0,45317821222765
0,460264776873598
0,476467916949935
0,464626965758017
0,460263265287151
0,448652168598345
0,4502497278043
0,442958778147592
0,432749621696829
0,42607501475891
0,425859057526545
0,419800796864715
0,413463211420692
0,40992372067306
0,419228738606596
0,411330832737121
0,404767470669998
0,395613463838537
0,396110560050948
0,390424061780765
0,407172489015246
0,389149376345224
0,389339932033074
0,386906746184571
0,388368517959568
0,371972723393011
0,381357035714189
0,370630754690282
0,37469347804197
0,376782011803553
0,376883555350817
0,368375756034861
0,359470562206126
0,352838916328226
0,360718559032148
0,358259167142228
0,358948886741096
0,362219171688367
0,363768168438763
0,349334979524275
0,351863014707591
0,343033144927544
0,347965794853185
0,34434520274005
0,341073632678377
0,333317032573874
0,335430604615559
0,330464580981651
0,335076739746454
0,324359482180103
0,334256326394029
0,323450845657013
0,336146193499705
0,344685404230633
0,33696288016802
0,344681820764464
0,337085557233054
0,329515424095913
0,341646376449881
0,332314888535498
0,344438710603852
0,342220203326047
0,347906456391942
0,344217609216919
0,343203196113835
0,34756213715757
0,350934778250443
0,342372023707844
0,350916349310088
0,353823668082262
0,359768133321911
0,359091701813018
0,364981709303547
0,362760418525577
0,374120447934808
0,376936541126802
0,377883515232638
0,387131982391821
0,385144033330419
0,386593865128677
0,406636197693131
0,407053995814421
0,414095292207635
0,424080563138521
0,432045652367131
0,452690213043656
0,469048449280038
0,475060915472166
0,501330355884315
0,485928709995797
0,510558234731087
0,514043011924468
0,543299120366029
0,541109205075494
0,578174653988879
0,584521211680414
0,593235587179046
0,595225433207296
0,606872086746812
0,615973426011948
0,639227946074013
0,625136885918827
0,628940429756337
0,637525744375594
0,621392211837436
0,589965528353931
0,606049817232251
0,610337189691765
0,617420414962167
0,595987067448234
0,603967670701117
0,584134097193439
0,581873134492449
0,567650114032072
0,576520332461058
0,582784557177175
0,597115610563086
0,567579327994519
0,586478483228017
0,562451734752483
0,576616209892439
0,557337649620822
0,561379712228999
0,553947937341
0,540255304148565
0,531295482753269
0,553450861276311
0,527367878839079
0,524712460380357
0,518546960015826
0,538352170330753
0,560210524259839
0,538723211544731
0,514921705202076
0,536399647996531
0,526475736682945
0,514315667000198
0,490617712984635
0,539139436264933
0,495779939874343
0,568331202249826
0,526086541316689
0,543103089075235
0,526551191188805
0,552289747699015
0,525565258124923
0,5478444643927
0,539375658666486
0,550346798725996
0,55431585595348
0,530327496539939
0,54112924625127
0,575024713856663
0,523412191353229
0,520870819551854
0,55194849181388
0,582546588029478
0,547203498894646
0,562165386417314
0,547919176186587
0,569215884367146
0,549091910119284
0,572630935397738
0,543839694220182
0,604024026070486
0,602923233248325
0,567122507576932
0,566986999506724
0,625916125531581
0,563175599459978
0,567841309666506
0,614473354992009
0,638010567087734
0,602460253503061
0,650006312198243
0,630787085506068
0,667611286126977
0,667933895537377
0,737639699299803
0,703800459714247
0,680144990460346
0,703299373266538
0,780771797803009
0,791117430979831
0,78723463340216
0,739807085463031
0,83933571937402
0,738258352536671
0,812771626698228
0,75830798721849
0,698371452718234
0,733878018509391
0,775135280627651
0,779629554926833
0,706833866303371
0,738481363436361
0,721072825472785
0,710102560508892
0,722838713600598
0,789400487815606
0,792556715924598
0,770619046241447
0,861815030993034
0,725388640259368
0,665445787138242
0,659814825055823
0,71054732890138
0,564249176125546
0,653974018333958
0,686367880345496
0,676295723250421
0,564070568462575
0,755609995655284
0,720563786827108
0,750297039876114
0,680449804348021
0,799508084461682
0,715914311790132
0,84847241707264
0,913272439834007
0,734603680175618
0,733821791059325
0,771997294323879
0,538256063092183
0,514346015387396
0,807429737639716
0,766484393266039
0,675781881439134
0,63638634010308
0,797602246872077
0,950667124369484
0,864571977269536
0,631638417959581
0,558702387616874
5
0,785422735600008
0,679908475211597
0,635810435098281
0,943175861027616
0,91647337528309
0,8917591325876
0,675610125500366
0,753923580972594
0,581577570082989
