3596
4000,36533379555
650,420452594757
1
2
2
0,0431341893021652
0,0312912554745809
0,0411725647228588
0,0335989331415816
0,0358610859814017
0,0333275447983531
0,0469698491662376
0,0250609280353284
0,0430163749566838
0,0325023015133386
0,0429060494818421
0,0274958644665654
0,0401295900965443
0,0329469246659951
0,0405609567370728
0,0305234475752993
0,0364714025833376
0,0227757669783276
0,040237606686339
0,0283535878487521
0,043360921596262
0,0257182237529871
0,0417516130835577
0,0296296987075279
0,0360922264115827
0,0358033878031737
0,0431177040286459
0,0330212058872928
0,0463869378848806
0,0294102936894062
0,0343420877495609
0,031368480422272
0,0403502186083112
0,0360695589086321
0,042867232604564
0,0273039660522374
0,0409247722160823
0,0355942081959726
0,0425718744373925
0,0270434723704948
0,0433827110064698
0,0257256981427846
0,0442111621340258
0,030053198456965
0,0401912255733568
0,0276380299050499
0,0364343388579692
0,0280796932960849
0,0405523848713297
0,0256095843387687
0,0427624982420717
0,0269216715306514
0,0497538624616181
0,0376572927153362
0,0376208276185733
0,0306034463832387
0,0503011063349417
0,0246089029769929
0,0388755315440965
0,0220125699417831
0,0441953534968456
0,0458580883050453
0,0420324051569897
0,0334375529976348
0,0332947324610268
0,0370395245216011
0,0440246516684727
0,0340046612368671
0,0393872502080795
0,0320829097791494
0,0394000950161213
0,0285152343892192
0,0483043022469291
0,0305163072392273
0,0443759280057913
0,032788603367421
0,0341331599390379
0,0333022517525401
0,0278070359302214
0,0258689647626717
0,0479602990403254
0,0305966438101252
0,0378275880882406
0,0263938725055207
0,0270301362706503
0,0402535116525442
0,0386696657514628
0,0175894578617896
0,0552589606300932
0,0271485561094541
0,0405546261974728
0,0334514426033588
0,0421955596423593
0,0270011018874414
0,0368011187684004
0,0336091973955546
0,0403875915651174
0,0318778876038261
0,0343975807051587
0,0351312902883422
0,0336959479306659
0,0133757901808544
0,07446680408098
0,0233857073286373
0,0652081224372545
0,0355512808053216
0,0186674900273577
0,0504433555961458
0,0536557118431221
0,033862468780254
0,0331624515658019
0,0291428938344508
0,0409786183836486
0,0357816449299603
0,0254731753464288
0,0341901228658698
0,0626570030319187
0,0287349204631488
0,0355969519707501
0,0318731639752045
0,0213747084477164
0,0290105482973141
0,0749607692257232
0,0347748092856212
0,0504147680455912
0,0262594789917337
0,0278511963750224
0,0320660817492537
0,0589661968410655
0,0350087113724507
0,0440619110648231
0,0299370898168355
0,0290657296145239
0,0156235024469799
0,0609037994601386
0,0445951109587393
0,0382746526099835
0,0180856031658231
0,0352825566888243
0,0566702403460099
0,0459366694562546
0,0293178181304607
0,0270840418192008
0,00763722738603962
0,0613386861239669
0,0408443859274934
0,0302280106671057
0,0368090808956582
0,0531026026942389
0,0324028343152864
0,0432066633484501
0,0248031321055135
0,04956481561758
0,0291635882548298
0,00547558165239867
0,0111346092127103
0,0820461267187787
0,0198899491051041
0,0767624048822218
0,0378269205594125
0,0488578257563269
0,0297558988764032
0,0353461274336066
0,0312589616095469
0,0407289815710832
0,0160775600142731
0,0438549687903052
0,0573152991566233
0,0345513391998474
0,0175783249865762
0,0600191269572141
0,0386360695759613
0,0170341470564475
0,0563205250443171
0,0559875842076005
0,0103292269568214
0,064873302084994
0,0464671594683848
0,028783642955993
0,0205067334596647
0,0567561993446178
0,0360074375068031
0,0401528515787542
0,0184470872838181
0,0385002210093263
0,0364947045814241
0,0432215923816616
0,0303768503542309
0,0464309754529407
0,0161793669489913
0,0409383831253128
0,0549639624989243
0,0642236393479654
0,0404704978064591
0,042612340274102
0,00373531715978419
0,0544035066063147
0,05942338087333
0,0470125201617943
0,0310319615444641
0,0367906361950899
0,0333620733057116
0,0439272367555872
0,0295437351248962
0,0292097531629
0,00784519824493328
0,0661507536501562
0,0566422447521983
0,0386838686006394
0,0243001573026366
0,038078779670247
0,0124087208951161
0,0670452525510251
0,0488726602663596
0,047490898245874
0,0300603011505397
0,0282720486103864
0,0258665450306022
0,0591716500124016
0,0358727871152161
0,0420046063751517
0,0304909920256242
0,0421553722862756
0,0277404507187352
0,0384891829966584
0,0352341977556635
0,0481174898887578
0,0305002774869481
0,040002593440099
0,0312104648981464
0,0436813975218397
0,0351154575710403
0,0442937997885211
0,0370402626142197
0,0314954024007383
0,0286436596527555
0,06022799512939
0,0377777564907196
0,0427469136691012
0,0345204847490546
0,0469354264240801
0,0375457759814924
0,0454835725660373
0,0360898841470429
0,0408743549396291
0,0232917982163085
0,0631762894376626
0,0441178545800485
0,0441822723338208
0,0222626270667871
0,0514995771446502
0,0398340587072547
0,0434807339917699
0,0412937387138786
0,0494420270640052
0,0268160436016459
0,037405835412906
0,05088814446805
0,0518949615037485
0,0261439571204176
0,057228559221043
0,0386758256134225
0,0454756988236245
0,0231250991528301
0,0131939960543751
0,0692213347539883
0,0507806687429091
0,00584172203527695
0,0822347114741657
0,0500945956996948
0,0595621464725048
0,0282356275903623
-0,000296919028425494
0,081652069264631
0,0918593154537914
0,0394287916763436
0,0475905738568104
0,0516985421985735
0,0534311881339109
0,0379779018499003
0,0417336537164378
0,0289627309649656
0,0424195301170145
0,0609024435295842
0,0946220120479323
0,0179078629837535
0,0544146314464817
0,0646267978038037
0,0572044091138659
0,0432513724796758
0,049456774790121
0,0338277219113632
0,0605480820783895
0,0509537124539662
0,0669934136070151
0,0479372641364039
0,0464437319946314
0,0680222117337668
0,0648715453361512
0,0368978062587023
0,0541918395212755
0,0585950913797625
0,0536062480219357
0,0481666375777754
0,04953394132985
0,0461444176127358
0,049201795304398
0,0290996888493262
0,09577541017815
0,0604789543132881
0,0548533282346099
0,0694040349184328
0,0639981561410713
0,0561162494172357
0,0616621873704864
0,0555841590705635
0,0620985609706275
0,0542027217534824
0,0479852653585112
0,0636309229762747
0,0680396200597168
0,0573588842024205
0,0706740023001745
0,0540999791432098
0,0637292684829322
0,0614540756270471
0,0699143265230736
0,0614430828788829
0,0696303346347231
0,05498667374158
0,0875758659370304
0,083722325826117
0,0498853818092888
0,0698240166446188
0,111716550033396
0,0833305727443934
0,077039357867544
0,072140255303058
0,0876215640586907
0,0766122558555986
0,0930484003751716
0,0854723301130151
0,0836550584047056
0,0943340796585307
0,105108128608478
0,0772788213170677
0,0822708257225927
0,107951723384634
0,151977659875802
0,115561768614715
0,116949710695723
0,0827279705700715
0,132752043801289
0,129184507270456
0,130812196590089
0,130349450935724
0,131572455745754
0,127151642768201
0,130156971916232
0,128474226637767
0,13742259378972
0,133871696871353
0,147597338086985
0,141677149099507
0,144521081562543
0,148161908858189
0,154159713887247
0,14972132467228
0,190943707463077
0,167615392302314
0,172942473351745
0,167522130499713
0,168653565602165
0,172414642478959
0,18643623234194
0,198474398746424
0,192387363777563
0,191518746889371
0,235680383634971
0,195913101146102
0,208056715425572
0,193616069835684
0,21163937946802
0,205321009815919
0,222876562277746
0,215481233272175
0,227817995718075
0,222615374767
0,237757779300969
0,223690598788661
0,241332719823966
0,224895674420624
0,256121687862549
0,246452195301959
0,260347406788415
0,247396384017131
0,263371936692464
0,275189224088726
0,309363520307361
0,274418584938798
0,282795541433264
0,261270468226444
0,286385916178191
0,280794285736437
0,290280249889875
0,276823917781108
0,293371764901112
0,312918532705887
0,331354534870152
0,311506449033232
0,324323294107163
0,297919277604606
0,348488699250664
0,318175691624158
0,326888163960124
0,334484056650273
0,35164976818587
0,30728760772801
0,34919081593626
0,343076878719604
0,361917244624834
0,351909064928384
0,34614027811352
0,342979195835288
0,371563685283572
0,362859838011286
0,375390109746104
0,365456213788847
0,386837772963967
0,365738190338382
0,405087547444994
0,386174345506412
0,407002911456512
0,405141431783131
0,413495464036762
0,405206877208211
0,435106282616182
0,402439879972884
0,423935875071628
0,398498771990847
0,441251803482908
0,434505199935016
0,442529545209487
0,416266258648839
0,43364112172299
0,432691833307021
0,460782909002354
0,442485927868155
0,460070631959495
0,464133819780936
0,493382923211515
0,450820554520992
0,489864440672383
0,476140307588892
0,49783974188069
0,480414631637623
0,494033247045482
0,483463818509958
0,514716026996379
0,492766805880963
0,514270936667024
0,484163816428607
0,519600989686093
0,537599365038687
0,582645841479838
0,54609865632156
0,538944812616776
0,510944978621125
0,557589412773277
0,539770979557209
0,566743520835866
0,545927353049309
0,565866290770093
0,580243478207217
0,58229676040402
0,571809874680815
0,582995970960911
0,570565033096204
0,60293432128724
0,574914163929779
0,603132354109464
0,594973406804317
0,617163610999506
0,590575283827587
0,620780093927409
0,605506363013709
0,631266168788374
0,592580944012753
0,640591195332873
0,622903502045217
0,651114904872449
0,624747045708955
0,678433159949219
0,644488638810678
0,677853002699323
0,649096600490274
0,702003026784852
0,674128191391214
0,714568357356201
0,673129302576682
0,710045708228474
0,651517624619113
0,698025519710336
0,673786256189866
0,750302709346219
0,673831744048743
0,704133506020809
0,699529156299571
0,713044597176433
0,688559590383929
0,753246416449723
0,727207307169266
0,779522436669586
0,723461791933737
0,778284912966552
0,740723698850474
0,753578029809968
0,75206869713193
0,777020635972815
0,75711616586773
0,762698974006363
0,735766235113051
0,799667253223611
0,750999464960935
0,806126441403465
0,769698945869812
0,824917102239592
0,778556292419326
0,819459065617647
0,791642995845059
0,856204008144806
0,794209131195323
0,806090967667018
0,780958506531327
0,855882614767943
0,807042937106303
0,852272559246244
0,81274792503288
0,866430938357389
0,842090444329733
0,881576168092827
0,824890867442869
0,912860989167521
0,865695925153478
0,859400134584683
0,867561450722385
0,89924030050318
0,858944801349331
0,903220776372119
0,843048271680686
0,916280294034919
0,851542642827877
0,936350535520442
0,885049439342421
0,974105516892328
0,881973926458933
0,967302001775239
0,873909354869899
1,02209919023153
0,921560324969741
0,966150356695235
0,917266532656994
0,952819858115613
0,892667608068045
0,988850765523048
0,898550053908526
0,967872461261559
0,927326180551414
0,958045873065011
0,963042465629582
1,05723734377169
0,959450942717085
1,00218492090348
0,980332435967229
1,04700999472569
0,965131649921019
1,05126142357816
0,970288972563371
1,08502760195449
0,953559114700404
1,09858961961568
1,03921130819289
1,08394426245898
0,982735059986635
1,08142023308917
1,00065837618438
1,02411899320132
1,02886062699261
1,13512222244475
1,06469919916338
1,08458368024641
1,01448624235054
1,09489808491763
1,04001976850758
1,05661987454641
1,04922500625705
1,14732363236418
1,02131611594112
1,11801554909168
1,06253555060508
1,10758514573933
1,04172310723293
1,10316190624516
1,02889797172646
1,1212275982274
1,01608281822653
1,12972887754358
1,06839831035508
1,14580813868673
1,06716769588615
1,13870688391163
1,12309882071501
1,19018176292052
1,18362701929464
1,24494219319899
1,11031317935598
1,23441227055926
1,13166284442557
1,30915419694206
1,13605838957152
1,26179511757787
1,16599871345283
1,27289287652737
1,0647216220917
1,24470454984942
1,1303146211384
1,20952525784611
1,0740101835099
1,18954422108657
1,10817579755054
1,3082468204599
1,14291727185387
1,24344545166206
1,17616777329023
1,27872357487138
1,22033208445411
1,26089186987877
1,1664320127405
1,26724884997716
1,15839457822554
1,27410671819827
1,19681945146858
1,24488868168697
1,16431869796785
1,33500902087928
1,18201036066174
1,27208729531271
1,2575114022704
1,39408245433644
1,27612514618657
1,30982559027661
1,10670979663171
1,24934688562596
1,29273632075995
1,37099975907105
1,26068645350068
1,4285137378983
1,14569072590765
1,35681781196596
1,32842239888644
1,36395369298557
1,16579303325698
1,26933122945335
1,22218198312332
1,34584480751496
1,30730251116723
1,27794130589584
1,24369101110754
1,30935055593523
1,25804724516578
1,38907149616162
1,20265112128512
1,34728868695497
1,25106619634312
1,24541979932131
1,24447078152509
1,3789710135535
1,23695516845229
1,42350487101877
1,37068483126923
1,43529324489345
1,29454294381769
1,33888132198088
1,27185199795914
1,4569066602604
1,27624115290373
1,46658722511632
1,23843238316455
1,33446774092922
1,24848598833702
1,45240548392524
1,29877354782494
1,32837616381061
1,24849881991185
1,41157330371741
1,19868775705988
1,36684072210967
1,3394050104959
1,35825347320086
1,30069311661361
1,43040799315474
1,22583859015517
1,46700810542386
1,40937327603681
1,34371663676958
1,31950448428857
1,3925744827791
1,30514600452427
1,32406297505375
1,26095031977166
1,30684775649815
1,2603235794778
1,50695827776732
1,28249979423915
1,4931524620732
1,31490754517392
1,3298686050036
1,27399715109473
1,3181112107044
1,24864162699818
1,31188345517524
1,23661008731953
1,37695883988753
1,27953644517492
1,36610662732462
1,30518659770151
1,31897903320251
1,30889349432614
1,44011675902362
1,23446696689711
1,36953285840463
1,32585808986305
1,48297265859024
1,31725530064076
1,42778700619457
1,28920768543856
1,31927154203279
1,24798507883666
1,35098388337776
1,27480716943156
1,32685253949939
1,26052396843902
1,36858272106524
1,31163735239721
1,43537316184306
1,29861203609298
1,36297499228498
1,32533506113132
1,35526211548567
1,2491946248039
1,31021886538916
1,25559829699241
1,35487028815798
1,25300624905125
1,39493561824096
1,32057814375095
1,33366938057984
1,27007505664657
1,32573354571628
1,25478381396242
1,35478667194844
1,32369649187227
1,36416877355308
1,27731918486938
1,36938297977115
1,34015301824665
1,36789781787239
1,30770986766234
1,35849081400119
1,34645633843382
1,46215233552371
1,37374735914797
1,3190750393322
1,2693266265029
1,39448179604307
1,23585692968173
1,45040420639244
1,26400177387286
1,39456280113193
1,26379873505677
1,33491276021688
1,26497564922343
1,34163821566148
1,28298352259168
1,35197010446789
1,23170912237812
1,37423364119863
1,30322005463781
1,37211664551184
1,35433431288994
1,27045680439755
1,28113214405393
1,34826137310586
1,30817881021233
1,31992763181777
1,21950302809709
1,41866381421109
1,27341417869296
1,34711269388029
1,32498669807675
1,36586161371355
1,26585342966317
1,2955424081495
1,27420836381193
1,30043280752619
1,22833571420832
1,3012680091184
1,24648325332403
1,32353973806492
1,26228348918705
1,3778558628296
1,27440674109437
1,33919977603936
1,27385645121196
1,27294944657099
1,3053334450564
1,3185527965399
1,21338435809945
1,27703670329583
1,19539275538493
1,30128387419748
1,27842035455441
1,31420200747551
1,24319071720981
1,23152892779907
1,21601197456218
1,23189540233139
1,19105422569311
1,27514562729238
1,22670750584152
1,27949591912833
1,23679744828704
1,29236121559816
1,24807290716795
1,23694379198281
1,23913024234643
1,25326780846071
1,19828614520948
1,26678974455662
1,22416835399385
1,26085597624353
1,232915771159
1,2267625419005
1,23214375476492
1,25007359912399
1,202802242513
1,27160384584002
1,20597885883465
1,18082352685873
1,1973659859152
1,18762284242678
1,21403151781045
1,2245164074679
1,18679934235823
1,21972125205893
1,11806915612222
1,20350188580828
1,12140405460889
1,24092073028585
1,13941061896008
1,20167983795505
1,16953679269565
1,18382640422157
1,1208980699597
1,19112957041435
1,14614358550748
1,20563632922499
1,14531121735355
1,14856276762349
1,07802784476692
1,16061357156979
1,15898859072958
1,11011857352582
1,0832354714808
1,17788619701209
1,11126357318929
1,13217528005131
1,0908288858767
1,12469726632497
1,09494053375324
1,12354949016751
1,07476163211397
1,11236632734866
1,053793591927
1,07448828356955
1,06726579801275
1,06953737107341
1,03644286585285
1,08500197627081
1,01386888588467
1,06223291627943
1,02628362070771
1,03914813421343
1,00588002796013
1,05746467594244
1,0061523994294
1,04454747447603
1,00776370990589
1,00762725299848
1,00244119030888
1,02718459828268
0,97472285925757
1,00430053196338
0,968138121765855
1,02149885260163
0,947173269346028
0,975024398136101
0,953974978643113
0,99093356841986
0,953315724982123
0,938850815845089
0,94120183986084
0,96102160446833
0,911967862972174
0,95615344844213
0,89918726501727
0,938159817014217
0,906732473822736
0,930142391532919
0,912273726732334
0,91312348180652
0,880492028147925
0,89640687626777
0,890806040939279
0,909573473381028
0,872528913540464
0,89300426997903
0,844987509980486
0,868901715614649
0,85317195814356
0,870465808381112
0,853690242064731
0,863670959302019
0,823125276448249
0,843466176132237
0,839615233774045
0,850230801396242
0,810722838620814
0,826170649682685
0,794411307089572
0,812296649348208
0,805689746615037
0,805373232333581
0,792562533611556
0,777587798522078
0,774504202885759
0,785557742308513
0,756053050372367
0,781760444814158
0,76426569251129
0,782931370888946
0,768465464900061
0,754965841212213
0,736358962635057
0,762389614704855
0,739249064437109
0,743025635814711
0,732880077759618
0,743585314758656
0,728738046835597
0,738257569584876
0,701928141609024
0,729699804005221
0,701300566544441
0,721464862004754
0,676718324306775
0,707118519244228
0,690199697875791
0,701204260922792
0,682076589670839
0,703135088009883
0,676505660281195
0,677247446988615
0,653026727703499
0,659975466654987
0,653267666398697
0,669573225732889
0,641788400388429
0,649554662996776
0,643664029712998
0,650436795943954
0,638860132949719
0,650924768039567
0,635844838918273
0,631753500418668
0,607247555099295
0,624847809358257
0,604220931051987
0,611490203149597
0,614279167680604
0,617255588595211
0,605425196993453
0,614924638605455
0,587712162219095
0,588352780144014
0,576994090007155
0,589587355443374
0,567084496891578
0,588958138179638
0,567922885745248
0,577774861959281
0,569074555984224
0,558869789748109
0,551354992290476
0,569354730203671
0,542923638543719
0,551509026939841
0,538299709267043
0,546541614073031
0,532342696904953
0,541873262174032
0,523923501736777
0,535468400939472
0,518871515261789
0,53331139153045
0,520429944693217
0,522047445627371
0,501581100651862
0,504480501856471
0,502586147145332
0,508811246182928
0,496340021457032
0,499375368522408
0,491482122629492
0,491048385022232
0,482586197584776
0,487813422549958
0,478542357947473
0,487346282316275
0,472267472286828
0,48355751561726
0,470641168008999
0,468392759417446
0,46211987395418
0,464774166707504
0,449125814242193
0,45108253362163
0,447702934356858
0,458371599259327
0,447840765366247
0,447920129513601
0,428224100427811
0,44639696141519
0,429114863944266
0,437641148600814
0,426158600372984
0,431445993259556
0,419768799048532
0,43004140307553
0,409267512093916
0,425166029495554
0,404682880550804
0,414008225028267
0,394766603482832
0,399325852657749
0,397608567690093
0,401901413217038
0,391450449042353
0,403061580547094
0,395578981292982
0,400673760798417
0,384742311269611
0,387843797143756
0,38335701944094
0,390303814520908
0,373530159883187
0,377059795503913
0,373426330764195
0,37154745806696
0,371502624407423
0,370369238212938
0,362776784162887
0,373418311298621
0,359576695526198
0,363630303073237
0,359364423950221
0,367544378443111
0,350108649096379
0,35623073533471
0,349733761024907
0,354615055650856
0,347864953637116
0,354727172273394
0,346197856265985
0,350493832918319
0,340244817150289
0,351608560852493
0,342205220662271
0,345347593865639
0,337612895766293
0,34557701255859
0,335980628891452
0,342746044074629
0,328631189561506
0,339741093343994
0,338645039255982
0,337653688841809
0,33368937913218
0,3405161917485
0,334452177613079
0,339069687387602
0,331019095126977
0,338144983942175
0,329068135982252
0,337666036609321
0,33163165239489
0,335818364789749
0,324177346129568
0,329540287621445
0,328712389396542
0,337276120754706
0,323113878397854
0,332146787089845
0,331146947013548
0,332941343153711
0,323853086685774
0,327440276246603
0,320815931985663
0,329842445699963
0,326560438198582
0,330853513538517
0,328874921255667
0,330620726119162
0,324777972726991
0,334480159654627
0,327037845288725
0,325634301022874
0,319991028404126
0,330777653487623
0,32214451869193
0,332991954052426
0,326340782217774
0,336837055624492
0,322474096808221
0,331025941544775
0,332889708040958
0,331197695370606
0,336003915404291
0,337207659788073
0,328069176234129
0,33803168766729
0,330215170253893
0,335575046035281
0,330401127734896
0,33542842912335
0,32595826933307
0,332416602886759
0,323376420389505
0,332397326172882
0,325757296079318
0,331384292630672
0,330185662919943
0,325826680374004
0,320026040662811
0,332572303671836
0,311436398847699
0,318663217905655
0,313786357309007
0,314766775822671
0,313676587447901
0,316949195770523
0,306591210242718
0,317687925528044
0,308394982739705
0,313608495331012
0,308280200240053
0,315968866904495
0,30547058773358
0,310065895821905
0,302544835146619
0,313290611698729
0,308939462597601
0,30799236659139
0,304367181748044
0,308627823530707
0,302837644505122
0,307405725137597
0,298711923820814
0,303165034672191
0,291409568040302
0,298457274395062
0,29458521812503
0,306124809299714
0,29899486421477
0,296381725797105
0,298941958388001
0,298266612938145
0,297328016013208
0,304131581190182
0,289138084883144
0,29850467889684
0,288876122808526
0,299667231880814
0,293392356168928
0,302455360399305
0,291212109029291
0,290517998295762
0,290950822491437
0,297089022554078
0,286627026900555
0,293853217750157
0,28861315672901
0,286741541030867
0,284953691305244
0,291539697395629
0,282131322340359
0,290009469711038
0,281252597184277
0,28573219152636
0,269400939620734
0,275440741239635
0,272889619543111
0,274918331110706
0,268076375902992
0,272179895478198
0,268551825506612
0,269707179155963
0,262349670168851
0,267247975468426
0,258298521629995
0,263671423409902
0,25519923138074
0,258316091283053
0,250759397622362
0,251670554389646
0,248059620185002
0,252103454241594
0,243655400472399
0,249392684388613
0,239211077628583
0,241153782469073
0,236360530353824
0,237644961698496
0,2313751675459
0,236307148676798
0,225513584288723
0,233920288138476
0,225509875843983
0,222692504634091
0,222157551848735
0,224330780728379
0,219705951285895
0,222934186789423
0,217156567708531
0,220199251748329
0,213939448090381
0,219480624638113
0,211375896595943
0,2171312291283
0,205764513354747
0,213719141904546
0,202742799998874
0,208143441964255
0,202603906866303
0,203100275497711
0,200006373136101
0,202614495153442
0,199634227804031
0,202953173842811
0,195297326503695
0,19922047387849
0,191835882594027
0,194054151311509
0,188881894404277
0,194538707398112
0,190069203532746
0,190403026889059
0,185539561062165
0,186376957362841
0,185973160670604
0,190726078351508
0,185998347014274
0,188840987718898
0,177759922084101
0,18198443906662
0,179336002300698
0,179727563586832
0,18058953327783
0,182190237253729
0,170258093229042
0,175663019646781
0,172113161976974
0,173722376404571
0,172490540940947
0,177264517276463
0,168663943273642
0,174371145517319
0,170248405477346
0,172232172427172
0,167222298986317
0,169351197389876
0,164325789633194
0,167973470144909
0,163739566271685
0,165270418091537
0,159501248598086
0,164979450135783
0,162284711656783
0,163010257596891
0,156161359278219
0,161096603279865
0,15701974360494
0,15873075170928
0,155659709281377
0,159346264374521
0,153686931542276
0,154321445554193
0,148711502647437
0,158354498838682
0,15404560062127
0,154863378854696
0,153059789898586
0,156116326901618
0,147044668692763
0,153801510382375
0,14735010460919
0,149223528304091
0,150808235544542
0,151012041628909
0,146100971404665
0,149949327219603
0,145714045985364
0,149139130495137
0,146308885150577
0,145477804082905
0,143388129951863
0,147570386153446
0,143334007353724
0,145183367912954
0,143207355450424
0,147386716835138
0,139368161973911
0,141642926384525
0,141349653194641
0,144811569525481
0,140635406052362
0,142724160177462
0,136738781233626
0,137775973195557
0,13862501304427
0,141013420166477
0,134752591845993
0,137954515282848
0,135632008485285
0,137181490758142
0,136449175454648
0,141167770758338
0,132879716232837
0,133858138646824
0,132262259275869
0,135667754493194
0,131454252900385
0,133717763185003
0,129761477703651
0,13728197772609
0,129225510390364
0,135367516921093
0,131156881171603
0,130659144027229
0,128754867947574
0,133459622485968
0,129812722603335
0,129017972356474
0,126964973680238
0,131396885059112
0,126333231665262
0,133979339375335
0,126856011839729
0,129276243273088
0,126194984422855
0,13100164366178
0,125383213264367
0,127999335350504
0,126600772209665
0,12603592297626
0,122941236513762
0,124635831860765
0,123561221703138
0,125432804603335
0,122740244612003
0,125865074012738
0,12094047433254
0,12386437167431
0,121220948836087
0,123463934848587
0,120865284935665
0,123529992920961
0,120894532361878
0,12406750427809
0,118219908258526
0,120650687754815
0,118439903407609
0,120462433179187
0,117342686943816
0,121163007148428
0,117108555682157
0,117811192747131
0,118768194024722
0,117474875657051
0,113585113905568
0,116297436265414
0,112092838124904
0,12020471847942
0,112891974578332
0,112543403778105
0,111475509302079
0,116179320900408
0,11120990085103
0,113296186904514
0,107058912096348
0,111305808341845
0,111045983264201
0,11264371416329
0,107694542782894
0,108662792894705
0,106702315046532
0,10959144428308
0,107005058695792
0,109171870399575
0,103181367852752
0,107566216267131
0,102654842420897
0,108795740371971
0,102906430964736
0,105668384896629
0,102142666376504
0,106488490123218
0,100075323965655
0,104771635510065
0,100774482258527
0,103717077241965
0,098372373157976
0,103713876586474
0,100958516923708
0,0989314304354511
0,0950927872186263
0,101823277927652
0,101741499578711
0,0977910189297194
0,0975369791504471
0,102519211532303
0,0948144306346353
0,102128315307263
0,0973218328990533
0,0963730867283118
0,093899202248489
0,102981552343641
0,0966066903226841
0,094503359633118
0,094178241986992
0,0964040652260096
0,0911349776106421
0,0937881425215842
0,0954734890604147
0,0954419530648999
0,0896452577294685
0,0905973390716136
0,0881179951567298
0,0914112040901387
0,0890296220392341
0,0939746450855731
0,0873220835146809
0,0899676663157202
0,0877699467035117
0,0905607160329931
0,0854297568319662
0,0856073931874435
0,0850156456406474
0,0866037533227998
0,0840441902755515
0,0876317894047819
0,0831513530588503
0,0851568752222867
0,0800193759179042
0,0862600232578046
0,0830131029011154
0,0860367818605065
0,0803378031771776
0,0818638715362568
0,0825477572128526
0,0858559639794731
0,0813591849537759
0,0836599065946641
0,0794697513077965
0,0861971456832022
0,0795162594664514
0,0839241002758828
0,0811510339171979
0,0842280376871971
0,0817067360582671
0,081820694733763
0,0782517479683248
0,0779363844470751
0,0785211455536953
0,0822440387320176
0,0763298515444113
0,0831485246900638
0,0796739711328187
0,0798968931500793
0,0771115332387168
0,0799198414640413
0,078484498090454
0,0793066827668755
0,076590233448009
0,0785609664894214
0,0793455347153794
0,0816741433559014
0,0794024394102992
0,0786604410034943
0,0733705378196336
0,0779742575434041
0,078704381116102
0,0789374103415744
0,077605921321395
0,0783510106699817
0,0764402568978482
0,0792888439742234
0,0740532960331618
0,0755227177259438
0,0733015534647323
0,0755021968439501
0,0725935670986954
0,0760022546902184
0,0748186048692399
0,0793907428724716
0,0766671522841151
0,0765410938766555
0,0708538233358371
0,07694995228999
0,0761680960956887
0,0723347546701912
0,0722842688766535
0,074857453924961
0,0720477743957276
0,0766226933891841
0,072894303005521
0,0724891312222877
0,0714271840212999
0,0754583192729547
0,069742149906668
0,0750035348569033
0,0719973587566949
0,0743860093991393
0,0684470390982411
0,0749723697979062
0,071678454300737
0,072035262578232
0,0737575631209837
0,0748060068723065
0,0707325765034976
0,0743040248791404
0,0717076505816537
0,0749544352305717
0,0716589703562425
0,0740942243132475
0,0736508905630431
0,0747706091290377
0,0712968996943162
0,0734889138249923
0,0707815704039062
0,0710457086500474
0,071568815978033
0,0754249529678785
0,0681830411552173
0,0717091714818221
0,0706181275951112
0,0737722261388952
0,0717749202177899
0,0709025345673344
0,0689553866253461
0,0739923360019099
0,0699985955926645
0,0730234765699035
0,0703805499462102
0,0731724531274599
0,0706621322103067
0,0737239088697325
0,0692241286212864
0,0708559087732547
0,0685166958865936
0,0707468382515929
0,0678511149879366
0,0681379410889882
0,0678208549364434
0,0723259180995959
0,0704346752600403
0,0704574380857412
0,0688700701043925
0,0708840887385201
0,0669973836810648
0,071304646137913
0,0702092111663368
0,0702207231876774
0,0673328793631166
0,0680225012355674
0,0671972271519568
0,0697047054022809
0,0682021720969695
0,0696367348541275
0,0678808998082827
0,0716940669056776
0,0667116764494248
0,067565175447509
0,0663970553943183
0,0710677798488783
0,0643755471122157
0,0679439899795896
0,0663048277376509
0,0691345178192239
0,066015884508629
0,0689828317166119
0,0664263380885091
0,0693547198426104
0,0674621905217483
0,0700051986626505
0,0682222536785532
0,0670176110332334
0,0671628782621615
0,0721787657707904
0,0690833026383387
0,0702022739496107
0,069052242338179
0,0734367446759596
0,0697676743237618
0,0667588843640373
0,0643929609782602
0,0699844250008913
0,0663103619945658
0,0710983894382129
0,0659134991199257
0,0666627269186869
0,06718056868458
0,0698561554431439
0,0632659878554924
0,067390409450278
0,0664190593430978
0,0683823353670575
0,0646154637184833
0,0673277777440333
0,0665885411415191
0,0660853010208103
0,064343611131742
0,0658264790216545
0,0664708079309064
0,0658407995921228
0,0654054290590794
0,0676795382742129
0,0655403273925443
0,0618735348606283
0,0628350448894158
0,0651418177373547
0,0656055950692492
0,0657345672410588
0,0631194781829135
0,0634659068684159
0,0614983366162824
0,0659710922757695
0,0638597224792674
0,0679100165565075
0,0654289979550095
0,0662934193506064
0,0654734687008083
0,0661664002201062
0,062785959399649
0,064903159667335
0,0606197791406673
0,0643535182445768
0,0626885392682601
0,0641647356766722
0,0630501553287676
0,065906961616533
0,0631022228486654
0,0649682336696896
0,0641740255037126
0,0667152491217642
0,0625640543486863
0,0639835480091884
0,0647166225956954
0,0655213129035479
0,0638047505143139
0,0651041899576724
0,0611212923982409
0,0665394182630588
0,0649272003977015
0,063869940442362
0,0620403472800023
0,0642566302458878
0,0655385963437399
0,065743486523683
0,0632148782775699
0,0657638761977504
0,0646349050892223
0,0635684605670657
0,0618821880030949
0,064647925487305
0,0621182062326827
0,0649144052116781
0,0628168497503134
0,0638421569064137
0,0652316777874843
0,0652362770885341
0,0624559218813755
0,0643957515137688
0,0616585849132912
0,0666825623078638
0,0630004988638856
0,0629957127682681
0,0621695399009896
0,0638211972125184
0,0599263852908874
0,063496231840873
0,0632033208780731
0,0642347029057562
0,0614274027136094
0,0631886761665871
0,0615973951395572
0,0605898527211016
0,0610982420791651
0,0631157282268154
0,0627592182685091
0,0656600500979389
0,0615322080510906
0,066324560583431
0,0630951153138291
0,0655919576337947
0,065275358569122
0,061272688519289
0,0624175030907684
0,0638378640330938
0,0607515216804908
0,0660214200235294
0,0633492102318191
0,065157499570845
0,0641245778757701
0,0663556644596182
0,0620159787341335
0,062945444232209
0,063579289753088
0,0641808576537304
0,0651717695910069
0,0658223322309436
0,0607396385233416
0,0627582750296986
0,0611988238388484
0,0614328120621428
0,0594076056423422
0,0648071660266891
0,0610155267281009
0,0614658356934918
0,0599083351847244
0,066950345122559
0,0698474923799296
0,0728369682145039
0,0621591658203638
0,0574349403436801
0,0644994708061621
0,0688440079077301
0,0631150320400829
0,0634368100804063
0,058519753972665
0,0662323605864495
0,0588197088610888
0,0663146288163142
0,064129098789536
0,0651480708736532
0,0610566296658177
0,0686441638627063
0,0617498401021262
0,0708588157929921
0,0681618190569012
0,0705719004822196
0,0657629353961619
0,0685622313784965
0,0609580523967835
0,064790367672072
0,0659941482961238
0,0660155420260275
0,0685389533113283
0,0645564416799154
0,0677556842944028
0,0664126691865086
0,0642562907443592
0,0653016650602215
0,0716631196706643
0,0596303348408868
0,0656820149972149
0,059850630028466
0,0748294560555443
0,0599337625260759
0,080730822852404
0,0603280400782333
0,0784292064557109
0,0509713850335354
0,0796574732279886
0,0557446477571159
0,0922929156312006
0,045924436408496
0,0880268382505262
0,0418382905210921
0,100830012725413
0,0463844549756572
0,0930534738774362
0,0457090422505671
0,0997402077080771
0,0487948101828971
0,0855145154819414
0,0564916042162422
0,0821074919651087
0,0627803638925095
0,0744948332706079
0,0764856135324751
0,0672585566878883
0,0743614288058022
0,0673659715360145
0,0790563348006058
0,0665766276787715
0,0770140784713365
0,0676727657260996
0,0741815025996684
0,0714263370943024
0,0720647747615919
0,0727665995223566
0,069304545687865
0,0728249090029633
0,0719353040752556
0,0716786309478512
0,0720140150661551
0,0696286808311429
0,0724673904534096
0,0728570447312224
0,0739285928417221
0,0730656806069381
0,0714064763954311
0,0715255093123482
0,0727488131259995
0,0746249119505641
0,0747266731760429
0,0726665989435084
0,0741940537263201
0,0727896936506316
0,0750571951291572
0,0737400127095668
0,0714889119273526
0,0731387843756893
0,075965311144666
0,0737511310295186
0,0755823405647904
0,0768708457867473
0,0749026267236939
0,0765533289757964
0,0771315864830634
0,0740257145946917
0,0781209800704749
0,0771433286773708
0,0767631355679008
0,0781627525546061
0,0787819722378292
0,076302566681378
0,0786678014918869
0,0790860690508011
0,0763383648261929
0,0773062876433698
0,0789614076078173
0,0778392305783386
0,0792975076603454
0,0800228162496782
0,0800301733339306
0,0779805475379093
0,0786853528050105
0,0810534937746841
0,0781569148183793
0,0782414620532675
0,0815894316711218
0,080211173700578
0,081508036505486
0,0793718831178408
0,0794504419042131
0,0799321500217893
0,0822800868804815
0,0806967969302927
0,0818800582015515
0,0798582267928382
0,0822607803278776
0,0812803767163053
0,0821483745023961
0,0806665586262953
0,0829457319110328
0,0800952650957752
0,0824462834806192
0,0819175150878635
0,0822456380363359
0,0815942036717721
0,0831809901205713
0,0825275370090384
0,0854136648878612
0,0838375481402128
0,0839648196881728
0,0811234946381708
0,0846792605655111
0,0848967083080566
0,0828557306514685
0,0833321114794267
0,0861590601921908
0,0824651757669204
0,0862010595473917
0,0853695227047292
0,0863056386195218
0,0848613826249815
0,0864182716091677
0,0863571618887641
0,088378550009873
0,0850786012687888
0,0887919092344335
0,0888353604076766
0,0897055107418242
0,0868376251582245
0,0891884291571954
0,0869339485151226
0,0901929047007724
0,0876674889493962
0,0888744097071484
0,0887639584676203
0,090734978722489
0,0887578022143801
0,0905928586901619
0,0876042629725796
0,092305240545704
0,0885811170009021
0,0901948727328699
0,0902754667644571
0,0903477973422133
0,0882552026812397
0,0922709586427489
0,0908194581652628
0,0927278939477225
0,0898823410702101
0,0938330746386545
0,0922529234508513
0,0925967805891612
0,0931289391238462
0,0930417696641856
0,0901769225529924
0,0948662869582254
0,0919803403314648
0,0915462763944099
0,0916298996007187
0,0941064828329203
0,0926969550754597
0,093033119737782
0,0916287139633757
0,0924964119005396
0,0939039162926373
0,0955330548592516
0,093549593892522
0,0953082544087721
0,0952344511357806
0,0960375137064229
0,0926774762292387
0,0939774998127803
0,0949711873214778
0,0969207107413157
0,0951388163560462
0,0935135423281938
0,0945407252839783
0,0959871872242066
0,09470060751618
0,0968876146165682
0,095030986339979
0,0985850635668736
0,0939603172970591
0,0984792986454052
0,0957905740055374
0,098011558968012
0,0960040351577519
0,097395947776424
0,0980405997365102
0,0998648363915041
0,0957752803801207
0,0993785678731806
0,0984962177372188
0,100305284932021
0,0977970512015566
0,0986444359312256
0,0975424397772963
0,0979839986901088
0,0966860799240784
0,0992783680977126
0,0970985443970174
0,0976412886103999
0,097857648120128
0,0996029462124164
0,0979523320984782
0,0992230944309377
0,0981579022271629
0,102890262863349
0,0987699759910639
0,0991185499171761
0,0956820005992723
0,0994846426891609
0,0963214044702613
0,100479140130587
0,0983749350519907
0,0994997636662524
0,0981585505204237
0,0994709525920368
0,0954831823575757
0,0982533778019346
0,0979354223432011
0,100692251851826
0,0985625714808492
0,100435630218946
0,0965551324606432
0,0997692629055339
0,0972321460119929
0,0972208748067696
0,0962854222811729
0,099754890868159
0,0986618290411805
0,097230551585694
0,0962038227719353
0,0983691603507626
0,0954326968648455
0,0976500570725392
0,0973071825798146
0,0967784329875072
0,0951261158126551
0,0986509251604106
0,0971814838662776
0,0974835552665233
0,0960590266452772
0,0988956475268932
0,0934461820876802
0,0975489966430927
0,0957281929845912
0,0991240326490022
0,0960548413033287
0,0961814347688113
0,095671705624867
0,0969916397048525
0,0949573170410124
0,096961043084064
0,0984583697781041
0,0996296163769814
0,0942913261368255
0,0962537568560162
0,0958427340090927
0,0969553794448383
0,093975514180997
0,0950914907836375
0,0949248589101066
0,0944018426917737
0,0947315571003857
0,0967895089950082
0,0944825828891954
0,0956210783006758
0,0947722904926849
0,097170266418794
0,0934755305426743
0,0952372059158982
0,0945821678404274
0,0945706053555569
0,0942094890036888
0,0955751810548339
0,0922962525876328
0,0941367909684959
0,0933185994520304
0,0921508395727283
0,0921474325915433
0,0929226042128922
0,0924134885156355
0,094215196278935
0,0924321407686221
0,0931249176373449
0,0923387779725865
0,0923339860862925
0,0900578151377823
0,091745667962115
0,0893942452470708
0,0920455314367446
0,090899587757063
0,0939898530439442
0,0916973867754052
0,0899942415039639
0,0888302149610155
0,0903501835066487
0,0892817000180062
0,0902508130145434
0,0871266635618528
0,0879646431491723
0,0890209246980126
0,0899104875614393
0,0858929344562955
0,089127633595795
0,0877328488655586
0,0890712289030722
0,0865348778881144
0,0879689253411976
0,0871831832254635
0,0885910387970611
0,0871778329927975
0,0861163415284999
0,0858604583157973
0,0886152151226457
0,0866768340276748
0,0880523123256659
0,0855680457598658
0,0873609520306302
0,084323192850559
0,0853104845529972
0,0822425202802262
0,0855952965329702
0,0849728396723469
0,0849391949044641
0,0831569960894741
0,083161811431913
0,0834701372120009
0,0857922136088971
0,0817155853032684
0,0828570645937569
0,0815116554425793
0,08235137940884
0,081244077049435
0,0797387054828637
0,0811914701638575
0,0811020504734524
0,0808190298509832
0,0807057034756487
0,07854820939324
0,0848154013535432
0,0762593250485458
0,0792798216397983
0,0773571253991181
0,0804014541722993
0,0771456647434655
0,0805359815529635
0,0771062587344788
0,0797854873082985
0,0772464059141748
0,0775964689411991
0,0747205427481264
0,0789307999061328
0,0729501775660398
0,0762057508240633
0,0740838215750965
0,0769913973690601
0,0727259394875142
0,0756588652509094
0,0740206642127041
0,0762956558892217
0,0732754980625438
0,0755480093701442
0,0717185733691387
0,0758302227361478
0,0709871056751169
0,0800213336212566
0,0769680191513363
0,0731698366168609
0,0723399521657571
0,0753981941868847
0,0725376467769546
0,0716873446974501
0,0735022323663152
0,0724533275507663
0,0712677529342824
0,0721602466211615
0,0705887401909278
0,0712989046116148
0,0677504835558324
0,0688807543941374
0,070403286254913
0,0687308553689189
0,0696591374203335
0,0716703625560734
0,0707743549325456
0,0713561468169282
0,0652979206652998
0,0701463258659424
0,069639001968181
0,0693481492538336
0,0683034613908863
0,0680730362850216
0,0703828241388791
0,0713749762174931
0,069378239860317
0,0685638694956583
0,0666110737118877
0,0679175545386504
0,0671846756731863
0,067011269622072
0,0682744841067174
0,0665165406752497
0,0673593913088457
0,0668384103552804
0,0669513059086514
0,0658399316599042
0,0658802773345941
0,067655458985605
0,065849830656348
0,0631175818741278
0,0656615571560031
0,0651237340698783
0,0643847715643491
0,0613598729355578
0,0673564422939357
0,0639892415074414
0,0697355200780048
0,0611168706203245
0,0653787793368722
0,0679148520532864
0,0656012423086676
0,0667607639772892
0,0624616296651239
0,0652355152912282
0,0626081996210696
0,0629225655380727
0,0619589635198412
0,0638467851774655
0,0616228992582171
0,0644503002566628
0,0599179560585659
0,0620752326061826
0,0623078352287593
0,0620651035641766
0,0614579215563343
0,0635273799762767
0,060256598708378
0,064046444913099
0,05754391453242
0,0623906506159392
0,0668127303825089
0,0652770597155119
0,0649979252264158
0,0602708974728108
0,0544944146667608
0,0803624829938291
0,0576083336245313
0,0666542329884508
0,058468793947965
0,0676840079860912
0,057643611180352
0,0660101699757239
0,0554790105289615
0,067004278225675
0,0594566402135703
0,064260862376942
0,0605580535876623
0,0604533817096874
0,0573115834387685
0,0621778967041448
0,0585830071701413
0,0613037804649355
0,0607725196078039
0,0612793758941753
0,0572168464733665
0,0630427631536511
0,0558716830066533
0,0646076602505432
0,0542124924294866
0,0639670248368854
0,0583150891510023
0,0615506916530297
0,0591140640419844
0,0659421121521946
0,0527523131113922
0,0643180554795518
0,0627029837075663
0,0611126041812845
0,0613691750267955
0,0586363791254822
0,0602120492249662
0,0573423819506781
0,0572020145612391
0,0592998583884559
0,0592656325216686
0,0583525905765364
0,0610229522041677
0,0600522048516342
0,0589245522179526
0,0593451339371141
0,0593991943237175
0,0611491164724043
0,0591116193675184
0,0580333276397068
0,0592619644791226
0,0608057975297669
0,0535675566296868
0,0697918428561752
0,0614065549832092
0,0711967073429342
0,0593935562490878
0,0635454915235872
0,0595048169884674
0,0636516678841582
0,0583941647653683
0,0635303859495493
0,0586449465234671
0,063695715178687
0,0581417063874796
0,0607216556355131
0,0582022054657026
0,0599663878282727
0,0554537307323426
0,0626932498797403
0,0576398143489174
0,0607862520372829
0,0591780165167153
0,0611785118906189
0,0587702166456959
0,0575777253622866
0,0643018970682083
0,0607750492795667
0,0636850142855692
0,0437992168610329
0,0825092290581117
0,0633940371336601
0,071912977917544
0,0603531059761996
0,0629449038841422
0,063101072956796
0,058611013209941
0,0615306189956881
0,0645787011743996
0,060606990371053
0,0609704035291552
0,0584231035603283
0,0623232394456655
0,0639153805838011
0,0553127349688177
0,0645438430500227
0,0786303074888864
0,0662837505735018
0,0702368638924244
0,0540583764977891
0,0707161386806947
0,0763219955126655
0,0631692462769481
0,0682456806549772
0,064080596929147
0,0648595713481741
0,0616822142141859
0,0657370077040071
0,0621948662470545
0,0712118618593711
0,0612633142953273
0,0677193290677366
0,0621136327297257
0,0654228724402639
0,0687987769696426
0,0640737142078761
0,0661312873901761
0,069692134983657
0,0633845588267198
0,0693355416201243
0,0656467798683887
0,0705021321595482
0,0643165833141774
0,0698559577522893
0,0610074740398747
0,0731457204862693
0,0678983517423378
0,0708562271493531
0,074227412452082
0,0751732300743285
0,0663082415408071
0,0734344471137127
0,0697519119669628
0,0817500997378234
0,0535192773168531
0,0848503846950212
0,067026311598527
0,0861571839744418
0,0752143685318181
0,0746405444140179
0,0720594111070099
0,0737974362606635
0,0712492754103563
0,068457807467618
0,0873970494011651
0,0693002022935572
0,0830805270586931
0,0625457459474135
0,0816353149273438
0,0720485654669274
0,0816543953334053
0,0714153995748204
0,0773646500162343
0,0666415113360931
0,093096677725869
0,0726563478594858
0,0780393084208582
0,0898397303929313
0,0829117782903009
0,103240355098413
0,0742963118004517
0,0826247091396373
0,0898806896948526
0,081192089900951
0,0897821903824874
0,0756045266248012
0,0927230477824107
0,0725063692356026
0,0861689545281316
0,104666447427867
0,0855614619771983
0,0889968068482828
0,0862069525309946
0,0854508385195808
0,10267800082356
0,0915242163669836
0,0905959729343029
0,0893383269543793
0,0934462323405859
0,0739167154964012
0,128950670237166
0,0837266045123306
0,119848801908532
0,0958495807872443
0,112157388472779
0,097140740087023
0,108039693265463
0,0950102175608088
0,109681474507013
0,10668830512856
0,111365582930179
0,0888838313296373
0,11955068148073
0,11070447368234
0,113633944941682
0,112739599010696
0,107535707209284
0,0994953157655874
0,12325074384364
0,135105618763918
0,140220530665215
0,119820442173706
0,117139546862115
0,134202338869266
0,124359441105954
0,128767843292984
0,124226639680375
0,133287740232421
0,129325418629265
0,131871739874636
0,142434030070165
0,133745437348042
0,147856713542221
0,132210358551464
0,143673813104765
0,140079620545525
0,174393230426499
0,164796147090136
0,155502065533153
0,162865248760377
0,162015111247095
0,180722203208706
0,16137295085526
0,169042130036302
0,168121504218209
0,179475229053656
0,181875205042321
0,176649761936717
0,198183880800643
0,181307571933876
0,216042731588335
0,199737576174601
0,212263826934852
0,188047779488363
0,189831527758588
0,329905831008592
0,221879646749812
0,246409524979972
0,205432007894918
0,249718477443497
0,256795517330701
0,263639484147376
0,248755869035127
0,257221464027621
0,259125639057016
0,275009267484105
0,27603476361981
0,283133686788945
0,291672114181688
0,296661690097227
0,28049957156303
0,314593052297038
0,322997909195298
0,370929789044029
0,326580662646807
0,337912559325789
0,338502050510657
0,364107876204904
0,343453979585211
0,371318699358942
0,341039870943008
0,389559666673196
0,399397915914253
0,40969662317995
0,379785452559267
0,399655709340155
0,413747428642847
0,410371638446895
0,466635155059202
0,429450403832338
0,456010599429119
0,430316049150209
0,452211968146457
0,45295224272418
0,455255048014968
0,476881593454516
0,488836050540202
0,488526716479362
0,478648894354856
0,49698418181104
0,490178028686359
0,514040641574807
0,508521319137385
0,513042975037435
0,51705690518537
0,520546603000557
0,652122902705893
0,554496034940582
0,549427341081426
0,533855495121127
0,54534066630294
0,556130661194024
0,536335193416542
0,61813387472553
0,56289892633075
0,57343505145112
0,559660737606617
0,56412427554434
0,562399067643174
0,568391101087779
0,565758389417484
0,56380576152332
0,581414869734055
0,549920824898536
0,595206121982614
0,604632798949156
0,578009870137308
0,551939889324232
0,570963776975284
0,552202902936133
0,558306733089871
0,5394801561287
0,566245623314473
0,547555325437299
0,546057975628091
0,528896694046246
0,511630249094136
0,541285162793351
0,519318606544621
0,517809611569421
0,500459713391914
0,501419857873357
0,504384066951389
0,468395208971935
0,48837127383091
0,512499027992686
0,478658080632701
0,457267657452715
0,453084673663615
0,454466241447516
0,445155407348617
0,444169148617161
0,438536577905117
0,42205708163873
0,419206950470753
0,414939035847432
0,409807774570215
0,403825959298213
0,396773875815391
0,399709328373711
0,388676141558821
0,390740363324016
0,381902087477071
0,381798657004002
0,371476616283616
0,370046490550327
0,362551504237095
0,368137602394506
0,36156598016851
0,360148835152369
0,351166913730213
0,351418055118318
0,343188830487067
0,350441035693455
0,340041634847408
0,34767709329819
0,331199685324098
0,340055596937167
0,337139160584936
0,334867305058277
0,322244549248841
0,332298583174639
0,322183976065027
0,327882606511945
0,311980951672582
0,328244019925933
0,310417959230763
0,305197412644189
0,343785909307269
0,323486960630579
0,327952417156519
0,30582097256982
0,317395624724445
0,300584813557224
0,295711960371185
0,33623181850049
0,318473622203716
0,311919837199193
0,300535971815078
0,291321255705432
0,310299618628519
0,297780784051088
0,301553453820372
0,297612554625208
0,267716335307248
0,326028770253299
0,261707831652365
0,367470116403559
0,31256196101168
0,312245487006249
0,260354948847598
0,306544888374701
0,287948040650212
0,285210980393902
0,269393516850627
0,262672381058953
0,284632968448906
0,269045061132868
0,274428665367243
0,266432399751472
0,25447987542386
0,267265339961466
0,279231655838877
0,256132592710763
0,276294063321113
0,264272708711837
0,249306533760688
0,266255743894511
0,2980374391558
0,266898966645159
0,245260956726796
0,248045861077622
0,226211662073689
0,253192217954962
0,257380345931219
0,241431162122511
0,248247689093469
0,226898918859429
0,239776078993345
0,224660558228495
0,251695280607796
0,213853670532705
0,234385517117091
0,240373399935757
0,222921708782554
0,231879901888094
0,212461597233501
0,254672957740534
0,233939299787327
0,23364459176265
0,19849923098484
0,248010370538398
0,220418558775363
0,231334018142665
0,225358236144003
0,204985869713675
0,216212918423281
0,222580189087084
0,201984294591199
0,216725961490544
0,204846407191727
0,224312954610692
0,203271814577576
0,237736493334052
0,237138504472626
0,211201312826675
0,199371946997942
0,198085528596395
0,205162898721301
0,203457504618716
0,180277887847766
0,237006905891738
0,187000164024721
0,212128387722073
0,202849217153894
0,206068178234121
0,201187412528271
0,202822337390155
0,194986207722311
0,204276565280331
0,202965342854206
0,233466999534235
0,194345713699997
0,219413834426852
0,202996011152481
0,222655289213005
0,1992925186922
0,212446293944591
0,206344167724616
0,212465901300376
0,210868154305653
0,219777928808816
0,210864048644306
0,225660322067109
0,198410002601799
0,251840584051911
0,222498078251088
0,228265939559192
0,228872222461931
0,234427368810096
0,264647461614834
0,246977639623852
0,253247762093148
0,242386673033443
0,244249121704925
0,254096769324722
0,239584390605539
0,262297492185076
0,260607295942222
0,266874192166189
0,259482136548638
0,265505690736412
0,260140661249273
0,261133864633495
0,276603861416073
0,25077088966679
0,320507450472552
0,279908778719701
0,297455964030721
0,272039353213326
0,272193745364324
0,270880857850888
0,274641722984669
0,278264732457404
0,267234071888106
0,274417273336291
0,291397217852779
0,280988345894542
0,284114973394096
0,277685752405391
0,278740803777021
0,279173090942678
0,280949696938517
0,284246212476039
0,278703230602289
0,291645679354815
0,272085450157165
0,283876251347414
0,319746940179749
0,29852633968184
0,298630585717575
0,287522555973021
0,302974305150274
0,290132281290819
0,297022691773462
0,306122482586812
0,30300057219979
0,30285090487267
0,297936480805756
0,303091481178695
0,293259537756167
0,308943819007291
0,308229018698508
0,305957530070409
0,319340207661582
0,284358376313545
0,345498859197503
0,310635624111097
0,330625771219852
0,307658947992178
0,321458096860373
0,311394471561665
0,316001795030005
0,307959189243797
0,312708465618623
0,309399386823827
0,312951507802353
0,314102266807562
0,311679444777113
0,317738084649763
0,307984363722973
0,313977776405958
0,324377522152332
0,315809891575111
0,313407524286656
0,311308571652899
0,310214060853619
0,2995521464839
0,318880996536547
0,313151247876477
0,320677966322688
0,305715990222259
0,311284611357663
0,321313532840583
0,315137243327296
0,308545879039397
0,305743910037701
0,303790361764295
0,318772946519101
0,296956824685057
0,314633247109598
0,308278818674274
0,320022277344028
0,311458471683268
0,316786537897022
0,308826694640001
0,32082796200445
0,314522897113863
0,326212824205746
0,321290340630664
0,323040132705434
0,331935574180439
0,321447902824595
0,326437414573576
0,323510430603159
0,329201168027459
0,331948410975488
0,321209175729715
0,327057956812133
0,315049686962764
0,322641061963009
0,315933663793181
0,320006608126935
0,306420520829132
0,318930275252194
0,300757801479445
0,313872966605249
0,316977567231956
0,303670229616375
0,313563374371702
0,300271017330524
0,300949599587844
0,293444515622325
0,298650594299881
0,28924892863151
0,293947394475667
0,291161152045901
0,290670953360337
0,286851198111314
0,289557633538312
0,286832710157595
0,28765804893041
0,286327621760173
0,283866337913432
0,283973325928944
0,278943395139283
0,282644501054775
0,283084617331541
0,283755693078243
0,281558666393351
0,282431485708893
0,287564606929503
0,281786129157464
0,289952095384106
0,278488757086356
0,287158004486951
0,277532081758919
0,284065419934805
0,27798405810044
0,282030540339227
0,281164815611045
0,274966117871954
0,2761668486179
0,279635761431583
0,279467241795476
0,276823416287397
0,276631550990698
0,276680868793238
0,275448534659802
0,275701098490253
0,273913407650189
0,273480384015359
0,275200376438582
0,27569083687777
0,277876769536143
0,26872359622544
0,280218986111647
0,272282213998924
0,277870285570492
0,275871540919713
0,276745044263511
0,276243592231285
0,271203817071
0,274940192511953
0,274094300559892
0,273508113513007
0,275154490881775
0,273414969359139
0,271341226644846
0,271263469409652
0,269448370151278
0,268357364440236
0,26522351275555
0,267559911650431
0,263732699804564
0,263548641847332
0,260393008432456
0,262065890193484
0,255804433922818
0,253202566611808
0,255298841369251
0,253928095467084
0,254692051600854
0,250849588299694
0,250330308961197
0,251499748967762
0,250115668964458
0,252752701514286
0,249165245509912
0,249902584851784
0,249197984220635
0,249345191158822
0,247694301831509
0,247379081901935
0,249420939138928
0,249214501996776
0,245821074228719
0,24839255822141
0,25116373689197
0,247717062118333
0,249516959300571
0,249800336179877
0,25288387541987
0,252538170538894
0,25158364699246
0,254168033284643
0,254197211821073
0,252782142981086
0,253674789534289
0,254609097204029
0,25679411719089
0,257648033845372
0,256686030399322
0,256967649466145
0,256242056919376
0,256385255376029
0,254394749864238
0,259541861904694
0,25532746269747
0,257462515301946
0,258654343565513
0,255398095566101
0,25429002105734
0,258521671348729
0,256860607079031
0,256576933160277
0,25657974249156
0,254416279347461
0,256156258586587
0,254638761774051
0,252779918154438
0,251440212878725
0,251663998259915
0,247667630572144
0,247139716260653
0,245987966917891
0,248178280626675
0,246960715602258
0,243304397105494
0,244676998361406
0,245171929216105
0,243618762772559
0,244350290156972
0,242897365788488
0,240565295369581
0,242796508497982
0,242867222520807
0,242262252139013
0,239356511764139
0,239408807525164
0,239125381769608
0,240863652198745
0,236341470426951
0,238565763823195
0,239520412535793
0,238779981198552
0,237386721578795
0,236507288038848
0,23825666209018
0,234115173564944
0,231311188357406
0,232423597238056
0,229301773241771
0,230042968550852
0,227889907736942
0,22501974854674
0,226272882129602
0,225618103641664
0,222923402004368
0,221185537513369
0,220164529189513
0,220619464502222
0,220449100686291
0,21807924606243
0,215738321956197
0,217087973191106
0,217085801901162
0,216719819062596
0,217023484940822
0,215635519485326
0,214656723901877
0,215649728436472
0,214201039471166
0,211799835913939
0,211738472756353
0,212408186391184
0,208060674746689
0,210549896298005
0,208633325359319
0,205634978395769
0,206552376543057
0,205184279050567
0,205012501213071
0,200734454346285
0,199563801283703
0,199793717907673
0,202449123206383
0,203515998003455
0,203949580895715
0,202930635526799
0,205206229656552
0,208745529085913
0,210750351173819
0,211834650361486
0,215573623983488
0,223299403970853
0,228363517756952
0,232967358244345
0,240695230660489
0,247486227768377
0,251335961853098
0,261568704455864
0,268411853438959
0,276414331466301
0,283335988352798
0,291884056292663
0,300385245899951
0,307824791849185
0,31742339000879
0,327457998735137
0,335183332740222
0,341550843720316
0,350786158117425
0,357399756502015
0,36539402801119
0,371609195904055
0,377960920021207
0,380211190275238
0,382153779443198
0,383085877910758
0,388268068423721
0,389280555109593
0,388670171595406
0,39061437698923
0,389465342898796
0,389768198167502
0,385684767975899
0,3820077243772
0,383900357926594
0,381344876448901
0,378958366700019
0,376584275812776
0,375877791556337
0,376843785997088
0,373630579942006
0,378134760001032
0,376726455643087
0,377907817031146
0,380889389478321
0,382045904790929
0,384898910364147
0,387322790071046
0,391326464592144
0,396458099520635
0,397479349096628
0,399024654964336
0,403706458543347
0,412335286739271
0,415065617212957
0,422777317954886
0,430116580053076
0,439569785595198
0,442135075820066
0,45285712047747
0,46041426963636
0,465148248996788
0,471608641050274
0,47677019413969
0,481845435312236
0,482619339040254
0,48300418642648
0,486224290130519
0,484117707044833
0,483121166083205
0,480284008969707
0,474142002789507
0,474102536833038
0,467298351750609
0,469124805012704
0,466199591517114
0,459923393090531
0,46373562407023
0,461645596559347
0,461948254132915
0,474185408281328
0,477201333413538
0,484030608122377
0,49356877922143
0,50049222996685
0,505675263949773
0,51697475531193
0,527327853620372
0,530176316985062
0,538556908028816
0,54417838803278
0,550174477096505
0,556139749354296
0,561039093575892
0,573360174259441
0,576316729035328
0,587494698262762
0,595203412366248
0,6111003099281
0,614803525942403
0,625503078878187
0,635365280945219
0,653713132914848
0,655465169320339
0,673453472951281
0,691484644404808
0,698214255728528
0,705233236296455
0,714460634689984
0,729006216168567
0,738443757909074
0,731523366643321
0,743266958790192
0,751714158451562
0,750129272761058
0,756933111973754
0,755914059332637
0,752215401498026
0,759841181768572
0,751125923977188
0,741753928381562
0,733512031205238
0,726123519637857
0,715175344538956
0,708613053679595
0,696948045319313
0,697443081130142
0,688546767047877
0,689963976925196
0,690953711349892
0,687465199573868
0,685260517647007
0,688795658852134
0,689905638199025
0,694889619803289
0,695153512407315
0,703547761364814
0,707861432979808
0,721032220148469
0,723167775905767
0,730677593912993
0,744966503497483
0,738598300415448
0,735461134301203
0,75108271689346
0,751246694809285
0,756264159584227
0,753426605082281
0,753457726335074
0,749259777528351
0,766534263216675
0,753674728155751
0,763888854880326
0,752573481792383
0,756161420131677
0,749759861769615
0,754673951738822
0,746903516337932
0,740655703634107
0,740427738465615
0,750880272130458
0,733855222999388
0,727344162463811
0,729072645147998
0,734664326220421
0,71329827897724
0,710997356011665
0,706441781888165
0,701689768536011
0,686975738399814
0,682548534290124
0,673130263940075
0,662441961415094
0,646575449897197
0,638522979532155
0,61673796383788
0,607256831615559
0,581449532632872
0,566545776747169
0,543341524878961
0,523297163063458
0,501143843702841
0,483738683078818
0,472729212537697
0,455762125303256
0,43797563169632
0,430761426567855
0,420399601634225
0,419942881543238
0,415993631448092
0,415806773059547
0,413628028651923
0,420295825475199
0,414285756449479
0,419059896322986
0,418885538998245
0,417332704018494
0,417736639012907
0,412248057975436
0,409823034429397
0,40722337856991
0,39626759909142
0,396415466066205
0,385101485535867
0,385710627137512
0,378936038101748
0,374902650105121
0,367238585132609
0,364995810967427
0,350752798365918
0,347465418638527
0,338193932291542
0,331143442008858
0,323564641875309
0,316973467131914
0,308874909023029
0,300636469433283
0,294612120584851
0,284195737991391
0,281565885391721
0,276792445575713
0,273689469776925
0,264874392818294
0,262784331949066
0,261264047973669
0,255076060163421
0,252150927520789
0,250419113624701
0,252771462621154
0,245951754720847
0,244242521354083
0,241417044469401
0,243386251685142
0,242981081699634
0,244705024422172
0,243523452097445
0,243539479051476
0,243632295617337
0,245572236886141
0,245575735037744
0,24846777456292
0,25145610614546
0,248418612749258
0,250234813063663
0,25122318664687
0,254212165138192
0,254392666087731
0,259621894725718
0,259607016983148
0,259176515898726
0,256319380310174
0,25414351315675
0,262918868080152
0,257755094715512
0,264401201293036
0,255782732941049
0,263536712803724
0,26063139665098
0,261431964179225
0,266403334476692
0,268419725831654
0,258496685192509
0,266653694725189
0,258793149664311
0,2658724687013
0,266267081829564
0,267990244840945
0,269845245587286
0,274377995875177
0,27695394065008
0,278702826485243
0,280810102723542
0,287193959346586
0,280270299810275
0,281484656423206
0,283687423284729
0,289187126099736
0,291682515223341
0,28881604754908
0,293422455202343
0,293235288297039
0,294439457239056
0,299233370641069
0,298834583887096
0,300641500165148
0,302682428968766
0,303051163489607
0,303420593536574
0,306940888598598
0,307673666088166
0,310024400461221
0,312856773541002
0,314338757249593
0,317576290589859
0,320401426551526
0,317821172142862
0,330075433552147
0,337099987412254
0,339836361189174
0,339366771315997
0,357504670950483
0,354714276394535
0,362137705388677
0,366033422336855
0,380861537067668
0,374124643397803
0,387239803146976
0,376063962397791
0,385915898032096
0,37811684702156
0,370385328166778
0,376320183972396
0,382710898555394
0,373441851435706
0,382650439695435
0,376220077016439
0,385054902176788
0,377829548782111
0,384229807238501
0,379844815985158
0,393078477817537
0,386613353968681
0,389438050076126
0,389582020146847
0,395143304057853
0,387159228437326
0,398424578318337
0,393400173849677
0,405444579003278
0,397311047675654
0,40540929284709
0,399609021397091
0,402335207330155
0,399479308952842
0,408132036824736
0,399853412576594
0,410517504259275
0,418872344677979
0,412939451914796
0,415277210659851
0,423252479302627
0,405993261386562
0,416944811417185
0,420833024553934
0,423919167170493
0,42382684101619
0,434274119430317
0,421025492286067
0,442131244188238
0,427997583102542
0,429905653973426
0,428848205149002
0,451620868703773
0,436952632520018
0,443789963099877
0,446328807611756
0,438581841794116
0,446010357614075
0,461124049745334
0,444962674646592
0,458749234786027
0,454781850703566
0,453117493081252
0,452984068218004
0,462287180522389
0,472498656392151
0,465273973734154
0,469137434871191
0,466931842313379
0,479374173843456
0,487034859032322
0,474491283233884
0,478520707894828
0,484132752452414
0,482662189121347
0,496147959736336
0,486987359198071
0,486927244908253
0,511506407589881
0,48704362714243
0,517029735965256
0,49344595575501
0,512008331681392
0,501846242408906
0,507139306265198
0,504981063180003
0,52812692811726
0,516419960494579
0,525594131710322
0,517282110363267
0,524448585535458
0,515243807080139
0,535311123715298
0,524839640808006
0,561789429245651
0,559762650810073
0,563363701623354
0,557093529748718
0,562092755208882
0,558028747217086
0,572411422207039
0,569533836330479
0,59007718366223
0,57642643264526
0,596438004231772
0,565991841816497
0,600913425473235
0,596202235491369
0,58354118198527
0,596717070296931
0,616304690729846
0,597265864097478
0,626378081198455
0,616477039222914
0,623453591698896
0,640280427249727
0,67844975936651
0,644072551927062
0,667219134494459
0,655891443709059
0,69385360454761
0,667986463841273
0,700482541230082
0,659268537424915
0,683509864866021
0,657697709087267
0,692887541974287
0,665898652945336
0,725975140263502
0,638855233194695
0,728474214275762
0,690062676041053
0,722135823019348
0,684224500764349
0,69530856985991
0,667802342865634
0,736235438239543
0,681872881967064
0,702267710077614
0,684804850908377
0,729054443844241
0,705285406298507
0,751141264328618
0,713638065298245
0,781291214833578
0,718085703030124
0,724225237645356
0,698495699524995
0,764927718812451
0,734735619038778
0,734456410569013
0,724398775366315
0,742237962584243
0,717196576313356
0,76760535714639
0,728044921226699
0,743998149136042
0,756755622111736
0,771342156637538
0,74349410723112
0,753358870539534
0,713774176462962
0,758665831614804
0,736597733111272
0,764215691786015
0,741384645917866
0,781738956684302
0,784998242132026
0,767063647401124
0,825121407978005
0,788571343298929
0,782445157749265
0,842651854972436
0,77323413673661
0,765737339619376
0,824799199732106
0,815109044940729
0,79202553601359
0,799786528572942
0,791291228500065
0,817736504445605
0,7442922462129
0,859693921173746
0,810611672833433
0,813080609448811
0,727114437299744
0,954480627104543
0,875874145891442
0,813853637306527
0,784443453039075
0,820626058742085
0,892806190720074
0,881869080518307
0,858878285736744
0,899672363616232
0,823515989636396
0,834548435022135
0,769629376906396
0,86163638361468
0,851553697303387
1,15381579813847
0,865216322987263
0,740525927226024
0,751939766383762
0,947919753185743
0,894921510884518
1,02194400463462
0,811730414343459
1,2928073074102
0,86835341562433
1,01827703028579
0,942471389689315
1,07112444999225
0,951176828068402
0,967645182978452
0,875164101185628
1,03000034818785
1,02897740459322
1,12096753050795
0,98384391957772
0,92970035581943
1,05108791047842
0,940779558333382
0,799924475454016
0,800452039241431
1,00567962738619
1,01055275557398
0,887674101271938
0,860440619196737
0,935763068761114
0,944290134621742
1,04751106970058
1,20837355870791
0,932149339913784
1,0516258182557
0,989462319343302
1,02162706313119
0,808402763484128
1,47820853616735
0,772471990303931
1,06866355191361
0,768277503163693
1,03169689715875
0,957196046043751
1,46425018900147
0,852743928977769
2,1439153115986
0,760505360377427
1,14905070661222
0,431872246049194
1,04728093280894
1,27173823091709
5
0,711271060848675
5
0,808703987075528
0,97493805229517
1,19382802015403
5
0,699268345762972
0,884005637453832
1,1192338751699
1,39227319875414
0,778843686400746
0,753752477078659
0,795405466234082
5
1,62706009460827
5
