3596
4000,36533379555
650,420452594757
1
2
2
0,0972822034156402
0,098498089369717
0,0946737076960087
0,0926052735042981
0,104923592395266
0,0909027395992323
0,0961226634145176
0,0833272663403723
0,097366296551579
0,0972822927510901
0,0998867321297982
0,0856518674494059
0,0975431220131715
0,0908423062135437
0,094933980951034
0,0988912021458808
0,0976146505613372
0,0901077505828534
0,0978233174883831
0,0854638326745103
0,102833514174186
0,090884724886068
0,0939288838317967
0,0958972487595924
0,106637351185435
0,0990781073416718
0,0927931217792186
0,0964914181152597
0,101317951468684
0,093896721126039
0,0960392446400225
0,0872035077786241
0,0958508723595872
0,0913781574533479
0,0915692875526768
0,094678097088756
0,09650172724693
0,0946993602524064
0,100169079213626
0,101656079004528
0,103612774528329
0,0871669894852001
0,1061950860461
0,0954762868748624
0,0990922017240038
0,0921790204601169
0,0947587142345068
0,0883047047489156
0,102644702684961
0,0988477630030362
0,095602466701355
0,0894748107045482
0,114348888282346
0,109983422003086
0,103402214430694
0,10808665559709
0,105744448743802
0,084179276837888
0,0970393272917442
0,0990684248665862
0,122412575367247
0,113714427103329
0,0885082817226682
0,0911078982066554
0,0914531750065453
0,100161110441104
0,0967726404455179
0,0873019574997127
0,0925573418076281
0,0950282583643855
0,100658455287685
0,117143420445548
0,12301937129706
0,0967815393284796
0,10678299291844
0,0971380612336849
0,0870820881261351
0,0910085234130011
0,0870024854873116
0,107026367356917
0,122496925822252
0,102063445506549
0,096348913381643
0,0883138668604342
0,108971077867946
0,114689567336807
0,0985767087796555
0,101660845016159
0,136607816351527
0,10676893033909
0,094896449086819
0,0892123335472538
0,0901801333363621
0,086637642042722
0,0916352912234492
0,0814141055880064
0,0935781091051976
0,0894299557611799
0,0884622608645517
0,105832109715137
0,113757241982511
0,122940629751201
0,156149425372696
0,124088875521307
0,153308831024128
0,111911325780527
0,103900530328128
0,147916094596208
0,118412596420957
0,0989484910989378
0,0858940125608173
0,091035189384857
0,104213174834775
0,100354712268028
0,105537013462881
0,133845583391024
0,132636540308997
0,0892722138683709
0,0952282738783276
0,0854157074819292
0,0880443628442717
0,142105242964428
0,144951727365918
0,0994673235452452
0,113337235181007
0,0880472887024615
0,113380690648626
0,151171975749297
0,119448472724075
0,0865476747569932
0,0971757173197516
0,0884381875979944
0,0896050138791595
0,114427392683494
0,14089932404455
0,105834861286183
0,102502629472332
0,107956072796306
0,152856949295351
0,169168098200115
0,113008645474305
0,0863377294611605
0,0865344441838228
0,114492816628076
0,146448078470528
0,112829672013768
0,103933735319735
0,124370408700439
0,101969251621469
0,0953434717691137
0,0918082237289027
0,094769603622706
0,126208232658795
0,101972801779179
0,0945195365639052
0,177241290344731
0,195723377565175
0,151737965554522
0,149013461375172
0,104027262962709
0,10350559974245
0,0972318665946258
0,0874042875056126
0,0835927500506731
0,0889991938760703
0,0891382182442901
0,124210202288465
0,128119453423144
0,100846468646307
0,12150604141003
0,146123260651863
0,117535204959304
0,111529801289391
0,165809881952228
0,112996403823083
0,0972734850015632
0,141693544756071
0,102679805133444
0,0890446757696182
0,115916527522434
0,125280124535345
0,0891563962122864
0,0879068350458355
0,0836438868761038
0,101050432348517
0,110696560096641
0,0949287457886944
0,0965031325609604
0,107006281732318
0,0990048652525858
0,136994331243902
0,182900915453214
0,132588309467971
0,107958803568488
0,0937732257937967
0,0879454187314545
0,153590099104982
0,128155508853895
0,0931241461675478
0,0857641354785637
0,0757841522561246
0,0798483740930628
0,0867842023667452
0,0901565431865699
0,0807916419624251
0,0943069587068131
0,142711956981104
0,116167287324778
0,0884712749008311
0,0874974941982096
0,11031336593879
0,119284504519218
0,15679218841009
0,12622114380032
0,0952984627052154
0,0947904638313736
0,0907264128977305
0,120759396614181
0,112505946009693
0,083777753542849
0,0871371102713302
0,0779397823824343
0,0839864394223754
0,0794906177630924
0,0820164435846745
0,0835893757615931
0,0866957575277539
0,0873749943174827
0,0853782489112876
0,0961990644181257
0,105564611068615
0,0937837831242016
0,0936594017565444
0,0880121115685103
0,0805766348346343
0,115013582158519
0,109354306107814
0,0907913190980724
0,0866876817846036
0,0882113636714055
0,0841931264149859
0,0833350225870298
0,0857860748736312
0,0874205399828661
0,0862475219681968
0,113523773884491
0,134698146420984
0,0972122214066974
0,0878642683219525
0,0854585062766515
0,122259084180014
0,106153999303541
0,0827129086991975
0,0899042733870293
0,0939665751847417
0,0770370901924576
0,101358923766907
0,143167343243055
0,101124200265795
0,0876592432444793
0,111968941947232
0,0964127815674465
0,0941915954921715
0,0969165901600542
0,115628218139499
0,19369989931165
0,12494968830898
0,124802846371672
0,163804499390013
0,124196790997853
0,120479710103022
0,104307422956815
0,103473553511844
0,248981307752091
0,155803590335992
0,0920977483784747
0,108353035014367
0,119551580856112
0,09763136625011
0,108122394464956
0,110798911920767
0,131102180771354
0,142680212812049
0,217524344831847
0,169414905269606
0,102682979620345
0,156464814763091
0,134305619693572
0,0987000448629647
0,0895613932011277
0,089859403454788
0,09225926815951
0,12113185077182
0,119997896621968
0,128059549828826
0,101726211807409
0,113379181494074
0,145222868061361
0,103990299438623
0,0869401163258139
0,111368812455315
0,112212052251269
0,0947234958779621
0,0875077787718693
0,100094950301847
0,103082717836239
0,0955574893167998
0,119432182713686
0,167289139311289
0,11820535298378
0,12272161768242
0,13376509120211
0,0999096818381378
0,0944827769304979
0,0902235577940105
0,0897315688478379
0,0888568488944397
0,08295464912955
0,0980518047355068
0,130329911762189
0,0928726843470291
0,0908855460785792
0,094959201773661
0,0814294795750583
0,089110024931839
0,0934907615475418
0,0937361141426118
0,101537165616947
0,0959319142289806
0,100116911243434
0,150984795607206
0,137101015672318
0,0954423959638982
0,167237753651198
0,136462366522046
0,108790176958934
0,0890254170603418
0,0993579311038495
0,100570289132475
0,102651879518986
0,103397933367016
0,0965410870235782
0,11005098827455
0,129426109178713
0,112284863343195
0,123882215432444
0,133873290567026
0,219805185996393
0,190303410683672
0,128864913246641
0,110598779946529
0,105089827375643
0,174014413789769
0,157164913465939
0,162275226455542
0,135462384544811
0,104941808891427
0,113002935022512
0,107360048520507
0,109241697197164
0,102691743124846
0,109472451960145
0,113008079063055
0,119933254822779
0,113368345705019
0,118586506126923
0,109787471432463
0,156227743255816
0,17359894848417
0,137100957343674
0,125197819903448
0,126183664634152
0,119880053416214
0,185590630733599
0,176959343091562
0,236824571482951
0,170032695688943
0,234712037667831
0,191456760135199
0,144708725661272
0,130655566996308
0,127697907591589
0,136257915571577
0,140567884616123
0,134511779130583
0,138309212712393
0,136217107898733
0,152921260750877
0,13701962661247
0,14483938913389
0,136750709141593
0,156177654786769
0,172249532508351
0,152264499995413
0,149950283123771
0,160007967539901
0,208649595224122
0,26213959370042
0,222814501443423
0,168841453848423
0,176189552608209
0,157662585728707
0,155566700156742
0,163079990579461
0,165370949639174
0,172300491604106
0,186427900536071
0,226289282740311
0,200675810730164
0,230579266791368
0,182683571728635
0,183364303584799
0,209767437682631
0,193241062117429
0,223546986016516
0,222749802757938
0,1920639713855
0,180101643269597
0,233185525460913
0,203487883912706
0,221576272424626
0,218740433402816
0,179575626795849
0,191134798030919
0,190702499422049
0,211573506088533
0,199236568636328
0,219483548193617
0,207436154482655
0,21748497906158
0,209205265883838
0,214841986102098
0,221842640825533
0,258298614965513
0,21459567722036
0,246284817189299
0,230743010771061
0,213807123736074
0,217651190994214
0,221314864343088
0,278673629754421
0,256194647846451
0,292763512703924
0,266282072127397
0,224037589647942
0,247364211849324
0,231294592131862
0,235316108033537
0,227301772670586
0,25495017977895
0,25329850090864
0,238140202462658
0,258410968561931
0,261269922207035
0,247322562848575
0,263551006307094
0,257159368529019
0,278656466328096
0,25131731301175
0,265322410849695
0,271912651963012
0,285152488193888
0,321640146312945
0,321243733635506
0,364930800027393
0,335038034403813
0,286170366908212
0,309950498937582
0,280729577159448
0,29643006778011
0,289733008684514
0,306228665982315
0,289678036021832
0,320149563241853
0,291658412618272
0,310812733413827
0,306041737573238
0,321440114496973
0,303107556651975
0,350830807158852
0,320092584642198
0,321922909468057
0,319504945859848
0,321520854353314
0,315570561608192
0,386339482103869
0,353139298987159
0,376620462998587
0,331128334637901
0,36319530735959
0,34983702018769
0,356452398866186
0,346056581407904
0,358428447560891
0,357485693429727
0,364110147742937
0,359227267648977
0,383763879432375
0,367646600325441
0,36149792720584
0,366647864007312
0,396730263336788
0,369991112857555
0,39126326691912
0,410878336822027
0,409578077618605
0,372908676376603
0,423089801776503
0,393136458437142
0,42111750458374
0,398060393895044
0,421582619322375
0,402332355529279
0,423173883973208
0,410028484404838
0,425302188942916
0,403084567274701
0,431974707670186
0,429762287156538
0,434219418299942
0,4251243950667
0,433208226068856
0,438493866394288
0,462176145189659
0,430906847541666
0,473738036826155
0,447785861392901
0,471525240487128
0,452449549415521
0,484370102954997
0,468631439368075
0,495017933355544
0,476880958348894
0,482886970238556
0,472318384090229
0,503094220155622
0,484919532068545
0,496292108800138
0,457176874321662
0,51136612924257
0,500614161592311
0,526793263336743
0,489118903682357
0,513475770883991
0,492407509999459
0,545910584930598
0,509033874839182
0,533910445965658
0,52342110170535
0,524378399493023
0,540015468729959
0,556119784676876
0,53703534345163
0,538424760024606
0,549477588513347
0,584853559883283
0,530420050010033
0,566080075136595
0,539140785801591
0,612003919204377
0,538900003849907
0,578713518872673
0,566574881320518
0,584200719877384
0,549322221515524
0,605238366353527
0,58155022544506
0,581964812509162
0,549585908242231
0,587549950396049
0,563496836845301
0,606407346371058
0,621805786026374
0,611380795941829
0,581073175911556
0,615639713441185
0,612420649871938
0,639410688704589
0,599574739688214
0,653171881787603
0,646710414687608
0,633458480726312
0,617156778623764
0,647606549855438
0,643733527126059
0,662549365569734
0,635170124862872
0,63708647222926
0,642136070992556
0,684632934191008
0,634527200129304
0,663256609075466
0,658830484297638
0,708956343548726
0,655479513798046
0,700442029068384
0,648415718681489
0,699545768431099
0,681452834902454
0,682710814283468
0,66199809156365
0,680447289780082
0,639479493189721
0,695108927474495
0,662182175075837
0,708609190316692
0,68589550233669
0,728372768005421
0,706748029692057
0,729222034802348
0,678069679168502
0,726985087126506
0,706467282673011
0,782395039014019
0,73898601599053
0,790823554136316
0,709118160807128
0,744391623461503
0,707883923240943
0,729857242617481
0,704095593466115
0,790211609925479
0,753088540039603
0,738739798180237
0,72457961307341
0,77803987483084
0,737525629771432
0,765308584864987
0,725817266730292
0,769970410894037
0,744201199334621
0,758289989665604
0,766009364025083
0,811585330859455
0,721399564194313
0,779680540935842
0,759459448312585
0,802714553233113
0,758685227815067
0,796656795600788
0,76335407129455
0,793977025493163
0,768894614244575
0,797670299341331
0,766519029057882
0,851171412082978
0,794409790615743
0,811087936188366
0,775880404078202
0,826136733507744
0,791822700048806
0,830130579176425
0,794297037314518
0,851976643187208
0,788843532778976
0,83933724599253
0,82047764846385
0,822836543318166
0,773719770422079
0,84034971635775
0,809148634044641
0,84239508648059
0,785485655535035
0,814374019359768
0,821265921182087
0,857718468074356
0,834104532971384
0,869796211759652
0,814328366639542
0,879959430082509
0,817777984577622
0,838193004431322
0,869495913597815
0,850512682060531
0,787418557997201
0,859100298725255
0,807625280872171
0,837588623464032
0,794403733549087
0,867557467601911
0,848867476657057
0,875022922324438
0,856311108093008
0,902571244035003
0,828261969497976
0,878701003791528
0,831066625245539
0,913458591294583
0,85422320439792
0,881699467104092
0,852248104569207
0,86715736656903
0,855587356286663
0,885777406778111
0,846942470001812
0,874797620702718
0,825256196904616
0,877785989601965
0,854459869812127
0,876736441176305
0,826123878098598
0,878108575177403
0,824890025759962
0,85944314781845
0,894169722344542
0,885272326846529
0,848927359789103
0,88391667288695
0,84981240478178
0,894730948701313
0,840032783812237
0,912635139861246
0,826948837128641
0,875985964902916
0,849316234492887
0,898927337973755
0,874205910812015
0,900503897880286
0,870438492802052
0,925021179689702
0,874384231447745
0,877030482932343
0,847190083055354
0,85950462407922
0,852779338816603
0,882488385112786
0,858545202855957
0,881838568529832
0,842629206995707
0,897167114346963
0,878044331907015
0,920890687722516
0,841460497004487
0,869910490165547
0,876621691641346
0,904153982194331
0,873388801895522
0,887334418788121
0,85000542478186
0,896143165590502
0,84997623851099
0,890309625492777
0,827218636146119
0,885628172334783
0,86196034386055
0,886824111376587
0,865290964284686
0,88713598468034
0,880403150979182
0,861668492679731
0,851586090559849
0,878887116901874
0,860677350542703
0,881519746280492
0,853908703376965
0,919609904491159
0,848726210889583
0,924604062160624
0,829580662528093
0,878208348240083
0,863535410840558
0,8773904822196
0,856774340640127
0,875922625183653
0,842432893132239
0,90469031958756
0,848266913490849
0,891481220172716
0,864865081332593
0,876987242830221
0,862168070155802
0,857988702225725
0,841491760253745
0,876315155697596
0,822455989647861
0,852305661323046
0,849463340991441
0,853546868260993
0,870851412579671
0,882823014812825
0,841981731510162
0,862150770016544
0,859312915757387
0,850176657113601
0,83223456790348
0,888681135259871
0,825627257071444
0,850807344768364
0,850774796499848
0,873394573419492
0,826238865220561
0,851762505361422
0,816882333486867
0,848499514208867
0,828254096772908
0,845780813737275
0,814084027353122
0,837108809660306
0,818715887389825
0,857658445308219
0,80761621465736
0,838321988782338
0,826628280857311
0,845726075834098
0,784166930725994
0,806187909998127
0,840567043606136
0,807422724466808
0,820937148218488
0,810498624057577
0,816102168221458
0,836718113926134
0,797208722480501
0,795359834084145
0,792840064190808
0,798091126543594
0,798642515876371
0,8335176463358
0,780473056492788
0,823516214860297
0,788437563048677
0,798807679424215
0,772368488128458
0,820604652121002
0,785889352715029
0,793467195755892
0,790227910533028
0,786503371575739
0,778031470792037
0,800822221350275
0,780313787968418
0,785909669988185
0,758251239965
0,783785098208064
0,773096957289093
0,76820686911596
0,760751640132352
0,763159936113663
0,771101983146417
0,780558266201502
0,736463086727706
0,763190438206478
0,738990271296892
0,757487264693247
0,746028004503669
0,769600658576154
0,731133336068612
0,758560856186036
0,732157850984411
0,762843752909974
0,72011893005615
0,750655382535601
0,738029631867811
0,734816571087932
0,714613231824322
0,751865080092089
0,712327117471857
0,725814459073427
0,706099974658899
0,723975495650558
0,69281273442205
0,724754031015102
0,714327133839962
0,734037137706653
0,697578159754094
0,71578245597092
0,686787021650002
0,7237133902834
0,674140523859921
0,698450867719096
0,682040794596144
0,68843493541794
0,680163817223713
0,679338524091999
0,683815719212326
0,680566674735236
0,67437613311313
0,684120163257374
0,668488234668626
0,679568491684707
0,662636405044412
0,69411839529101
0,659706700132792
0,667272666989067
0,666760269155252
0,66439338217605
0,639346074778452
0,656100268575611
0,635663018572332
0,665046165578295
0,647212501512292
0,647482772857168
0,641475513888784
0,652607351972151
0,618569739496341
0,635989768994089
0,627487837871539
0,632166193135349
0,624718200652434
0,621965843484116
0,615350255821361
0,611858553755464
0,61195102778617
0,623769890711357
0,608339470744692
0,617616501150512
0,604043480296992
0,596342760379271
0,595610984570672
0,599275249749715
0,5780548755231
0,598970550289074
0,592314183365647
0,595508097068764
0,576968043473157
0,585642277363152
0,58362659422922
0,588630621166531
0,571138318173843
0,582060135195084
0,581043953643497
0,583466608412995
0,560134113513089
0,563373544714651
0,566307900610026
0,581930785353736
0,558537078999489
0,551851503715193
0,548323502973723
0,552213056363627
0,552720618487997
0,554132565365558
0,543889270882496
0,543002359644343
0,548587800601524
0,546350258781475
0,540950285317693
0,532635783700829
0,516498516904124
0,531598125792869
0,53267367199001
0,524700624583775
0,50928398048617
0,51351315957555
0,515024633518708
0,529008367949118
0,514702598807973
0,505947718572641
0,508678515414504
0,515522219300194
0,508846546844916
0,502908640752958
0,501562424987151
0,503128011631829
0,488107427768817
0,497306463338009
0,492282958440452
0,491602887963445
0,490701154792207
0,499687527477877
0,482986634501953
0,490756500735227
0,479482931036983
0,486947345171981
0,484103702930898
0,475126059033899
0,475500188513856
0,471839320886509
0,471060782837647
0,472281043356026
0,468535101433722
0,465991063768035
0,465746942602096
0,463247628598375
0,456396811430871
0,459858090554599
0,443231908208044
0,461226424623695
0,452996038271619
0,455713818013012
0,441992875379379
0,451710484912994
0,44397121985509
0,443078911263334
0,449859542838331
0,444048569696056
0,443316415531686
0,44767432636489
0,429567335058152
0,441445548336071
0,438307062957187
0,437295100739615
0,429799627929456
0,432428703492259
0,420737320501904
0,420545374258185
0,419997153361363
0,421325034957644
0,420000886925428
0,419753692480829
0,419250598163151
0,424383916466466
0,411768561144196
0,412653519003139
0,409219581486063
0,407981817824356
0,3997876541931
0,413927173854476
0,396343863014946
0,392175625059802
0,400720282840376
0,399215157186276
0,395645242893631
0,394998410751215
0,395558613814252
0,397764548645516
0,388946342794919
0,392317196384094
0,382285943097689
0,389762654296486
0,395740569993767
0,390374278791386
0,380137067906524
0,38885537718241
0,383029343440489
0,380008113727017
0,378017484728266
0,384240848027287
0,380673772436414
0,372966002403086
0,375264515058059
0,376298258689249
0,37354780523338
0,366798851047064
0,363240028848376
0,367945094979382
0,36930431551841
0,372311508202719
0,376139470111925
0,371078012424684
0,362200901638401
0,360632113134873
0,35537345057708
0,358223281643328
0,356439160691095
0,353837441330185
0,349500466657157
0,352230426290326
0,34952041317624
0,347488297111534
0,348652494281985
0,348280332350115
0,341686525464749
0,343338717862372
0,338608182971187
0,338034103888217
0,340154574281565
0,341893384102092
0,342278738036077
0,34123201208639
0,33581493658147
0,338853332273279
0,338844435261267
0,340196858011893
0,341846178367913
0,335123140617357
0,329077790518649
0,333757623226177
0,336528375737778
0,332531866003433
0,325671079710598
0,332595112367281
0,3290141010992
0,327560856750889
0,324946561909796
0,333970644896071
0,3288961598443
0,32546828679872
0,331209634131389
0,32973385136423
0,321631370429984
0,327640518243892
0,328288207008424
0,329287101852043
0,323096669589231
0,334427323326027
0,328854219847911
0,327191213982612
0,326973088204405
0,330986768709466
0,329275241965425
0,326120627823806
0,327572551759716
0,331797155796091
0,336229810852953
0,335498676781208
0,333112322337982
0,334956576362849
0,336227030061027
0,339636621445762
0,338155073633428
0,339713477482438
0,342158845287225
0,337401679704812
0,339515270704814
0,346153557096641
0,344065975355735
0,341639791278393
0,341399747650915
0,338102103664106
0,342204871467052
0,350067247227176
0,341235889322521
0,348919401828793
0,353641177866935
0,349173147595795
0,354380090883015
0,35566459040173
0,360657571208793
0,359146224883196
0,352243477226048
0,359021307875499
0,360380248222556
0,366555689057685
0,370570595012284
0,364171907398106
0,366419596296117
0,370653539298498
0,371278625032584
0,374928475851996
0,376030946126822
0,382480293059025
0,385421462691137
0,381431661033211
0,382307187433849
0,392133740459517
0,392082306328773
0,401805131586583
0,403671872386794
0,395016623901286
0,391645396994111
0,401113748883563
0,399493391147847
0,407211403674286
0,414542328497437
0,403245097394244
0,408096374783209
0,407318930978361
0,408917048873843
0,411950153170131
0,405925252130057
0,414892139041226
0,40721915576306
0,405687761432104
0,410153097071787
0,409931905194607
0,41232117855644
0,414539675764204
0,416156351228235
0,412676333209916
0,405862860538562
0,40879328402071
0,408430068270252
0,406512796496202
0,401366724318519
0,411108904458337
0,4153918298065
0,408910618749084
0,404869760075029
0,410718602343739
0,408549759791856
0,407445265681709
0,411431801071499
0,408467997866611
0,404261182948356
0,408652213993225
0,414040492642555
0,405196994031427
0,406869898902892
0,413127327487745
0,412042053826697
0,416909382944917
0,414748946153057
0,415616339960881
0,413252380623888
0,408906144325712
0,410926562035033
0,413121939292157
0,418733326675297
0,415958401492821
0,413939851054435
0,412673776189614
0,413601965182959
0,415183019079129
0,418747244687517
0,414927867327431
0,407647971514426
0,414682945883625
0,413479802913969
0,413901237268561
0,415264119444631
0,413595067002685
0,421173750141456
0,41225354035885
0,407264933298069
0,411405032346455
0,404059713446701
0,409089469697713
0,410917028701979
0,403094940283247
0,408366374803924
0,406045974662367
0,400486874642908
0,394945489955271
0,395440806597132
0,393224438488133
0,389473811394784
0,394213954859108
0,398366858355552
0,3917126276227
0,388436119984754
0,384447175872387
0,380056847873888
0,376583667166157
0,372200728554455
0,370853824349117
0,375589512534341
0,379137224894914
0,376074100465944
0,368064841250627
0,3666354935233
0,365124173064734
0,35729326362384
0,351364215733096
0,350115524270085
0,350066997400309
0,354826792601122
0,346619874947377
0,345350950779425
0,348470237507811
0,346643791069869
0,343686007631906
0,343613058293133
0,338985112823467
0,339643794186583
0,338249852956225
0,336905942852559
0,336114383297014
0,336804127891957
0,337499510656265
0,330387752432619
0,32553870633791
0,331300449320187
0,32755059295428
0,323456053184995
0,317337045790743
0,322701280376776
0,323804525627037
0,325164224164122
0,322294918686371
0,320957331047259
0,317524222357352
0,319322066563914
0,311830444063274
0,314430918256024
0,313658680175124
0,305595439910083
0,30787172103346
0,306078624742777
0,30810011909419
0,311841721167366
0,305825084488014
0,305382055087746
0,302071076087391
0,305280717973964
0,301806135618986
0,29997235694839
0,303638840296917
0,301210899312063
0,297512155881718
0,295983095853482
0,291703123568639
0,294800756545852
0,294749200037697
0,295945490498462
0,292011059013571
0,294053989524728
0,292948185657243
0,290869965099495
0,287044940179209
0,287698068584541
0,289106909194417
0,291575355820268
0,282695539901138
0,282823641435466
0,283269319906897
0,280917373789557
0,278886819438504
0,28444804123429
0,275926494406645
0,276936260242822
0,281464337369032
0,281195333865726
0,276488449406463
0,278936971884504
0,276860107280182
0,277462908227064
0,27811312845084
0,279220706401685
0,27785358469217
0,27656696249428
0,275489058693886
0,27015088108579
0,269975379791504
0,276014708556015
0,269345132992787
0,271414993444271
0,274454633475483
0,274247215436117
0,265782563661207
0,272982271749043
0,266711770075025
0,267285483816343
0,264388355184085
0,268372727745276
0,271020673297214
0,267012953730506
0,262139106455703
0,262965846457218
0,262254529916547
0,263360263510703
0,260094818012164
0,266109526837876
0,264673810418002
0,262832721979742
0,259677182329033
0,259290562369803
0,256886661916013
0,26061390624837
0,253891958064438
0,2539155348921
0,252041195493223
0,254181624179035
0,256542391496498
0,254119465464535
0,254546033472911
0,254078073280488
0,250824262645857
0,251452078351278
0,249784890156949
0,25543827025927
0,250562914566559
0,252815186744068
0,249385124016735
0,249065569949838
0,252224307751438
0,255659268037907
0,250824497133204
0,250697182702807
0,250035449941736
0,249863942131375
0,247730754149501
0,248521005668302
0,24838983694436
0,249430216241569
0,249333091609466
0,253832632227375
0,24850365473376
0,251535220906517
0,246584290822178
0,248865410804011
0,247207749231644
0,245862710672319
0,245440500155048
0,242433330587958
0,241842476884275
0,243114869882131
0,245904427507812
0,249725481980795
0,243775497088715
0,245171642709449
0,24817844265359
0,243087014409755
0,241627871692638
0,240183243653659
0,239277797070095
0,241748251453304
0,238780416900395
0,246346831907166
0,239141793062225
0,240446089846287
0,235550086199237
0,238605318493028
0,235234039978951
0,236550704234075
0,23577541517033
0,236533268628073
0,232881880092446
0,236210885858708
0,231270882767026
0,228867083205119
0,231406332322192
0,236788550876596
0,230811860841312
0,228373631759761
0,231852896086811
0,229243582704419
0,226771170546924
0,23199745697248
0,226366713856753
0,230155300629533
0,230108268217676
0,227361238692028
0,225188697579381
0,229487102595646
0,222986116585885
0,223312800500174
0,219033837283791
0,224399914325219
0,222036291543062
0,222363345045414
0,225406685539847
0,222522558602954
0,220620223952818
0,221340696272171
0,21893176719868
0,223051267377639
0,220281184593285
0,220372888466988
0,216707167220063
0,216159077128297
0,214809682971081
0,216555318626714
0,213665833988111
0,214094834078278
0,207641864565223
0,210945548536816
0,214852299376454
0,215023757572691
0,21102148814295
0,211619406534642
0,209582218371556
0,215469493133608
0,208492141400097
0,207783366882439
0,206965212264973
0,207751021748667
0,204026858188402
0,20566281318634
0,202535652430308
0,205948400413986
0,202314941737267
0,205051542879381
0,203374763156338
0,202782143709072
0,201567464236862
0,201309104522635
0,195085627133047
0,196213339065138
0,193909472458071
0,202450405005338
0,194301028135897
0,191631089320603
0,19182037249365
0,193299862658119
0,187729253190678
0,190062472667735
0,191108822906222
0,191185547481282
0,188368725208266
0,189994426237583
0,189313656036322
0,188671670854483
0,183737503022007
0,185491677241947
0,185066426745715
0,186044985608946
0,180796728495342
0,180850416208761
0,180256889527773
0,184356218940556
0,18298179602115
0,184183964663924
0,177196829912313
0,182106893572297
0,17937217671759
0,177679661907746
0,180166295496382
0,18064215885344
0,179059952071604
0,182967767489656
0,175456252207158
0,174783674341268
0,176977245946074
0,178937506889448
0,17285397868562
0,176575917032117
0,174379994384925
0,174637544701246
0,169988451247384
0,17512339879375
0,174815077285744
0,173609664002212
0,167614752071072
0,170463277864197
0,168483726445644
0,172704442670799
0,169043078129371
0,171548173108551
0,16498575106502
0,16875878557046
0,166538606027443
0,168914976089022
0,164625906721238
0,16987375247593
0,168227148193266
0,164944415388049
0,162204023016014
0,165593336235857
0,160690595794112
0,16124187584335
0,157532340704179
0,159518042627875
0,159890509633244
0,160393695027142
0,15904532452846
0,162770304629495
0,1579338076373
0,158856761866897
0,158670983924529
0,157787494251527
0,15549011063078
0,158062784240556
0,155670532801288
0,158513016444261
0,157020449631908
0,155685382277369
0,157039658768867
0,156071804926045
0,153002468637043
0,155773547516262
0,147810013005564
0,154900471445653
0,151877858545303
0,152468278877759
0,154059731394705
0,153797856172017
0,151010393915027
0,153606895952307
0,148169517294432
0,152664868303329
0,151364251420062
0,152011892268797
0,153207426514046
0,150988988762351
0,147539008105724
0,153440670152652
0,149528555580132
0,151718024531024
0,148996456566173
0,150238022954743
0,151906444778535
0,150332455215414
0,144505126939825
0,147891886991607
0,146306084960159
0,148594151762041
0,144442736765576
0,147345513721898
0,147077660457766
0,14811578732067
0,143078377167672
0,142892705832047
0,143288250270666
0,145300824500927
0,144133833088308
0,145412457957267
0,142533759083884
0,141534222586681
0,141172087996788
0,146010294944574
0,13807611472774
0,139212024934739
0,138068273473473
0,139291879635379
0,13807610666632
0,140478657634352
0,137547976579553
0,139415183706873
0,137607398656378
0,137213898099177
0,136878111560739
0,13828312806752
0,133481398839001
0,135532637282393
0,134514867216821
0,141506470388922
0,136601267824077
0,136715798162258
0,13499308666208
0,137818167391525
0,133007212297399
0,133854000211864
0,134456170461925
0,13766546259956
0,131306529782407
0,133987012604552
0,132382572358119
0,133876054237727
0,133561331057298
0,13537649935085
0,130647644934849
0,130935510615862
0,135593311305981
0,133252171596327
0,128268922790445
0,131498697385648
0,13104645471252
0,132194443253048
0,128910782025829
0,130167866554127
0,130398023011824
0,134124155492826
0,127508127718391
0,124068990541971
0,125492970489247
0,126984090285459
0,126038894290604
0,128070816434705
0,124601224069495
0,126422481287396
0,127350902733143
0,126302491232307
0,123364933039906
0,125102307543025
0,122458825774789
0,122617781909426
0,121062161492914
0,122998511951056
0,120449298861728
0,119865687795511
0,118853083610342
0,12245816348379
0,117519027816643
0,116972574803079
0,12001376658174
0,117982094341694
0,11538915858176
0,11420270421613
0,116250357219606
0,116262823475186
0,114336117009849
0,117067592990684
0,113928589461021
0,112538951250151
0,113985644586805
0,11623318620463
0,113461283255493
0,117038420053966
0,113504760459942
0,114234317210225
0,112211380646655
0,111312305570043
0,110303564696814
0,113233056467367
0,108954294274611
0,11083573088816
0,109578949120843
0,110108359288932
0,107455389825834
0,108065627188443
0,107089861859976
0,109268084354303
0,106866053087124
0,106494859555009
0,103712803157741
0,106626577513763
0,107733201391682
0,108885697655604
0,107522075956326
0,105421934721642
0,102781983294515
0,105125961529662
0,104507892864869
0,103121240434953
0,101970906438487
0,104727311912533
0,103189548010331
0,103243314497587
0,100598848437425
0,103337522660324
0,101353531578553
0,102061079866749
0,0967622907609406
0,100727726599852
0,0989680450354726
0,101917407559021
0,100032660925238
0,100768555657441
0,100041077924174
0,0982147727424198
0,0953874214132977
0,0967446303475531
0,093149102500498
0,0985040419288267
0,0947907743528265
0,0966986515013054
0,0944717278983867
0,0930431675890882
0,0922431380146558
0,0926635185871653
0,0930194985219322
0,0933621885129826
0,0911151815998823
0,0947328500423317
0,0937341991081384
0,0919148278303053
0,0907171221239387
0,0915010448973799
0,0905523825491524
0,0940914076412327
0,0922186624161475
0,0913261657543196
0,0918824839234591
0,0916152238255419
0,091546584137772
0,091831410608123
0,0887521244459133
0,0908194347042455
0,0878892794098528
0,0894438135571451
0,0908458166340324
0,0910349275035674
0,0926423587082447
0,0914214573020555
0,0926731460463617
0,0915064960745247
0,0934008270320327
0,0942667326672477
0,0911662687071089
0,0939318799086647
0,0914024740878065
0,0926776514827613
0,0936142740634827
0,0929085225875155
0,0950337815366136
0,0916893985484216
0,0915037818421364
0,0891149496717632
0,0858911833234188
0,0841659362213549
0,0823483897907654
0,0908900557457368
0,0851089806575462
0,0808638613020022
0,0781821566651007
0,0854198359847874
0,0854999073203707
0,0772181051003722
0,0797672177665837
0,0792933279865728
0,0741652444857133
0,0897625658608073
0,0798930606747092
0,0727448880652467
0,0803762457749903
0,0794925551128034
0,0894021538084866
0,0816488071609381
0,0845554191984257
0,085884683598111
0,0857437537792259
0,0829211290755615
0,0858969955033489
0,0750299110616416
0,084410085446284
0,0789700914391609
0,0849716820520386
0,0719195101569814
0,0889359338015136
0,0750724934846036
0,0912459994021639
0,0742516439969207
0,0946906126913949
0,0756549089140077
0,0952424381838311
0,066178581337292
0,0939089968073309
0,062711976851617
0,0959366172638472
0,0628219408375369
0,106976356981217
0,0568241512543484
0,10810165624496
0,05551930054601
0,108029751783201
0,0541934689190711
0,116809345011109
0,0470500876219288
0,117567525241255
0,0585032372250391
0,118579637865639
0,0553596722864927
0,106770399582092
0,0696128637166112
0,0975692778483163
0,0730531959872675
0,0875046309156114
0,0865799877194904
0,0744007212432883
0,0989799594249302
0,0702620784183983
0,0951562784160387
0,0689501810720948
0,0987705094013902
0,0712785081514225
0,0896900743127769
0,0763326360597015
0,0813729787226641
0,081679852275476
0,0792342230453301
0,08184321881612
0,0753271261701578
0,0793568650150807
0,0780002988385517
0,0743231238680202
0,082982235664194
0,0750725345991215
0,0796173486705795
0,0759728830365577
0,078480020049089
0,0741372110950031
0,07609267126338
0,0739986144666982
0,0774607557733153
0,0742454522172402
0,0759977638564911
0,0728537836257311
0,0747081958878078
0,0734118785279326
0,0770147672913387
0,0721186174507943
0,0715253346107158
0,0731155498036643
0,0762950341775853
0,0723969453204309
0,0761355238056827
0,0730593861368094
0,0756153772866834
0,0733754045478087
0,0748191768080875
0,0724956088409065
0,0745826059286456
0,0757263551472285
0,0737856472725411
0,073629715909773
0,0778665658954016
0,0722717725430624
0,0758421302547516
0,0741678948732888
0,0729349823580422
0,0741246491652804
0,0737442609414319
0,0718166277785529
0,0739127702570142
0,0736124216819628
0,0769977369277084
0,0706721904555654
0,0743315383449612
0,0718218612291655
0,0727700996992574
0,0713678330106764
0,0765967755336412
0,072894431914377
0,0762360989122397
0,0710338485378654
0,0746551299370783
0,0725453400142387
0,0755710306197447
0,0721538255656739
0,0747243784525125
0,0720310448956707
0,0755054155765058
0,0737864597096565
0,0741278605747052
0,0703973507336339
0,0731465732289047
0,0706013505102144
0,072801814444387
0,0735183684111959
0,0740804426677445
0,0718918249524252
0,0735513967901126
0,0728962250500152
0,0754331439992432
0,0700210774038963
0,0734195148509717
0,0705115414394301
0,075634415136563
0,0712318064495495
0,0726085360998436
0,0716789715698751
0,0751491224190995
0,0723569852992899
0,0748511781096824
0,0730124132080867
0,0724911317149352
0,0727113692358697
0,0747066670348646
0,0725371662740047
0,0739001371876156
0,0707815720052637
0,076092827401386
0,0741671710376967
0,0735085957572939
0,0712652447234821
0,0774896540681168
0,0745749402688799
0,0738927657023715
0,0738598372245257
0,074567865249831
0,0739831646887969
0,0747863063011787
0,0716722667838781
0,0753477229945877
0,0726704039648934
0,0771913590952196
0,0733748381299633
0,0747533518989381
0,0724413446876999
0,0752799133026168
0,0726654255627765
0,0751730704338653
0,0742506647509273
0,0736891906376203
0,0734119169094732
0,0750659709068158
0,0740648160769878
0,0766892401175339
0,0734594600712186
0,0751578044554962
0,076004353972785
0,0765853416130326
0,0726708477655155
0,0739049193023121
0,0720847562516978
0,0747581874623162
0,0726716353402308
0,0755135102544643
0,0719609252653187
0,0742712952802185
0,0738534301440001
0,0753424460535666
0,0734317414602271
0,0759347462250435
0,0729913455910369
0,0755260895493753
0,0736458075647716
0,074522540370754
0,0739423615673933
0,0763074282750301
0,0735500546298011
0,0738271568462716
0,0732455564676059
0,0751275266560149
0,0749697760865003
0,0752359469971029
0,0725413167681205
0,0760698196500584
0,0741078499746081
0,0761398760199336
0,0762505543182928
0,0772545473223659
0,0733401996050148
0,0783065471879199
0,0766447640388443
0,079314367619182
0,0763044128155867
0,0770205040187799
0,0760794296006579
0,0804450850115354
0,0733779701473168
0,0780180335716258
0,0760882921281185
0,0760261247547989
0,0737672726709488
0,0791512480265475
0,0754912614558406
0,0758340387427915
0,07615088813875
0,0784070108760404
0,0762708801082854
0,0746015767995105
0,0736446830615154
0,0764766859622194
0,0763513644995887
0,0753021594535262
0,0750891802684163
0,0748259921647918
0,0731867865716532
0,0764638191127533
0,073462004599285
0,0742693237836929
0,0737941952079554
0,0755210966671582
0,0727904301897329
0,0719516600961349
0,0740976401939816
0,0734285206528386
0,0723492787800471
0,0741103792170308
0,0719047627911512
0,073855287399691
0,0711169649185559
0,0717923293931735
0,0697197385132825
0,0733463695230059
0,0720889015669008
0,0727279342806751
0,0697152376567386
0,0732403901898349
0,0708140232250867
0,07331189444256
0,0743874357678069
0,0715967929895196
0,0707692763377889
0,0720876301964392
0,0722266132039427
0,0683795518360349
0,0692482516095931
0,072709706832699
0,0692362210151515
0,0710596324415536
0,0696716988713054
0,0725224590010429
0,0685954000591207
0,0673917332054311
0,0678552653673494
0,0705022057116892
0,071875982125217
0,0714643340329663
0,0730831301583433
0,072514727874953
0,0694195749037752
0,071107523871761
0,0698867283369711
0,0717314782970962
0,069775911131858
0,069159679785123
0,0716815850846518
0,0704816376927408
0,0707518795409922
0,0717907062360769
0,0708700931338407
0,0713449189435495
0,0685868099138597
0,0698934197157551
0,0668207866100298
0,0690740385821944
0,0681281875316349
0,0685158618747709
0,0671277949407572
0,0686958771373043
0,0670965679221913
0,0682393370773535
0,0701521113598642
0,0676997744074518
0,0685688912709499
0,068294590748933
0,0677908735133054
0,0700774881669047
0,0655843008430408
0,0676979254511574
0,0666084776970844
0,0675370265814105
0,0688624094417409
0,0711549121716854
0,0705501324738485
0,0689684243859822
0,0688020956400789
0,0694032794988737
0,0679438016906752
0,0676264476993337
0,0668254605259032
0,066758828561976
0,0662456889030406
0,06821839218016
0,0649719643506372
0,0663686420172893
0,0668603394557076
0,0669449831813138
0,0638160513088819
0,0659393164995896
0,0666368924818087
0,0678702385694631
0,0659399801156644
0,0694525357962164
0,0661776177714709
0,068122356014701
0,068284742827312
0,0656481538968746
0,0682265318256193
0,0713479169399276
0,0645714140520029
0,0663489827763988
0,06433747719891
0,0664806785744783
0,0639773838880802
0,0631822543887911
0,0655431661894158
0,0655616183983326
0,0650280437124368
0,0656371222397747
0,0625741018586594
0,0638319340774423
0,0608612445252384
0,0636361696920218
0,0629272084948023
0,0632470839627277
0,0646621644730216
0,0655853634237859
0,062815993811181
0,062671650349665
0,0626522607532277
0,0619698751444671
0,0617842229408682
0,0657256773657323
0,0662730554228586
0,0748865676156065
0,0618514031109597
0,0603552122164101
0,0599973675288928
0,0596367355754304
0,0595068780440614
0,0614672529277729
0,0611989506299202
0,0619024187209637
0,0594958741322379
0,0601879884478759
0,0580508533274573
0,0597694867288449
0,0566135484355442
0,056913120269297
0,0577247469917295
0,0573562837579391
0,0586828655052417
0,0587932751593127
0,0575803183461612
0,0588752748401718
0,0571946715833184
0,0587559159619223
0,0568058412103352
0,0577598595790659
0,057693215501956
0,0724217715086295
0,0759972620982958
0,0582830649879997
0,0599264871720041
0,0636254743363213
0,0613511105772795
0,0556617269253398
0,058360435074611
0,0584036192694298
0,0576071291284274
0,0579685049021935
0,0555083568672104
0,057735387696467
0,0571984123695543
0,0576093887969151
0,0554564502093497
0,0550441122567694
0,0566091545458096
0,0559622298918188
0,0563305465016664
0,0538515094119971
0,0543475001094485
0,0557071870962934
0,0556316669709333
0,0558095085732265
0,0543398099007994
0,0571546368266124
0,0691690783176005
0,0652058873042892
0,0585408189874236
0,0549733381438693
0,0544057679666175
0,0559962836456982
0,0571138683969629
0,0564266020017081
0,0551156697844355
0,053521743753853
0,0535620286594701
0,0561689666964157
0,0570753051356018
0,0564053023365927
0,0537119700789007
0,0543911373525599
0,0568586803203778
0,0524377732079987
0,0527699847485794
0,0543424152791116
0,0535613102651571
0,0529384097372649
0,0562638322451214
0,0589745674834759
0,0596046791790209
0,053202280286918
0,0667094934877316
0,0829200130881508
0,057919163632292
0,057826120892734
0,0529957659762266
0,0531357977401249
0,0515359575375179
0,0528422228915996
0,0516568075976203
0,0544928738167436
0,0526339768379493
0,0541727822934854
0,0527131748454056
0,0526440845477359
0,0519870107528957
0,0546124836211131
0,050834203364465
0,0526969480702583
0,0510906022551352
0,0523028377416903
0,0536950772445356
0,0638651404933572
0,0745192797815201
0,064099649783417
0,0549560554537248
0,0545208281480074
0,0564745870139452
0,0857882882641549
0,0637220241126545
0,0532877924721112
0,0567891434393378
0,0509047518405688
0,0515094780229945
0,0502969866540367
0,0503744210650445
0,057430490841282
0,0646794733237479
0,0567230210922222
0,0594400462655821
0,0527312854337783
0,0514905559468858
0,0529800314696063
0,0530469352843548
0,0508463284522759
0,0534206590464602
0,0518862980461389
0,0524577586752525
0,0529737457942349
0,0493011421799422
0,0504044958038202
0,0516587751350159
0,0601375232474314
0,0632336538860541
0,0503848230207718
0,0534854534531918
0,0526640264715297
0,0505355770706219
0,0698277864966763
0,0757554708034058
0,0513183504288418
0,0554581287621386
0,0507454241638416
0,0547506244752332
0,0539443812134521
0,0516039922433244
0,0518199599734748
0,051071969732103
0,051861203885313
0,0546166325102437
0,0516651187863269
0,050518798776928
0,0521686655857131
0,0505929580210809
0,0505223269368041
0,0503916469468013
0,0507986187476668
0,0517819345552906
0,0548675376942738
0,061062796339695
0,0872504498667759
0,090692111933688
0,0763178115434452
0,072302010065213
0,0609797870863045
0,0561779075007988
0,051907310805248
0,0531894302580494
0,054782441446364
0,0573848810605067
0,0544177178469168
0,0528377965203454
0,0533467641830952
0,0526181924207957
0,0499273817455869
0,0523403018835983
0,0509249490236835
0,0497015641331987
0,051019181391495
0,0536521712100562
0,0515151580278206
0,0517752815231716
0,0533022415595099
0,0670932511820802
0,0664735655557389
0,0569348803137594
0,0663202816357903
0,096665529778943
0,0836658921884453
0,0645404349352975
0,0631650297733733
0,0553068768654137
0,0552993774776135
0,051164677524639
0,0589939619954185
0,0645277753719107
0,0543014762915814
0,0520336747040573
0,0534023076390871
0,0588123815822202
0,0565673226615656
0,0536722706221306
0,0819257479647271
0,102248074263986
0,0734578239632393
0,0574132208915503
0,0545323747442178
0,0786013751121094
0,0973477160543818
0,0621095394168127
0,0602547091193675
0,0615317152520494
0,0529904031646538
0,0540144976395682
0,0526706104611739
0,0593802933685136
0,066512157158639
0,0592749320684521
0,0547338174974636
0,0547515052395989
0,0539518709527444
0,0627984231409097
0,0664468028869276
0,0749422052879536
0,0696710995622273
0,0583598878390756
0,0665968452201684
0,0662465401316003
0,0573040166914476
0,0592398766923494
0,0580579846655403
0,0614916380945104
0,0789434042257814
0,0791839310450578
0,0743896542206696
0,088129158523003
0,0742864550897558
0,0596689461170445
0,0681918999307714
0,0843806823372375
0,0706879852546605
0,0614451876706103
0,0874653442411846
0,105023671606924
0,10020578344985
0,0871368535191145
0,0698598725864953
0,0604403947842563
0,0649437595709618
0,0541453353685282
0,0669443547159072
0,0855318643818792
0,0741155918657432
0,0593311934577448
0,0662953192223084
0,0755406825909385
0,0820470496177165
0,0693458560635208
0,0678278600937266
0,0607414038837261
0,0681472820506071
0,0871380235959554
0,0723251986611932
0,0801474955809232
0,115098528625348
0,115130963269757
0,102555617000788
0,0715524300720043
0,0835767440363086
0,105772812333828
0,0810944604678764
0,0672594103102685
0,0670473598541497
0,0664555130902969
0,063085588321654
0,0870776362413941
0,118229195629057
0,0787257928147673
0,0697117110978274
0,0743590288737117
0,0830040408454329
0,107720473894066
0,0898061211184924
0,0670757926926018
0,0749719356265477
0,0694897991353282
0,0898205870365969
0,13029658338963
0,106983849296451
0,111076727549934
0,123758448672471
0,110065651930572
0,0993334532783891
0,0926785080806367
0,0873161189372619
0,112628758053709
0,113241721748125
0,0851427790145921
0,0807990630129727
0,121817274259089
0,107798711818155
0,0938911566412163
0,0874649062663146
0,0884591689394505
0,0937984057275487
0,162325582200889
0,17989454648733
0,132722585280833
0,0945454239357613
0,110383856276441
0,129879638547238
0,101881872139061
0,0859272915827792
0,0889193270272769
0,0891561135802068
0,0859994612619241
0,0959213553183681
0,107225945691392
0,0956905126620945
0,0999792271836969
0,0940061582883026
0,106731506499712
0,150469287446978
0,20401904883179
0,135928240724988
0,145479094277926
0,14657441110852
0,13954248658645
0,118286477084471
0,106332526270241
0,106146155351124
0,116759065996553
0,112958603238289
0,105389872439869
0,121802042204226
0,148230508831426
0,133686931451988
0,156957326931849
0,140295342582947
0,135502660748257
0,122530857954509
0,19509412012121
0,264437848857067
0,183110466297042
0,143934513783532
0,159489153012736
0,202763626340742
0,211004221084598
0,163717028237003
0,145483707057802
0,145263878505261
0,14298767284928
0,158460750481878
0,170289825249142
0,176647976396536
0,18635576445436
0,165572517959058
0,179479250525525
0,218640724597467
0,317729000527022
0,27744608501871
0,206412451315108
0,202073703421595
0,230730103386134
0,219591668793334
0,20138927272276
0,205316534633595
0,202554892339553
0,254750491612083
0,259519567792351
0,242701509707643
0,216859413366638
0,2593921651901
0,247939743319849
0,268368059219122
0,30039889142875
0,296088286242065
0,261341027423088
0,251069543484053
0,262766064492988
0,252958535622596
0,278806399443686
0,299352352278919
0,30182542259854
0,281932085003993
0,276208393505817
0,281450853436977
0,284206379115813
0,298620935553009
0,292958766517221
0,315687840931041
0,359805673856125
0,425266766731059
0,493352253059087
0,351803534799468
0,3185030382272
0,300586651078687
0,336611308189045
0,357248234408334
0,37905780218566
0,384104752897026
0,346516486920243
0,319662023109742
0,316455306035213
0,31900123727154
0,307352163871132
0,325374236812744
0,310476859828918
0,327811189438469
0,343356852200203
0,341572565358823
0,406274385949805
0,38637050979935
0,343094714403379
0,308998632499443
0,315277032326405
0,300956769353533
0,32347245984795
0,313375753175648
0,348107276788053
0,324895322757968
0,328826596632724
0,30144410283482
0,320222758534363
0,342308320596507
0,346236510472934
0,314907390230729
0,300865187388303
0,297467450969213
0,292380362553811
0,29308357622275
0,346498947316957
0,343142003661133
0,320567024279329
0,281551768920879
0,291939381436267
0,281462681734363
0,286375131199188
0,277526031411132
0,303715392651429
0,280075306186199
0,289002381313463
0,280088391164642
0,282967021302368
0,272310310665264
0,283771547268085
0,281339443833942
0,285853569345271
0,283757583766616
0,280716206825986
0,276093281630805
0,282167006708048
0,275346774757424
0,28183260625498
0,279812486795313
0,290294548423038
0,278733774922842
0,279656468024256
0,276170547546035
0,28066416732065
0,279636995484118
0,276819956652716
0,272904827272338
0,276055794675212
0,268464603055023
0,275560658105413
0,271684607011294
0,269955317156486
0,268420198200895
0,26806239395135
0,271569506825785
0,263837121309509
0,273046832977411
0,266012451026035
0,300224593164234
0,339429461668574
0,290741186358857
0,280306048959732
0,255346051883017
0,273541894352961
0,245249733161123
0,276332676752285
0,309905266993337
0,298408847407727
0,256750431659142
0,250334831829574
0,252911954915175
0,287912968136855
0,253648991222075
0,260067415296895
0,235188327704137
0,264115297017796
0,317586813473121
0,355376959834818
0,437766583601918
0,34897798177709
0,271839001036724
0,233723953401294
0,300030460683297
0,265446081511568
0,254025885186332
0,220445437476656
0,23871809536878
0,284820484422528
0,245777244270778
0,232742120419865
0,21613254440042
0,237896204350458
0,275858348201808
0,273905980505499
0,259517085954247
0,297324327588453
0,276163151171435
0,291416478626834
0,329004492634527
0,358912196097736
0,251314360898805
0,221202944958503
0,214108520600781
0,215011682519048
0,264866709291951
0,258857931643034
0,239861577268445
0,233543042253774
0,199853123929718
0,212294658967441
0,216499606200458
0,258621872587204
0,203378002437126
0,264550078777114
0,229020279053159
0,226795809372654
0,225229812222247
0,258594986151951
0,293704575512996
0,285803948242556
0,212017078011269
0,199582901553671
0,280253309816473
0,240521260236748
0,239078611974769
0,212900511369046
0,178530476539692
0,218718598776699
0,205981155596459
0,200300709628114
0,224666967909027
0,232597519343046
0,283210596607098
0,289063745144467
0,334256019600087
0,261101858015983
0,194399659250211
0,181163748490636
0,175199878026451
0,197948607501498
0,170484447244579
0,185488257658647
0,224936123893354
0,175703860052141
0,225132945376387
0,218672804532063
0,197719277270286
0,17942874075624
0,177912827313223
0,175577607769858
0,200265736093086
0,248030662758071
0,266554819925575
0,208339840940067
0,229842420653814
0,217016031712834
0,217427479658773
0,190067865481237
0,204421319576699
0,191194779134525
0,210686146025279
0,214624053643069
0,212319587668436
0,210639979909738
0,217113456036432
0,211144428793014
0,299918269361739
0,239530872304631
0,26326543503797
0,268699042470253
0,316381117024059
0,32509834332933
0,268561889830338
0,26232779541184
0,251305425730898
0,264442837024892
0,261959109113551
0,261208686207007
0,319236865383703
0,296823911294818
0,297111156189075
0,276321720530306
0,289363340439312
0,279015689101113
0,314415748022318
0,337936231791491
0,355620726691393
0,42317583881697
0,350891455462675
0,366148010987185
0,306990392982456
0,316365647074268
0,315575705453738
0,315345401588267
0,30976893159616
0,303056983385565
0,337717156415772
0,345099192411652
0,322340258359994
0,319095095190705
0,311877622721516
0,319548473846578
0,315745267358841
0,322170646412768
0,323198459051957
0,325382787459153
0,330698259106089
0,326181284074838
0,379256315223036
0,417175595577344
0,3664661572283
0,349241318373897
0,346989558866345
0,365985995574223
0,343558062641793
0,368365961857881
0,384166637650536
0,368973040460176
0,362790426477317
0,354213294580385
0,369659905076678
0,357048757063338
0,402378996100986
0,39138772226989
0,381327084771265
0,383840412854584
0,372276025200292
0,473236097874039
0,418700060886458
0,442684358065356
0,402614040617397
0,411490044628501
0,381107519500792
0,395913972502936
0,383461334040341
0,402840552954335
0,394299298155065
0,398570923367148
0,391784403971397
0,391919185257167
0,398190927812963
0,388485466596484
0,415944783124318
0,430885052836639
0,402344846486254
0,398151379503007
0,393961840145056
0,391797181722789
0,395583467573106
0,444076414384321
0,413724994731676
0,417415253970544
0,394915024449054
0,433936046150311
0,445153536196946
0,41647358769557
0,392809176251236
0,394850881027842
0,388136748707412
0,402726004916982
0,382488142927161
0,42920094335844
0,419480951399607
0,425179225536839
0,394898429527462
0,409760131908313
0,391066654624053
0,413781200143162
0,397477790895272
0,413822737561703
0,409305062634647
0,421009476046252
0,41894890066401
0,416191535669651
0,41863597425879
0,439600980281099
0,451731986389976
0,44316137107937
0,414643392832241
0,423774485615453
0,4076833834871
0,42274737390424
0,417887790743397
0,418596316947503
0,396783895726226
0,412962394689396
0,385737501184835
0,436116793984809
0,43113611970072
0,416577203895682
0,412757240175929
0,388312566519228
0,386952944796645
0,384760805890022
0,378533382264573
0,374611309120557
0,380865271401969
0,381993941983651
0,368543381540092
0,370601091733705
0,365748135705636
0,366440014550125
0,364646518108868
0,366122776338321
0,360054638492879
0,362998563212917
0,354392641141757
0,361476813308603
0,357657965270793
0,365816159847686
0,358536971710216
0,364508295527816
0,38382989148058
0,390189356583964
0,390730308602737
0,366186284444789
0,378867721701646
0,359803292793479
0,363935898373225
0,353169507275406
0,352962635879248
0,355670336234425
0,356236348300795
0,360327073355326
0,355812185144508
0,357397938010074
0,352094904562476
0,354359671820169
0,35491851930547
0,353074922704501
0,352462297291001
0,350425495237707
0,354166655018075
0,358803772273966
0,352475650614302
0,370014453063078
0,353603620586358
0,369379817653329
0,353108045221994
0,364002499728371
0,355980921237831
0,364777739091378
0,3625523402453
0,357723528291781
0,352760723506825
0,353915908962818
0,353120789963861
0,358666174203232
0,353317229923298
0,353882740844398
0,347929144629721
0,34963802380728
0,350401461803196
0,350020943656068
0,345967018061204
0,34538989259983
0,337745369999954
0,340089707000099
0,333883970919899
0,337082297328886
0,329333722262981
0,329095308443496
0,321472292397375
0,327262670117822
0,318024353103872
0,321145328087603
0,317966885561752
0,314580544441603
0,313750974295381
0,316836850767049
0,307330120748319
0,306931684918003
0,303495402697823
0,308154937200525
0,30117348930765
0,307828558564844
0,304915088557792
0,307259840240791
0,301827138636544
0,305763800290113
0,302971824762433
0,305765798257638
0,29990895750536
0,309654284759268
0,306299501886696
0,312255733516562
0,308898814599711
0,315595918009557
0,314787679734753
0,313456125454876
0,313869223904278
0,316193512811116
0,314171434405695
0,321306042207418
0,315905503993786
0,318725506070604
0,318578284499691
0,319428804893956
0,324094232766765
0,320450795063759
0,32014517994223
0,322202639477258
0,320967765265895
0,316554607144902
0,32197115353105
0,323215433673798
0,321307794676124
0,3214274012904
0,318410775340707
0,320252092088585
0,318828956259483
0,317828717747669
0,3145624692897
0,315219362372451
0,314070885619103
0,318814424576001
0,311858791440699
0,314208765841836
0,310864945250946
0,310967236603998
0,306708959841019
0,309075431863943
0,305901267659016
0,307971192638282
0,306138495522968
0,305637302060355
0,303923022549345
0,305125731669042
0,299509690811328
0,301869262952723
0,297258907854913
0,300655252047354
0,297629136586053
0,298844767714015
0,295729368456187
0,299019996426104
0,294745724235623
0,293757666227205
0,291300557553871
0,296725815520399
0,290830964377859
0,289748972517638
0,286524028351643
0,287415985473539
0,283753993134257
0,283170717752769
0,281596046837913
0,281793868931058
0,278980738861308
0,276600625364429
0,273907066334135
0,271218483969373
0,268601811836905
0,270032038280166
0,26648000484117
0,264892183460971
0,260796587066408
0,26338951047296
0,26101964564188
0,260025819423332
0,259040072335393
0,259173381285487
0,257122138784929
0,25549845712795
0,253794482134434
0,256009891541532
0,250179681444701
0,252263999365443
0,248860684330562
0,248226716868164
0,242635683081791
0,241320066516953
0,239829084481589
0,239332455016809
0,230939727546957
0,22834478651086
0,227571979769187
0,2274151114848
0,226609211261294
0,230658911574825
0,228175026758731
0,230370472840354
0,233854420024928
0,24103124867013
0,243660815520009
0,250297417951741
0,255298291275017
0,264517296640194
0,273128608961027
0,28356242775641
0,29269710684942
0,304778377800245
0,313561454090816
0,32935461595893
0,334179233193421
0,345725022968743
0,358154986706271
0,371490072323171
0,377438332723584
0,389428920444093
0,39924741644597
0,411791185142169
0,418720688510457
0,4316413699273
0,437609483251093
0,450500535036992
0,457099229684939
0,460018169941033
0,466165691175295
0,47790426820223
0,480034761348846
0,488870757989467
0,492738955663106
0,497181049142615
0,498813292727456
0,506817849073001
0,506782170652444
0,510390168607828
0,510952772312438
0,510420759948453
0,510419860287907
0,511101890522591
0,513014852275486
0,506470757431293
0,511288321761554
0,513506988025769
0,513083180692906
0,514525809917568
0,518717890531286
0,521530096854517
0,519753441110986
0,522877572267967
0,527185557678572
0,534799116977714
0,537851284013745
0,545116053321735
0,542572583190995
0,5524179393868
0,55385960259598
0,558160062763803
0,56727490458559
0,569347348214547
0,578765656161009
0,589608571637895
0,594011837703089
0,602831431779214
0,609938625074523
0,62209170513403
0,623620892964625
0,633367953564701
0,635492905151673
0,641291175744452
0,649150432005676
0,651477825860205
0,654302921032239
0,656931790218172
0,653938078393169
0,657090571035524
0,654228292545424
0,653873205192536
0,652008197376948
0,649051499310817
0,647145399294215
0,64532600761604
0,643593705347757
0,649629360775487
0,654802534618972
0,655756078838673
0,66772209248762
0,6791389195848
0,687816809007743
0,693570481656174
0,699738191647518
0,71389052214771
0,723043452299627
0,728401280658542
0,741732210922809
0,755277083893975
0,762656688846052
0,777144950822183
0,783996670298787
0,79758926875651
0,812069947667514
0,829461101797563
0,828627948079147
0,848672105151069
0,868761089819681
0,884043628110518
0,895817022269723
0,916624380867455
0,925468564296413
0,937258829420075
0,965148982494742
0,958077253553512
0,982395425422772
0,992189178317849
1,00691732017131
1,02333784670983
1,03067744995709
1,04465901650157
1,05087204048537
1,06208105376357
1,08658989504129
1,08464876486433
1,10715497770558
1,10418099696198
1,10554302516356
1,09334571104414
1,1255841075239
1,10010453641365
1,10095524305246
1,12219550709314
1,10716769620336
1,1096613437397
1,10060462854356
1,10488035811927
1,0820813437691
1,10184105182413
1,10833840433242
1,10671846346373
1,13053664591636
1,1328053770795
1,1288405364152
1,1532318522438
1,14204568141406
1,16083181650231
1,15309337740524
1,17070343145016
1,21127610011874
1,19397923973451
1,20747958012796
1,20853779342921
1,24496186233091
1,25458509053976
1,25739366777613
1,2751100538436
1,28506883665827
1,25988189537717
1,26077029390393
1,2870883910312
1,28462728831924
1,27181827223308
1,32946375490286
1,30982014221449
1,32238531792079
1,36228882381237
1,34608694092843
1,33087358625523
1,34497503263251
1,35738251787582
1,33738509628703
1,3314134156135
1,35962273519043
1,34128519586621
1,36268761774283
1,382360058755
1,38616366675547
1,37999616241081
1,41931427259467
1,37679888794991
1,34919618513157
1,37012717167796
1,38604023946939
1,34936439738394
1,36304550643812
1,30933330381837
1,31356112835403
1,30956727378514
1,26162884922175
1,21446221564777
1,15714170941023
1,12995753845131
1,11697983562899
1,07894551590771
1,0265672060367
1,01786099861496
1,01176196536341
0,98825839897887
0,985300454093251
0,955035094355045
0,950304327292091
0,943778011351398
0,925654857803491
0,92094408501872
0,917044680667025
0,913955293956327
0,901001646528885
0,9007468783575
0,886204377573583
0,876323169758297
0,865929397925168
0,861429066381039
0,831987168390599
0,820970387471982
0,809221713788831
0,782800232713077
0,753676601538492
0,742906044508959
0,723477351929168
0,697629789615113
0,67131849125294
0,641810678494554
0,61962054410036
0,591159595497885
0,561174202543988
0,541308134955368
0,514311440565263
0,495893991745093
0,471180242263835
0,450178969495351
0,436604615304761
0,413896465382043
0,398792012197791
0,386419264177361
0,369633195825245
0,35861787247878
0,351212970453884
0,340851313478266
0,328675607169036
0,3270172476308
0,323487344083205
0,313329416510523
0,309894110922734
0,3083743031655
0,305102658717486
0,3035411653521
0,307277922315689
0,2974256310714
0,300956439983099
0,30191559419505
0,303133609602807
0,301927703375424
0,304665096568646
0,303588073951511
0,303658911982231
0,302763792849375
0,306013803383727
0,305224853001555
0,30282880010055
0,297970338305482
0,294177046042217
0,296690949812075
0,296453764707599
0,287237740228677
0,288927702345211
0,284282414586581
0,284649471184518
0,2770012080704
0,27809598946818
0,28172926946449
0,27854883461968
0,274484360522691
0,276558665274303
0,276268152317581
0,280748747306725
0,285579748811512
0,285533449803431
0,288142392134523
0,28541941808467
0,287040815834683
0,292042247624863
0,296195432113225
0,294921401781067
0,298193917888877
0,307247409598568
0,301398784379925
0,300828507288377
0,302040424704331
0,306180148773926
0,306420998523662
0,308737057697853
0,30620102693769
0,305449192521046
0,306564621532778
0,312855142102186
0,306681089442734
0,308299448190303
0,314238713286256
0,316207686218663
0,317553800469379
0,321828383174112
0,330338567936202
0,336706772290251
0,341305731455146
0,351235906665197
0,357423219596886
0,369112580245966
0,376694202102207
0,395573630851271
0,396526874028125
0,399970398303623
0,416132341704985
0,414873368497126
0,412034739703498
0,412404516108254
0,40953094161588
0,403107764203081
0,398467483930137
0,383999970843906
0,384287801829518
0,375977877780704
0,376226808683328
0,372408185065559
0,364816441032997
0,365966781262844
0,35868558519685
0,358408675028354
0,363667295735531
0,366039281229371
0,369704227295036
0,359705136379551
0,35847468855759
0,365930207909236
0,357144364856474
0,361916992115193
0,360203743956554
0,354593308274531
0,349463588923999
0,350961368165071
0,34346051209153
0,34248198824528
0,339589877691424
0,332957371207034
0,328243642858469
0,33096367502781
0,321676749676007
0,32213709673535
0,319069907500279
0,312326075323769
0,308157654409098
0,321054995250273
0,30537098318662
0,314156757765963
0,309812712812695
0,313691674961482
0,304081156731253
0,300369443769195
0,293069450778335
0,297756245019171
0,296483124668888
0,296870309753994
0,289730978918353
0,288450874515914
0,28728869154337
0,280586652275833
0,283255999091436
0,280639492224604
0,284812517538338
0,285230444814345
0,27828492960705
0,283130813911371
0,286005575726664
0,2761830865933
0,260945055049758
0,275427934846227
0,276119389905093
0,266217026152901
0,271914570244129
0,26582932746614
0,259116403607118
0,261432172617538
0,260197730210854
0,263412914842343
0,272430324591521
0,256666087787509
0,267145724735451
0,263906315013293
0,268358868098087
0,277173004828779
0,268164119002438
0,27259169576746
0,269200801226816
0,271861108411849
0,271479008705702
0,268641965667669
0,275899994907685
0,276479761552729
0,27717782830736
0,28341075868486
0,28530971081055
0,276248398828771
0,284051214949914
0,28395617256079
0,278586252352983
0,284103399839517
0,295878590547432
0,306898029101878
0,296026159264113
0,303053370708282
0,306082323064465
0,310461740287693
0,316017360190167
0,340525525071379
0,3295589499445
0,339468316192868
0,351167507956736
0,363037533379116
0,360669352443689
0,369638401081118
0,368934831423786
0,395698813927498
0,393958526576451
0,416194030588646
0,426903032120785
0,443762106727783
0,44302106546602
0,452993017512521
0,439942107923012
0,466818657753411
0,477052978924265
0,486592374340277
0,474570549030228
0,505812579239676
0,480161111635673
0,479125858789427
0,471277604300557
0,466332965875984
0,451890480294177
0,472987555720148
0,444787260377
0,466009126838293
0,447942915709956
0,45785500309534
0,446862863798988
0,454456415070567
0,455992630760949
0,459715055929279
0,458267292421641
0,47038342467986
0,43109361220332
0,448299728938555
0,424859409350835
0,418577390756611
0,442765257347008
0,426083952087936
0,410718298524679
0,450900541662774
0,426490930291897
0,405459358040219
0,398682428095948
0,419346157613607
0,416196282736434
0,417267519497854
0,393501716764354
0,412750053827059
0,397093852490853
0,413620053328178
0,392921158722543
0,427152059998976
0,409087479130802
0,418311514290591
0,385164711985272
0,420804086246398
0,414761917841994
0,419163781094313
0,42481977149114
0,431199213114071
0,399531247658084
0,430610199617612
0,417995050925312
0,416886448467466
0,394703723440475
0,376937468720839
0,410178119844856
0,45599644671022
0,432725365023296
0,428649266538966
0,429161261584286
0,4726715689215
0,422109543373749
0,440103356911032
0,45027649406648
0,426224490727344
0,396107868957376
0,456974875800302
0,434464350539417
0,448851506993509
0,435100173790059
0,46692840774307
0,470722952555216
0,475225089350186
0,474240750553956
0,465428606986641
0,479569703115588
0,569811116526719
0,55684686449857
0,495079577335056
0,524687663232253
0,592241570451518
0,559571381268134
0,62583390683587
0,530405484153688
0,576903253425722
0,568964373702546
0,555311242409539
0,643021564998367
0,582872850001562
0,594777018021759
0,655837183407315
0,534565259038951
0,613914694195128
0,561839111280783
0,551434489132157
0,571166690020529
0,602134175818537
0,566716531351233
0,582360491626981
0,494752834946365
0,580372364490397
0,599304082153266
0,579516950627652
0,600885786338521
0,553098955401191
0,498879263317481
0,525879590741737
0,523995578461012
0,566273760352382
0,530402711461655
0,620350679448607
0,553991389774777
0,538979238805756
0,613707746363521
0,538874360572094
0,529044517091284
0,532820656739103
0,469270227473595
0,587118550161595
0,535830717586441
0,605231127262349
0,596329236082511
0,581130656418668
0,598580550250083
0,649774049289141
0,477713790705486
0,43625585745147
0,507643865608315
0,481181649421192
0,563447072570482
0,550079651549423
0,511301139451862
0,626316909953749
0,500637122826901
0,742839417628158
0,660768763602694
0,488528381144181
0,375750565526635
0,991122928401413
0,60806829088398
0,640345864904588
0,450466160976019
0,674886851161882
0,729481256047269
0,560604322663032
0,825566589897637
