3596
4000,36533379555
650,420452594757
1
2
2
0,0514210007552486
0,0563283768517286
0,0473491647266924
0,0562818357432121
0,0483722211888524
0,0545776683456251
0,0549091450692751
0,0493918079051573
0,0518364386126213
0,0595009569102619
0,0588385492125284
0,0577237454887024
0,0533486406728735
0,0580395387792799
0,044918494712933
0,0623669406290726
0,0439543370615588
0,0539811802841981
0,0450553681772586
0,0539231010764376
0,0566357075716444
0,0595214439465416
0,0544091451874222
0,0544694222109866
0,0554562672821862
0,0654247376907346
0,0472587445415085
0,0542409142888587
0,0465914976942941
0,0579901873256094
0,0482890429181678
0,0564980828791178
0,0576029363941103
0,0586529178846388
0,0460676612917128
0,0506454020097966
0,0580293673510181
0,0638768833925899
0,0503560626948697
0,0550477517518327
0,0578431037986452
0,0518494941440486
0,0597894840994815
0,0574184394777235
0,053651105572892
0,0512317141303308
0,0488376449572484
0,0555450905024758
0,0531070546320808
0,0522095040942785
0,0640704824938997
0,0527788859746118
0,0589036682750974
0,0677180102017112
0,0476196891680614
0,0648796213259148
0,0662256658218477
0,0517316264087344
0,0537123184835687
0,0504773827709219
0,0654645082309374
0,0692704909630344
0,0509343463004874
0,0552200651013637
0,04132121944418
0,0660129133134315
0,0502683210625533
0,0592905683577733
0,0474159484061966
0,0649902963077944
0,0442453689938973
0,0615558329694588
0,0613665807453528
0,0447506666005358
0,0602876827528056
0,0612792588273767
0,0433536723854051
0,0534957870272401
0,0357267312044837
0,0617013373273435
0,0640033002648564
0,0607925378842164
0,0532645344069878
0,0489754868767794
0,045975492663788
0,0861471830824062
0,0421522462672792
0,0526892651860208
0,0618997810284643
0,0624930043838157
0,0512001208997548
0,060593005371748
0,0480219595095996
0,0521875180877068
0,047802198602431
0,0541237470663216
0,0455399667059984
0,0625014309444021
0,0412056982983748
0,0623175305570318
0,0464577237589884
0,0548712015232495
0,0990814926415266
0,0238056192728424
0,0943749633078097
0,058303486806446
0,0379272553861078
0,0974646729043143
0,0623061363829647
0,0657567594808192
0,0377281696259316
0,0659547748150039
0,0440975250025473
0,0675919184724474
0,0276297686791127
0,0700905256197582
0,0772972759923192
0,0567828799790329
0,0477653676113747
0,0651682312285422
0,0216943640824233
0,0655357413326342
0,0948999993343222
0,0584628569842383
0,0649265247573026
0,0551310847521962
0,0346668862404337
0,081864237136213
0,0768098222918307
0,0631169836568807
0,0541782813889623
0,0528304153698006
0,0370682683245386
0,0371001084809765
0,0753952760487274
0,0623173674204243
0,0566128120717054
0,0359525462479595
0,0518554683438844
0,104122870556799
0,0632283546950317
0,0551424178214873
0,0295500266298941
0,0479976277342194
0,0879129111145946
0,0711012593696565
0,0402320230892481
0,0761884678493637
0,0577094696234655
0,0561030320729995
0,053008365991821
0,0448443589735098
0,0643702166037783
0,0607125581389211
0,000374555898544467
0,0886947036541541
0,0981930768973641
0,057356171300457
0,120253781909104
0,0500673699139851
0,0711046255581426
0,0458271140631468
0,0582581097373797
0,0467110254966558
0,0628901348752799
0,0322268951754561
0,055888896292276
0,088789727078013
0,0423157730116654
0,0495170956092177
0,076334383142898
0,0684947915293294
0,016416211350619
0,12076682000747
0,0550922402576911
0,045958742036139
0,0760651180638269
0,0733798289844661
0,0366401091983672
0,0602113700565397
0,0814888263967027
0,0525815082487245
0,0513720296375947
0,0444934607148569
0,05128441127281
0,0698864549391305
0,0591108144462481
0,061454860874254
0,0615063844370795
0,0339563694030705
0,0503013204209982
0,0910285915053263
0,0860926426642024
0,0700265668781076
0,0658072161646716
0,0185420082170689
0,079421357603577
0,0853298920517153
0,0569386113883443
0,0480504079248266
0,0432444124880799
0,056605965179311
0,0520202704431464
0,0482328168404846
0,045965954114074
0,018574649080032
0,0978875057379102
0,0723364722393228
0,0533849789943004
0,0408846880191325
0,0535887994538274
0,0260939678349439
0,107398088700541
0,0891638824398029
0,0554167190265279
0,0570250972335242
0,0365087391204541
0,0630994710767099
0,0683776974564581
0,0455972749094025
0,0556652783994163
0,0488653399063004
0,0544905078691826
0,0493685215905053
0,0515714102302863
0,059663185937029
0,0565997614407948
0,0516798794101777
0,0503015847944561
0,0621138857775049
0,0625222734909018
0,0621660004266217
0,0533936446800457
0,0609468549655049
0,0384474743348511
0,0563486345581011
0,0720184026087643
0,0604846821737262
0,0588053291682422
0,0555980870215342
0,0603517819759214
0,0558933771449541
0,0530989884090639
0,055705829658916
0,0498321816566955
0,0425666305715591
0,0960178363590526
0,0555643157646087
0,0699960010095509
0,0310649503271302
0,0749106021563694
0,0647485670153256
0,0583054961749708
0,060636477592449
0,0686589427990544
0,0470271915590373
0,0422606008018114
0,0913462764263
0,0702824637116845
0,0457781756090923
0,0746740901787187
0,0652851741671406
0,0524428835754764
0,0535741007182662
0,0178087673557911
0,135353971204931
0,0680135224529873
0,0383256386256018
0,119227666814593
0,0719447703026168
0,0764562225965755
0,0530908451965704
-0,00422193439552691
0,166078653879074
0,106764091244473
0,0619870188109119
0,0565110211427695
0,0889333900441264
0,0555236584805354
0,0642390471294192
0,0596112758565703
0,074963483927501
0,0763922501917057
0,0978115232695386
0,123912747689448
0,0269657287957117
0,0908413068554131
0,0926121187898173
0,0729533197535679
0,0678283828441839
0,062061405240078
0,0510323566841311
0,0708643783479274
0,0687912924722654
0,0782659753137434
0,0696354464354789
0,0534906505600779
0,0973821924950494
0,0760236174015811
0,0618408132089151
0,0712785685661711
0,0825314397162163
0,064506983228639
0,071644566608451
0,0568441122940211
0,0797403729411517
0,0586915258023647
0,0541787045894197
0,1250671594524
0,0743532766500758
0,0617964550464806
0,104905844520809
0,0723313714809981
0,073852845307498
0,0689342609166129
0,0756134380912963
0,0677789378435782
0,0723129687487398
0,0477790476521029
0,104068912257112
0,0711703578604485
0,080103717233333
0,0756176708989411
0,0711920100837371
0,0781041138837228
0,0840088375310954
0,0752797040229986
0,084724921814879
0,0762648654557043
0,0698266527447205
0,087485296784166
0,122706473621594
0,0461188240355189
0,120488461357583
0,11432542601543
0,0998754582038452
0,082297071961116
0,0907364020147036
0,0956033585315893
0,090614857671116
0,0972285482234966
0,0868173474905714
0,0844207115890903
0,116154984119762
0,100165791914792
0,09254721621491
0,0886469650404808
0,129092880486634
0,164845980212676
0,130155384636158
0,1212489760263
0,0781452421104441
0,145532082924786
0,138977486439144
0,126638201630298
0,150850151461651
0,110382336349358
0,139072548308678
0,116180011449825
0,139471239571126
0,12065829898856
0,143244853940562
0,135048231540579
0,14979176576299
0,130986508032093
0,159207279979841
0,13335702045288
0,15217628223157
0,195552598970163
0,174619243002915
0,163615303127976
0,177798201178076
0,137903568070534
0,216968770995793
0,170895506636622
0,223420390004176
0,185866442588204
0,204571721181864
0,22205690500727
0,201087229065649
0,196418791891084
0,186336049483623
0,199543612993976
0,204800581505152
0,201693115689473
0,206653366285841
0,216841533974968
0,218471943129228
0,211073461062638
0,220295178588172
0,21601194396801
0,229315918825522
0,261920993774573
0,236051665690737
0,243482641114716
0,2285412792474
0,251570599902599
0,283855767697676
0,299843682666071
0,26691610987928
0,27774389323656
0,262988445523744
0,265000374112714
0,279091893965818
0,267669429288
0,28689327584325
0,271006187760274
0,324460958715078
0,283863166213896
0,319781500268715
0,313751491619494
0,301599261784604
0,327221311588954
0,318004724425557
0,315287017156272
0,354203679754585
0,334564003652715
0,304012085437581
0,343786937017888
0,361453292472337
0,339039003290617
0,373030599403889
0,317506245984375
0,353401978251254
0,339476827189047
0,369030592523457
0,362616355228971
0,382973573897045
0,383258010357197
0,393622506440519
0,37665348510503
0,387916681884686
0,378221715857885
0,415811565195732
0,397546137248382
0,400478184636673
0,411204331004637
0,4104357599393
0,419043076120462
0,413093011749418
0,436210334437335
0,452630062570612
0,443360672674329
0,477471755790254
0,417719775461134
0,458403588332634
0,435932487472589
0,450359286145622
0,451238696086345
0,4855390065645
0,458639052848892
0,48093783498798
0,471987066148305
0,510010500803213
0,465852549332761
0,491484081086723
0,499498192391755
0,503161504411744
0,486374008127851
0,516901134647399
0,521952322386566
0,516648157623679
0,542505786575813
0,580656575612091
0,516017679472145
0,580548687560582
0,54655078513085
0,57233865942642
0,5389500195995
0,568098743477195
0,540322951024221
0,586159949234256
0,556647508550265
0,615148438492882
0,548233867204808
0,599217389767641
0,5949484457153
0,605465295872565
0,591289135099156
0,623962134633331
0,593781650940563
0,639418151789606
0,589344011301358
0,611325496159883
0,598434621642703
0,692681618963395
0,613511944982239
0,667528874065246
0,625761528534737
0,681804670507351
0,630489200258541
0,685769909251018
0,632671022624316
0,685841729988039
0,657446069884079
0,682469159098736
0,658438950557628
0,734553372150657
0,713503603555571
0,714690413609267
0,6932591263031
0,761139191988971
0,739512195611428
0,725342604139147
0,673251155655589
0,762282060608653
0,721550270905413
0,769874912131508
0,696234674411419
0,761671728570875
0,722613330938748
0,75133603760607
0,752980859881198
0,816265859801132
0,770487315055591
0,806075134910434
0,763473237815439
0,786482176954012
0,727843208447156
0,881986453191512
0,780136095194463
0,836866316068097
0,782998947956244
0,859071526040306
0,737543688532592
0,821626396857673
0,814387176861797
0,842119766872387
0,853881063721363
0,912541712777545
0,800930460786528
0,816635370547588
0,834138730735311
0,891049082566763
0,875133841849909
0,890613935913224
0,794297012246713
0,896696049789315
0,867604075717998
0,91982122639666
0,827822697146801
0,913174477712779
0,841440924559735
0,909800809541505
0,885040716700706
1,01644509959242
0,948997646410963
0,93169753430492
0,898028781846131
0,923422138143408
0,925495431263952
1,0061939264845
0,938346112290737
0,994066403699157
0,930260028735639
1,04828208795799
0,933703575886174
1,00144955884717
0,900470900363332
1,02309749630679
0,934652583999555
0,987702929689989
0,912877773669538
1,03913089410964
0,975431181022245
1,11835657633789
0,971904457777786
1,0167612219072
0,980954372736696
1,0491334458997
0,969155511434801
1,05521553422856
0,978006173035721
1,06140377668625
1,03367412600142
1,1169785388709
0,991932881948744
1,11769388410608
1,00665035488902
1,08780038806213
1,05103949996717
1,18586535290544
1,06179738605351
1,27931342369498
1,09501023602662
1,09718035378018
1,05473338185327
1,13643414035286
1,02845086873262
1,15356100597906
1,13203534439785
1,20527439834253
1,03828896885606
1,25601297894519
1,04564108367243
1,29263601313159
1,12652138748104
1,25384331836213
1,05327563380466
1,20712122227497
1,06279243720315
1,14115879000275
1,04356615443445
1,14204423624689
1,1555688328392
1,14439686720962
1,1304748026626
1,26812545783077
1,17138652844269
1,26866982666933
1,15034218470793
1,34691795482079
1,10117245079315
1,36416997296956
1,15102018102512
1,26600318798296
1,22452353320088
1,42417145443998
1,15318715973511
1,27108141501336
1,08783199934451
1,31680565515523
1,24858341866888
1,46606158721557
1,19699710420578
1,27457621873919
1,18306221832358
1,27620219548753
1,19919840827662
1,30196835689144
1,22355012303718
1,29350115518492
1,28297221383054
1,27810485325658
1,17180615395185
1,35561771371773
1,12341516737816
1,27395145046386
1,24755510099754
1,30909001626984
1,21736177504283
1,27896339936954
1,20336203850596
1,44916913932772
1,24502957269979
1,41376339545572
1,25874792447253
1,60738916600876
1,18758139629852
1,47078975744512
1,21606251328027
1,41316901971081
1,30991781103084
1,55018537340795
1,32601943233022
1,43784499341633
1,30873577318823
1,33242188326674
1,30914351791655
1,42856868707141
1,26871552789334
1,6607076947803
1,28956601758828
1,51657887243781
1,31146957129535
1,56284293149788
1,18785633946661
1,4863588952181
1,257962314128
1,41932300943016
1,24148842315087
1,47259084489384
1,393002222426
1,47790147890159
1,20852872341287
1,40606532119482
1,25912839668628
1,53371706752052
1,36914150516527
1,45993580833672
1,33682900788636
1,62357487883589
1,27662352024194
1,70170011873807
1,30453463022012
1,36487012573032
1,29755072591332
1,57820333296315
1,41927835297401
1,43559887939732
1,29045893341596
1,490588489628
1,40401569586955
1,58594906488016
1,30592287820733
1,46605880793052
1,33916825039568
1,53987419027721
1,3152916999092
1,51334672391643
1,28199850910887
1,46544873647013
1,31119142184918
1,45089159963834
1,30189395278481
1,59199191745166
1,41383510348532
1,53099060622689
1,42170208960202
1,45474525783046
1,31505894198203
1,44792668117244
1,34596235282645
1,49019719084627
1,29792340108964
1,3939441496393
1,33955213638916
1,52530865534964
1,36099620384128
1,4379434976441
1,36191997184477
1,50652578676011
1,35728151404143
1,45204045873457
1,37468562444788
1,45588547077212
1,40761713247796
1,51159468542615
1,43998986015226
1,51490535841334
1,3506354899763
1,54692545836138
1,36435913444882
1,56230093110867
1,38362096507869
1,51560997809095
1,38037219118623
1,5863450941055
1,31798551298401
1,43177554315423
1,29686301954872
1,51639665577512
1,30451966297781
1,61278207990794
1,33637475977884
1,43203198644613
1,52036357828951
1,4685615588899
1,34926670688131
1,49346967358875
1,34790672136828
1,46735490684912
1,34415519623565
1,56388776944005
1,41165619298035
1,42034831508343
1,40647967430997
1,47295304404651
1,31479736641837
1,49925420505655
1,33599198582288
1,56865089048688
1,40718219126514
1,38763769132279
1,41939157127922
1,45129288169373
1,35718530600418
1,53822789054657
1,28386993198173
1,38510016756047
1,4017809809151
1,49660374645683
1,42638629181922
1,54309499838883
1,39766632272864
1,42326750234234
1,36928191983764
1,47231475387606
1,40949476012657
1,59891173289766
1,35696306888536
1,50138329965801
1,29166927096393
1,54321787678547
1,29931446237766
1,45075665433759
1,39585625030646
1,57924541912956
1,3714041645436
1,62978556541739
1,36375166239345
1,42844145897006
1,27787660025405
1,57700406489101
1,44994802684073
1,57904107303504
1,44061476267562
1,42147649075413
1,35018762078709
1,54652004646474
1,28911991140936
1,54806702023031
1,27829849382838
1,49053412170295
1,29847168980323
1,38732362307364
1,36383248490425
1,50767330894112
1,39102372800437
1,40931220551188
1,34037294694063
1,47068316967781
1,24128278928057
1,46628059651701
1,33488943660042
1,52902153699027
1,35754233356989
1,36397802204474
1,31119537865268
1,41006659759241
1,30284501317471
1,4148258783322
1,34703141593278
1,37325609122711
1,266137690862
1,3415377022437
1,29170320973592
1,34202776778107
1,27385661310709
1,47350641176699
1,33081599606447
1,45440023983463
1,28617764657379
1,38929354734204
1,35217854064345
1,44519751284402
1,22093531421867
1,37065316074361
1,26674114287717
1,41947517904612
1,2054974690448
1,36023453376179
1,25703233535075
1,34987830549891
1,24510402038842
1,30038144008071
1,27649451682771
1,28661166203829
1,32180297627547
1,32537825168769
1,22963899743442
1,30556915198739
1,21564293331706
1,3811328199085
1,18312478491731
1,24050086184994
1,19923885788915
1,29543712125573
1,19206863711825
1,35531413623007
1,209522496589
1,26983843190167
1,17162179929458
1,28754341945011
1,20272134850157
1,29259380656325
1,22780908188117
1,19809908650429
1,13933571568817
1,23575534842658
1,17727834081006
1,25480918529439
1,14559451315422
1,15511813345407
1,14548853535315
1,16996134191627
1,16843751743661
1,21835800903908
1,11264017558633
1,19371135916733
1,12673037041537
1,20811153443447
1,13837453290282
1,23693635704275
1,10923199242793
1,16965675885956
1,11116759777104
1,13148293414199
1,07228332816396
1,13421914779067
1,08988047405875
1,15743001762721
1,07456708950573
1,14236685538357
1,0730933288993
1,10615296695733
1,02515621575216
1,07381145600629
1,02895558078509
1,08819897265996
1,05303472683036
1,07384604295287
1,0013941352587
1,08611907258586
0,989218073279803
1,04405287644206
1,00457293706309
1,03553835878754
1,00844392658748
1,01991148100679
0,986365283268299
1,05082017934133
0,984002592803452
0,968704781177765
0,96406780716838
1,01442937403364
0,96241108350284
0,981515197580428
0,966990917170895
0,954485982635527
0,957452470514192
0,96870743285161
0,931067315331232
0,956162768962332
0,923502040782627
0,997077269562335
0,925584213363632
0,954019230724867
0,908585720646208
0,950572300824133
0,91384072010002
0,961034998908435
0,887049332156492
0,900901059993781
0,881373865377683
0,926395562488601
0,895736782177206
0,902578873293991
0,86993024244503
0,916468222121666
0,858715272815825
0,881734622387792
0,833758877232656
0,849855728625894
0,822111464541142
0,864492196406447
0,832088816818047
0,852795062404278
0,830409497407843
0,854608848166764
0,807119949131473
0,834347942240834
0,806676360596933
0,831030895474476
0,786692713524364
0,807961072477305
0,788348411402981
0,825965977525627
0,776843407968311
0,806120664607937
0,77361755300682
0,808243311253158
0,767588891765336
0,769949874898394
0,780954848334709
0,776562133341745
0,739918785842229
0,765645911905196
0,746033386302173
0,774843919750513
0,729556012485948
0,753689209325128
0,734910383415586
0,730107859779989
0,715488234029148
0,721589501476868
0,721967457577799
0,726051612500266
0,705032398738102
0,716253223875446
0,70208373190075
0,707438328296921
0,687147711503434
0,703652343366745
0,682849796443557
0,696721585034264
0,676836708665488
0,690574003348781
0,674246324490509
0,693559564082572
0,663096801320231
0,688126362409942
0,651030214265092
0,67655601452329
0,649676527017774
0,651616104070325
0,647648722648829
0,654511023955941
0,632010999050347
0,644507583019498
0,633864644523427
0,636116137605731
0,627694093218675
0,63493145810222
0,618259795356767
0,616183444403944
0,614183487074584
0,611621459517644
0,591064320203669
0,623645954258458
0,598444343752233
0,610638949366485
0,600860276107892
0,598730298127376
0,582392692619153
0,600051619256255
0,576325958963983
0,592460092683755
0,57215305446215
0,576022927764174
0,560345369078902
0,568027894813749
0,564264664904511
0,569565505952117
0,554169848113195
0,551924293652766
0,540650420821521
0,555305767592106
0,539990331363674
0,545083801239252
0,535569166327072
0,541712079229007
0,529075407502169
0,53645112596824
0,522618748739026
0,532458770718777
0,516735039310748
0,523033566507888
0,515402292619385
0,51447821631435
0,496759174498185
0,512213908202854
0,507236765497497
0,507961958623721
0,487727517807815
0,504405491289834
0,479956499669863
0,499251970715873
0,490488989234072
0,484410885378721
0,484122072902487
0,495075259039253
0,471638622203949
0,476550537285126
0,464449987325945
0,470475066023049
0,463862001307797
0,469137413355998
0,459108791618247
0,460320673293077
0,452966670250485
0,458070030208838
0,449787276548599
0,465323521723378
0,434692239074221
0,4495521073358
0,440322147646246
0,451177267093177
0,438546364153733
0,444618124759541
0,444328688372836
0,445943548386369
0,435531428308978
0,439416951760815
0,427507650225994
0,439855516842403
0,427362831739921
0,430919758509087
0,428944116933203
0,43337693649873
0,417174662669295
0,427177624100177
0,421847039346121
0,430726506716142
0,419188787122548
0,428607089929489
0,421289166228926
0,427083904223921
0,41437112537687
0,431823273480937
0,424159827268035
0,423571274007412
0,417169507824225
0,427479053785595
0,415763176838854
0,432250587246957
0,416360283738144
0,430234970806112
0,418148137926039
0,423987855512046
0,419606176951296
0,423634470701171
0,423193947348642
0,429725359721277
0,421345024999172
0,430274214136422
0,427390406808622
0,435433052891676
0,427144772488801
0,437770038307485
0,422437574174809
0,430395051655619
0,431491704511069
0,440599579877837
0,428266998575283
0,439253767005146
0,429667586445657
0,440589241026372
0,429456525484544
0,447064567481734
0,435264331549912
0,439450056744665
0,429849295030984
0,450668691527583
0,450086709342488
0,445867276686808
0,436199771352175
0,451371764195705
0,443498162017229
0,44453653024671
0,453314081412952
0,459409307959865
0,452071684331557
0,46055251702867
0,448690668854289
0,456682730336155
0,453702074262836
0,475899416604945
0,461254605723178
0,47358001289013
0,461752575121466
0,471228755550443
0,462897921625163
0,47268996142016
0,468621379251543
0,473388418765183
0,468316516360204
0,473741607200659
0,464730359777207
0,478264497557618
0,460265086471536
0,476396212611145
0,463294144177105
0,474336257251419
0,466994744484264
0,465134773757873
0,459916250134233
0,461177715445149
0,452468789419097
0,459579594662185
0,451100734637446
0,465617894922767
0,44336180455044
0,462922778116691
0,454224926281649
0,456723091065627
0,453944551098507
0,459966603573676
0,449555248760671
0,458646649821139
0,452738538656035
0,458984346439108
0,448720297509408
0,450031990371337
0,443890136147032
0,458192337647177
0,439349296482564
0,445224404269349
0,439945413888103
0,455209527670402
0,442819306350613
0,454532154524041
0,447133403544767
0,453837641183367
0,440398982615537
0,452069097781466
0,436975693231091
0,452542694856913
0,441930287802192
0,450649447267495
0,438795396987821
0,450293754366804
0,448687873162739
0,452425821365132
0,439235775451871
0,449632056641579
0,436386943926185
0,445723394331717
0,43547350573052
0,442171612115251
0,43673328740278
0,439550157933458
0,438721147419994
0,435468690243583
0,43539034493517
0,440960031460054
0,432762596975903
0,435218092802824
0,427558244902357
0,427849202953657
0,414601572363316
0,42575694268652
0,418356393474828
0,425612318060231
0,4159197892133
0,418556121453916
0,406494230513841
0,419814905560871
0,404035283770205
0,401275467340423
0,393487118005777
0,400745288457258
0,389412199202627
0,400853694094401
0,386489057513434
0,38632841523014
0,380568620300774
0,385362087327967
0,373644951215182
0,37900407505591
0,370512853014071
0,37130111786023
0,360817390468996
0,369170603499368
0,357959485496769
0,363793344872412
0,353417195872366
0,348550717780241
0,343133850710012
0,354719856130212
0,346406713707567
0,348502001053354
0,343628461576963
0,342542578246868
0,335414588812075
0,340184019487979
0,328530799910793
0,333289160139099
0,320976443523823
0,327593196379174
0,324263998283823
0,327185778453719
0,323979132465596
0,320255391685919
0,315074883259449
0,321553057827485
0,310776910826477
0,317965058392182
0,311023634063874
0,309923915598215
0,304670369050962
0,307899026214936
0,301308274910651
0,306401137932702
0,298954914385187
0,304889567809953
0,295100989837511
0,305117499722916
0,29523767366326
0,294844011722146
0,294220044825952
0,294572791200542
0,281338968343759
0,28746265803822
0,283540665322439
0,292360246671459
0,283631996564735
0,287586256877786
0,279103713966588
0,279692447033674
0,275735847005056
0,276801119766938
0,271189310769795
0,277004359872703
0,271034324186203
0,274344140080654
0,269234239485529
0,275125431570435
0,264613538526769
0,26442997071783
0,26221789296101
0,262198086137022
0,258061537637055
0,268134671001859
0,260945161309116
0,263691114313015
0,256811291699665
0,258786487519535
0,258135718032276
0,25850779267082
0,249043708944755
0,255372802914391
0,251896971310498
0,252424012258268
0,248015104737125
0,25236026691502
0,245258545594545
0,252225276518826
0,249160374643461
0,251420394078723
0,241830353634995
0,249879033882609
0,245840861455977
0,240435413869805
0,240989375844154
0,240035414434791
0,234883223435361
0,241174823817889
0,23489766896997
0,241592096506239
0,238118681612626
0,241064210330706
0,233707772933767
0,234710700244257
0,234013656071581
0,24066715966521
0,230050617434246
0,233557067097541
0,230318708812887
0,232889574909052
0,232188071409662
0,229754692445972
0,224794898357672
0,229350926976794
0,225667757211379
0,228931237506425
0,223257126398619
0,227406122033348
0,223302550989513
0,222819738209124
0,220827364850821
0,222399663901723
0,218452027545738
0,223615459903094
0,21620369793599
0,220475441673221
0,218047446956712
0,219525707061177
0,215710705524989
0,21849260431708
0,212464946448032
0,216839516353981
0,215023450234145
0,216125874220911
0,211141128696143
0,217580853752936
0,214154253068657
0,215424171270209
0,208855993963404
0,2094677821997
0,208103568933749
0,212074570060312
0,208519838158881
0,211786300954659
0,209704007039883
0,209564004685533
0,209292943924624
0,210444553660681
0,207211575688764
0,208343380475043
0,206745676319581
0,205168330552905
0,203962508503511
0,210552566451665
0,199377657639901
0,20533599241429
0,203522517447771
0,204872513896169
0,201455065717126
0,202058711917422
0,203537669927508
0,20599174882508
0,195837459923175
0,200397788064367
0,197146233635912
0,1990319816634
0,192672521595021
0,202089299501166
0,198056686979361
0,194267389390813
0,196430312719241
0,197374763458283
0,193292909965551
0,1911707417401
0,192790411413092
0,195330286627703
0,18973118748522
0,19319182615881
0,18982038173325
0,191860933841035
0,1834836056048
0,18934488180753
0,188920572209586
0,1854136120721
0,182349086999193
0,19081000089997
0,181585185201395
0,187814710233849
0,183124483423803
0,181002888665864
0,180077082162623
0,182159168609101
0,178393474263446
0,180413643593341
0,177480759805715
0,179075796124618
0,17770557991149
0,179099151040771
0,173424751273768
0,176072441041363
0,17111964671712
0,175692379658508
0,17102732838554
0,173229454567371
0,168815916331814
0,172415231472576
0,166734888394408
0,170460343374944
0,168581480555803
0,170982329583369
0,164210677567566
0,165144833853177
0,165762764770804
0,17001734910121
0,161711379677891
0,1590063958513
0,164360524453501
0,165749447155315
0,156631837869208
0,161428960885094
0,15774747641771
0,159811049787523
0,161212001137292
0,161962892812637
0,155767165941534
0,158282771262945
0,156146830165604
0,158677702095333
0,151340547911228
0,157870195599456
0,152716569049625
0,151202672311073
0,153401031991843
0,154507168085705
0,148682443559397
0,153076103460459
0,145383417806744
0,145025186881635
0,143732384390649
0,149258228581568
0,146828335245565
0,144032012738157
0,140246687489531
0,143969723860485
0,142206016863169
0,143359750538016
0,137845906224228
0,138924746521748
0,137459636603982
0,139870054073968
0,135953280012411
0,139759536425037
0,134995842073088
0,132215620009762
0,133431855017137
0,138654771739023
0,134880489359024
0,135410690710602
0,127574739433974
0,13290401327519
0,131856185912583
0,134591516046377
0,126525485096401
0,131286994022107
0,134902539573572
0,129876878082534
0,126087092768911
0,132506309402725
0,128719706902109
0,12893032202711
0,129538482821507
0,129437235212623
0,122627912273817
0,130813129011835
0,125344685615313
0,125894797360741
0,12695204769054
0,127358794657865
0,122323697908633
0,12509178791586
0,121869640163398
0,12675991328932
0,120522716689768
0,123230834328321
0,122059019337755
0,125505666904122
0,123036928345954
0,122788126701348
0,120730302628457
0,120204636894273
0,12044982494516
0,12299314523138
0,119360038592886
0,122308092184347
0,118124325209586
0,123727237599286
0,117829260729516
0,117187462237326
0,114829954160741
0,118361465132927
0,117025807078245
0,116718160805403
0,11216026700696
0,114397390836797
0,113441664267888
0,119316391494652
0,115493980121907
0,115848531980909
0,113472018794132
0,1170096804209
0,112385118113761
0,114314379821524
0,112004070646561
0,111402835110669
0,112776178731809
0,115278418706307
0,110528579297122
0,113727844392674
0,107944695103338
0,111918780855024
0,111845921158158
0,115508247756486
0,109767482242838
0,110735127459761
0,109756859729619
0,112416531476406
0,108560634691998
0,111837925608272
0,109145677933361
0,111664035162974
0,10803970634197
0,110881536343077
0,109305914445995
0,109269378668466
0,107529329288275
0,110881780470973
0,108770238734014
0,109610037291646
0,106961286162652
0,110763649126332
0,10596279639008
0,111052742346977
0,108437682712563
0,108662869341233
0,105423212117009
0,11005021801913
0,110289461513002
0,109806280858062
0,102827601744907
0,106573200780858
0,107664397975542
0,105434080519423
0,104048145847505
0,106659887587219
0,104069025019976
0,106842622777178
0,104550605037684
0,103741650377934
0,102751477860029
0,105777371399989
0,101852157638816
0,103775792675296
0,101463161270687
0,10211284900041
0,0996903207045909
0,103529558264358
0,102250121058914
0,103561231477193
0,100769718551572
0,100992151049521
0,101346466447602
0,102572309242379
0,0983010416000665
0,0995812712947931
0,0948933980303432
0,0988884191411999
0,100098841623243
0,0999199329951215
0,0995180989685737
0,101454923818774
0,0993601703181901
0,0986663353927942
0,0942402757267772
0,0990669225945359
0,0988750856782075
0,100141711053208
0,0967293367938407
0,101496052480246
0,0965900831578568
0,0989675155317142
0,0980649212331327
0,0957496613223321
0,0960080683975875
0,100846074437901
0,0960493842094464
0,0973493913560341
0,0954552425113878
0,0977289226385307
0,0944428517813257
0,0964057790654512
0,09499861985622
0,0990702603138876
0,0950896611659986
0,0947552356117581
0,092155890637354
0,0936138756985724
0,0917239575514256
0,0965873042610513
0,0929792584703417
0,0927459274763083
0,0915318380617001
0,0957583632660771
0,0926588447722511
0,0925352192592071
0,0900993038074737
0,093432823813688
0,0905407294893983
0,0935898518385566
0,0898204836876417
0,0898548208023753
0,0879398988334223
0,0907538142567358
0,0885213167510657
0,0902354903818642
0,0889926062961712
0,0921426977586775
0,0871342722935347
0,0912264760284882
0,086312558440642
0,0862807994134015
0,0862393430273618
0,087476676220915
0,0858711679232236
0,0861364347582498
0,0843006263110098
0,088055510566155
0,0830181136936631
0,0870775827031735
0,0834483697491252
0,0864053926109249
0,0828554983334724
0,0876172106523225
0,0841559174068054
0,0837428324692538
0,0826973417754546
0,0865660428696964
0,082104491526015
0,0845896642226565
0,0826553212380083
0,0850201543446691
0,0815356632736731
0,0838687725676468
0,0831633782789725
0,0845520483839483
0,0814096590905695
0,084418235120254
0,0817827055525628
0,0843770546544484
0,0814927761714405
0,0848928651438811
0,0822204926164665
0,0827971684068892
0,0808158969770793
0,0838933321474823
0,0807012786212603
0,0802538970582608
0,0800606353148576
0,0844774592405266
0,0795883546458772
0,0808786501160971
0,0802443771834955
0,0837512769481117
0,0806987469239181
0,0808501066650013
0,0790263649033019
0,0799683139740682
0,0782469202048397
0,0805655054096505
0,0776307363391625
0,0839425578842504
0,0792796992390582
0,0763783776139937
0,0758588090752551
0,07844150050965
0,0773802922508096
0,0783034261748026
0,0752414226283974
0,0769700926158349
0,0737785066480317
0,0780118120903976
0,075555504949224
0,0780964076685716
0,0776181245623022
0,077485309476696
0,0751828783867036
0,0779391111609516
0,0744601054021653
0,076681781403605
0,072878363045238
0,0772514266406689
0,0756601232153326
0,0759969226420781
0,0756231351083776
0,0803537379134318
0,0770894193526129
0,078349794171519
0,0742733807124499
0,0779862614578844
0,0748438073244079
0,0779572782661919
0,0777478622812199
0,0781296737114935
0,0750964278277756
0,0764330109169691
0,074168688245259
0,0783890954853066
0,0771179887122244
0,0780854118217299
0,0768417921360015
0,078521692204605
0,0737600709935164
0,0765585683782811
0,0759860285820215
0,0802706271773848
0,0762731056308471
0,0795504560793127
0,0733330708304156
0,0761686633793181
0,0675957451299233
0,0718517863475996
0,0707996574391411
0,0769842727500715
0,0783742361509491
0,0791448824800509
0,0644542855459211
0,072054463622549
0,0750670925005426
0,0743737679114012
0,0641899573554563
0,0761135281342186
0,0685609630796955
0,0723928591983587
0,0762142911203457
0,0764643625164052
0,0692009855950036
0,0778883781653166
0,0734718560940029
0,0813388437394318
0,0750809092560149
0,0810013464219026
0,0775990521620529
0,0798374515368747
0,0679756719940847
0,0776330348274257
0,0660345169889852
0,0774182432194346
0,0696895568351569
0,0754666656763354
0,0690454023964479
0,0781381403849232
0,0714459897548325
0,0800834436318603
0,0720075646281836
0,0834652220217401
0,0690506206461053
0,0766844297936145
0,0658251546499522
0,0731971704581769
0,0667323500954535
0,0830530250553225
0,0760280289249845
0,0874488400461978
0,0709386301503712
0,0750087066765941
0,0720992095797739
0,0812085263247761
0,0768013841506083
0,0796462153324004
0,0702668675636764
0,0764001312402542
0,0876695320074583
0,0747262128478446
0,0809565449839588
0,0744053726088283
0,0915077974976546
0,0698094999535278
0,0865900121004468
0,0699123655308894
0,0881422043737225
0,070959620622656
0,0924653978243345
0,0751996458476437
0,0830073385521745
0,0785812295527396
0,080987466585795
0,0782561784533494
0,0794175010886738
0,0803323777597284
0,0770003844604742
0,0820692530726404
0,0772732484390744
0,077590773443862
0,0787818715948515
0,0782750371343327
0,080068826204859
0,0750153195888332
0,0800238759127876
0,0773986208548893
0,0780598507173582
0,0807435419042285
0,0809111777278212
0,0794561144851894
0,0778893528663042
0,0792777302722912
0,0789059008617995
0,078310328759907
0,0809047542224298
0,0798083277453005
0,0781983004344165
0,0793073754911939
0,0816667135847382
0,0785789095884196
0,0759901733413793
0,0797846484219951
0,0811606121991504
0,0789609684264264
0,0798934905050189
0,0802221814122312
0,0793194820598978
0,0815915518371199
0,0821729460653091
0,0802938502302284
0,0818386703132964
0,0836284648941431
0,0803782078640998
0,0809915227030141
0,0825020965029704
0,0820012475670719
0,0833215758634694
0,0820068531880374
0,0816386938176754
0,0830427173437759
0,0826912973760308
0,082603603906307
0,0821897157009274
0,0843790819042491
0,0854560412579505
0,0827973430177398
0,0841399343175047
0,0848714107136015
0,0822152810959287
0,0853335798173599
0,0843461445491189
0,0842550190794599
0,0855699010372391
0,0847151319208859
0,084644151807466
0,0839139491204914
0,0839190510727483
0,0848013563745501
0,08538902094326
0,0860118722311439
0,0850581674425689
0,0877059027667923
0,0856452923929773
0,0855780041960396
0,0875616418419086
0,0861463058945889
0,0848236355750011
0,0863583866901517
0,0847954013092717
0,086183977371728
0,0851058068978458
0,0858162466261922
0,0882506582981896
0,0890620719810644
0,0865517430339761
0,0867047877479421
0,0871469185856978
0,0877511028590364
0,0857839958742588
0,088619919857777
0,0900928049043072
0,0885588880405472
0,0880723722079891
0,0913376124281012
0,0892037771943108
0,0896033292337804
0,0895995783243535
0,0891594091262107
0,087079354763465
0,0883203698996884
0,0904140789208416
0,0930805252079344
0,0912987978262245
0,0907766885043301
0,0896379980171236
0,0914542054013176
0,0919605141643266
0,0928199198241333
0,0906619484435793
0,0910674752551686
0,0894278026378551
0,0926659814635942
0,0943570048743015
0,0944599626469616
0,094385390172113
0,0942755156120199
0,0928851845570133
0,0941874294908285
0,0914712827475083
0,0936704595332295
0,0949713437585124
0,0945115070900363
0,0933742423495194
0,0946275148018666
0,094673260886741
0,0940055661233242
0,0938092024538961
0,0978785735434537
0,0966727503437745
0,0948579158398039
0,0967328289589379
0,0965767660813912
0,093411040562523
0,0960288172858876
0,0958490410872597
0,0951692744117476
0,0943681876185962
0,0948378505027005
0,0951728674045347
0,0979278040103655
0,097625409857773
0,0961755794189453
0,0976297759773278
0,0974830830137979
0,0959089416063411
0,0970736153480326
0,0960386788197965
0,0977521263353056
0,0976938688768294
0,0984791259175961
0,097494243412804
0,0965808494689243
0,0972145747054474
0,0989306675260976
0,0959529214324606
0,100426669682047
0,0998380723008159
0,0997951065667732
0,100147343556781
0,100746899084193
0,0986387813674237
0,100771769805752
0,10096235088056
0,101679907150859
0,100328438674902
0,100892599593464
0,0995820651564605
0,101144731307046
0,102753227650053
0,100792825727601
0,100471000207669
0,10199874035233
0,100996527418096
0,100683126055534
0,100700513287032
0,102476364888544
0,0994424679666265
0,101622482195435
0,102274642760174
0,102884692046307
0,100188250210907
0,10004661025663
0,101810492820137
0,101403032938531
0,100846656875204
0,100486007760495
0,0990323873501706
0,0999951049050373
0,101070202841371
0,103136815646933
0,0994040613091484
0,100612860059459
0,101079277269349
0,100862895823878
0,0992333141726921
0,101357061243863
0,100097435516298
0,100273294920023
0,0991820579042675
0,101063441104492
0,100537348355013
0,100159829587714
0,0990837229801151
0,0987855526493049
0,0978783001369971
0,0990081866143657
0,0987754585293708
0,0984977855354168
0,0982594884565941
0,0982404795369501
0,0991050345186199
0,100007614622041
0,0972319789045019
0,0978277816837544
0,0979047383145372
0,100496784825397
0,0988127748705635
0,099828703808685
0,0968982895103288
0,0968783408894914
0,0992689953887804
0,0974096915774799
0,0969364910358644
0,0975333830625257
0,0954041469825704
0,0986225778676173
0,0983658295042289
0,098453240723995
0,0979332402027272
0,0992020756175972
0,0978654368268927
0,0972164553131645
0,0976358394304138
0,0981721019152549
0,0977284043515799
0,0976929616761874
0,0955562328929168
0,0976106480211094
0,0957709477736939
0,097090578125823
0,0961654864308664
0,0978704520157509
0,0947937199184123
0,0959386135127615
0,0964626894382945
0,0943285446208092
0,0938234042157696
0,0956286058426298
0,0956347711144391
0,0939167958223392
0,093452706198656
0,0934288593353756
0,094067038156457
0,0958972038487233
0,0925712944520106
0,0930490393687089
0,0924318277333459
0,0944471416290335
0,09343083636463
0,0932396188848265
0,0917082434682861
0,09310428183502
0,092613473648077
0,0919911438269567
0,0928360289772666
0,0950945416063617
0,0921036227128224
0,0930118314269655
0,092699165188706
0,0924234814726531
0,0896653842857303
0,090869897892193
0,0906084986092513
0,0919300470789508
0,090918819569279
0,0893120464313972
0,0892900405023246
0,0908100217984092
0,088111313989164
0,089966838634266
0,0888187475389345
0,0892014985618429
0,0904923700144644
0,0905478509613826
0,0903185371952819
0,0904102698499191
0,0886434865092871
0,089491751040585
0,0876660487089301
0,087510031682599
0,0900879585428662
0,0891532437893544
0,0878908313651921
0,0885195456174578
0,085561685437758
0,0864678698412056
0,085338675820247
0,0880302587718363
0,0874307328560518
0,0888482496041154
0,0854899213820793
0,083518457281958
0,0835545419794469
0,0814678985696123
0,0816672112067999
0,0845428534423655
0,0842040569711528
0,0840067809806608
0,0828484815441555
0,0833661140942531
0,0812658501654367
0,0829381618033558
0,0814772716297244
0,0826003636805403
0,0825388812179166
0,0826850141630046
0,0833492127753719
0,0821099577519737
0,0798642277605304
0,0805331424914206
0,0797709016801351
0,081392284709946
0,0797900707790692
0,0807291067629747
0,0790745682677659
0,0782325744441292
0,0777629358700798
0,0779919633188082
0,0773934606402342
0,0770162687942237
0,0767810110163583
0,076606460504301
0,0753349262942961
0,0776800838322401
0,0750038892266227
0,0742570644591676
0,0753525444266025
0,0756646446960603
0,0744814194247962
0,0764021400828917
0,0761213232242038
0,0738130733801374
0,0781482312861452
0,0821820795647776
0,0768543656778031
0,0750605575485974
0,0773830952024879
0,0783400650467202
0,0732706798031302
0,0739506943611116
0,074826036390442
0,0737981515855799
0,0731495866459491
0,0737193546682066
0,0740868631288229
0,0722994788618901
0,0723885363829772
0,0719971361420501
0,0696890907072062
0,0722677013180234
0,0716642543535379
0,0722829374320137
0,0691066718380936
0,0692976958268241
0,0725310329148368
0,0725136372601218
0,0710100456017876
0,0702023391832656
0,0707870937521275
0,0749572008406273
0,0744164766475681
0,072299612817054
0,0692479746389051
0,0683553909343148
0,0683821431795104
0,0683305553457324
0,0680202818069274
0,0708590225610228
0,0666077080211416
0,0671658245922182
0,0704393080548862
0,0707480781859848
0,0670652476648497
0,0677473137151596
0,0691913042731381
0,0679355426180382
0,0658061334999859
0,0674291832348407
0,0685392177808879
0,0672061589606197
0,0644441189759904
0,0673124462809364
0,0671951154991346
0,0688121948738471
0,0647973503487591
0,0684459521803247
0,0724318859029944
0,0715417693446006
0,0668187645772618
0,0666328064465708
0,0645054491669002
0,0656028986843576
0,0647531657146679
0,0669897435093346
0,0648269638506716
0,0648490634739148
0,0641844905375361
0,0663716496509171
0,0654104471190293
0,0662564320822362
0,0636793037345507
0,0653477885077571
0,0652306124671086
0,0641212403540703
0,0628735628393648
0,0635272251457684
0,0632161606576224
0,0727195796806499
0,0699171006850286
0,0679704725727015
0,0634233885665307
0,0627871289014308
0,0767999927983516
0,0731842058115533
0,0616304004950089
0,0660116939770092
0,0648284238137685
0,0645596278575429
0,0634596700276004
0,0630089025564438
0,0647655853360065
0,0676824489988006
0,0679857358967889
0,063808264779508
0,065012460923808
0,0619903308783902
0,0628146768234205
0,0623055506868534
0,0624076763839852
0,0646486774083372
0,0623044131188675
0,0635695495729707
0,06472858312299
0,0625236120630682
0,0613867012236644
0,0600261111077735
0,0651082073884443
0,0666879221115882
0,0607696623336894
0,0631172286659231
0,065001657474978
0,059820822413526
0,0671536277428825
0,0717995509541956
0,0669650724760973
0,0620007299541818
0,0641811577601671
0,0641801414886598
0,0625092921518226
0,0602046448639086
0,0627310207724204
0,0600442466217542
0,0616036313690294
0,0637519568071609
0,063522244802813
0,0627661294637581
0,0613103068130517
0,0618517570671311
0,0618184462702107
0,0633948558964581
0,0614002231997501
0,0618677428237224
0,0623685362779818
0,0618412348894805
0,0720660299034022
0,0757771694751958
0,0709183548802908
0,0704762649351704
0,0667592049496821
0,0642338270894156
0,063352453595164
0,0620725726286134
0,0637193921799925
0,0639673249015484
0,0659840483868905
0,0622073795053207
0,0649106004398294
0,0636319141829411
0,0633583162968413
0,0608329786414077
0,065669428909493
0,0606559755491093
0,0628318201173512
0,0621023495613029
0,0654347092353907
0,0617327448211708
0,0654637328513255
0,065881559122489
0,0699383856948374
0,0616183950823855
0,0596985182219355
0,075752737206098
0,0837492219494957
0,0730789176254487
0,0670372494599699
0,0664865061261443
0,0636004078324399
0,0647930447148018
0,0660750328164085
0,0714774068615729
0,0632044940878603
0,0639199411228752
0,0632163178069279
0,0669416323869647
0,0665037115448106
0,0616373249479885
0,0695979668766672
0,0873737002569982
0,0773764388289036
0,0698721270756093
0,0619886527640611
0,0716845449294373
0,0871487399490451
0,0742291401726324
0,0645486772894332
0,0710234576162765
0,0661167105785101
0,0677550442913821
0,0649862640161518
0,0706181120408475
0,0740335889602034
0,067780685799359
0,0682157151284387
0,0673879589053193
0,067691389511604
0,0699962179269547
0,0705108133983398
0,0714515573534894
0,0747080858252874
0,0723217610610686
0,0701165713306165
0,073809688452767
0,0710968843045721
0,0725464413867192
0,0730118288918097
0,0695702919106941
0,0765389385551173
0,0779465900597916
0,0771712733588933
0,0799434437431438
0,0811467314772431
0,0729167115389868
0,0710452638006789
0,0812055062693911
0,0773683775882238
0,0669698189617479
0,0787192147275034
0,088543553227829
0,092692798391457
0,0812767550718501
0,0853763832182815
0,0698202155233615
0,0809672052682569
0,0710174153265533
0,0776156276034636
0,0782096783999198
0,0857278893143356
0,0736953042663855
0,0761825379209848
0,0766880794094078
0,0826722189845578
0,0819712355458191
0,0802743094019319
0,0797261673254113
0,0733123272048981
0,0870708495405049
0,0835379454648135
0,0790527100626182
0,0955687677726139
0,102866155205783
0,0986457581376011
0,0865344977802131
0,0871651261922259
0,0955930436216662
0,0961366476855864
0,0836643601394174
0,0838621935936596
0,0893661861074824
0,0800008866413623
0,0832135403052731
0,110295450567527
0,0985849130976252
0,0862087610825079
0,0890255264916158
0,0947386759261346
0,105387737996238
0,104094070531182
0,089070221668663
0,0967905678950976
0,0897890932269381
0,0894745803850115
0,109269485490988
0,1110418910133
0,108568826624547
0,112875507589258
0,11811728176081
0,10657709787976
0,114929572080816
0,100883767216637
0,112920856343699
0,115309445172893
0,112781206503082
0,0968317223041068
0,118383951119449
0,121295722005432
0,118583309992697
0,108232013082406
0,113565844054541
0,100880924043715
0,129505319162177
0,162338010439137
0,149583137005499
0,120739642327
0,124332721135602
0,135073876212997
0,135372537351402
0,122534934048996
0,127921993982308
0,132385482662591
0,130176248371594
0,133381371697089
0,142333073087902
0,138543404379555
0,14234617684637
0,136419708490058
0,140903844353016
0,149536450124027
0,189344541606826
0,165098090367622
0,171357771482952
0,154602042272051
0,177310688444259
0,169097976446994
0,165853672622126
0,16390091077173
0,169853956929262
0,174316439455469
0,173730108346741
0,179198907205412
0,192120048355708
0,188858273237474
0,208119228072248
0,201605919123312
0,211504157325242
0,185215742603544
0,216980940635502
0,267834181916246
0,258657026843089
0,227004180476489
0,22895784715553
0,241226835251239
0,284113378660477
0,269018951479687
0,253827661215072
0,260173346583922
0,26581021391931
0,275997848856461
0,288800609493188
0,2929618356015
0,303760659204072
0,301731890119737
0,303736140095031
0,310544946374808
0,365810523244807
0,386081322001036
0,357602940586786
0,359105826512581
0,371105600999767
0,380187361680152
0,37598473700334
0,383745083373356
0,377860977257966
0,408454844365322
0,428466112453386
0,439826344859728
0,412062260430342
0,43809845960268
0,440077191493048
0,459607235048456
0,457863813287252
0,501439041323375
0,481231452923917
0,477674664832182
0,494985828339639
0,487583802546312
0,503950941091159
0,530418716132788
0,54488973359642
0,526553369649595
0,532984001297399
0,551978517537311
0,549783914988165
0,561156313323382
0,562268567544053
0,578496938714076
0,582684943476943
0,628061769178907
0,73023389789548
0,633071428479886
0,606118610339318
0,597309164624491
0,610501777855738
0,613056068952318
0,62487904019239
0,645886211881237
0,63566144923829
0,625469796875172
0,624176168227895
0,627171670695324
0,61490714893975
0,628491556396912
0,623436693656132
0,628733577164932
0,626864608345162
0,627365749875933
0,642884171237983
0,692457592374643
0,639094798422042
0,610651809319606
0,617035333047437
0,596246016588034
0,616617389283436
0,597119475795495
0,616142037439726
0,618740867974218
0,61422298231899
0,570808601712249
0,5764149294734
0,588953448319888
0,584022690119813
0,562761153226949
0,541614204101566
0,533507119035293
0,532717486680959
0,515865753085931
0,542866959582144
0,544046439937321
0,517601347184864
0,491037852673646
0,492776302857891
0,476785074479876
0,473017431623719
0,468646084920956
0,470370384097386
0,454280420479582
0,460639878242667
0,449330628784706
0,447045549377991
0,433703552621861
0,436876898662823
0,434121388926175
0,432269150373657
0,425072767753279
0,423353823499278
0,412172514068404
0,413803747301807
0,412360540306082
0,409314817860991
0,407411090504034
0,414653926173565
0,400953824223438
0,397288668987586
0,398264867681967
0,393524663527393
0,389654008119331
0,392896392049817
0,390146098003707
0,388613782926412
0,385342814700292
0,386873347195791
0,383213211416007
0,382884793601114
0,385565578743667
0,378104840064524
0,382063557941983
0,37934578867878
0,38905006866915
0,37450288250856
0,382896172979576
0,409872314432554
0,407949017868155
0,389548215000302
0,371279458586896
0,386201613484744
0,360487321532872
0,367986778800168
0,385915054116357
0,403874913515485
0,373238582807442
0,369371941813099
0,368072781510042
0,379274313301651
0,368693148168188
0,376856694152125
0,355426758073673
0,36037848668095
0,361175810978834
0,411945306432336
0,436620154881551
0,434755751227918
0,385322406152161
0,345677090536502
0,374068443993184
0,373835466411942
0,375018113978546
0,337123714225976
0,353938804339749
0,361225122689515
0,358602858484633
0,353825984889319
0,346084629732607
0,340693275070735
0,342212824633096
0,357985586442657
0,34555115568122
0,353069995948039
0,3543742691325
0,347297800502402
0,333748404941691
0,411607124382695
0,350642629204627
0,32267571874911
0,312655773224818
0,31083293316815
0,330453733139282
0,316973112436263
0,326746030531898
0,31817193077794
0,301265671107487
0,301637734829195
0,299574985463285
0,325384741393289
0,28854637249162
0,313086067188599
0,302503838376762
0,304709252099783
0,27534257735966
0,305053892997723
0,309187880074052
0,325801881948908
0,289670787526696
0,274152084187458
0,301905751690093
0,297228191580449
0,294179245847791
0,278507130428759
0,263171145442759
0,273538721247968
0,275272917349636
0,265398360921128
0,259306777095202
0,271136021610374
0,278002884273821
0,265807216397543
0,304184479496188
0,288151049538048
0,255308173255809
0,246775889291771
0,238246293708342
0,254708879078809
0,237855753451492
0,238259684142088
0,250818830247649
0,243894519490753
0,252929613780688
0,246927467362737
0,258035034532344
0,240675007063157
0,241265101733458
0,237867332198121
0,245200956291891
0,264025788832694
0,280323319468977
0,254738459971403
0,251742335545047
0,256220244103321
0,267604616503732
0,246154115272368
0,260931366902824
0,255965225454187
0,264428414138896
0,258837151960051
0,272200549111628
0,268151451084696
0,276199824543413
0,268224338971725
0,312588066393129
0,291843936316227
0,309076503096688
0,289480063338747
0,340476138873214
0,327173115986499
0,33016577813918
0,319380076832911
0,316585581306583
0,323435344911623
0,33177059494504
0,328793668929107
0,350290855916399
0,348679141950973
0,359988081713136
0,341943839178982
0,362417481762066
0,342982047818428
0,366258309305083
0,363594957599515
0,387039065006434
0,407110736961657
0,397190897440089
0,390732838822819
0,370822633270729
0,375897430319659
0,369388004429677
0,380816114238903
0,374747976910864
0,365386230523545
0,383078584297639
0,390677605629111
0,385547317714352
0,378907236588326
0,385292649467657
0,37961440951355
0,382953246652438
0,3850966445268
0,388928072764464
0,387068627004999
0,392774329079876
0,385547824835724
0,405793760575934
0,418566388619449
0,429044779883112
0,399852918250934
0,402973070317358
0,412342802540436
0,410136625511158
0,414136507512813
0,419904713292
0,42614764552441
0,420922283100624
0,420604216469467
0,427595896387299
0,416680788594112
0,43589392152714
0,430927402553963
0,444209556539952
0,427763771268741
0,43003418716128
0,448963498437492
0,459268547740905
0,462537427129258
0,442829293268499
0,456528178288824
0,434837495547995
0,449094500054808
0,437399562805454
0,450716938892531
0,444332309631938
0,452391829939632
0,444545157140544
0,447564618290615
0,446790062642118
0,44211062874022
0,452337966505907
0,455137725852892
0,457983846000662
0,446442090327816
0,447904824606495
0,441588848033402
0,444810627374169
0,452631630869729
0,450752485371885
0,455767103879218
0,436070573179855
0,444708002840467
0,457786044978564
0,453496783847131
0,440659135355583
0,436763286553372
0,439454986404069
0,441479268264734
0,432011256242597
0,441696713917024
0,441689259024428
0,463536478015688
0,441754905745722
0,452354028471189
0,449402643740471
0,457598822710968
0,451429727458195
0,466147224304636
0,460834881875051
0,470662984197289
0,468661733687168
0,468093956198626
0,4632717350574
0,470659137480543
0,47313795984925
0,473094413652219
0,463170586462069
0,461911158424152
0,460075479137756
0,467535104449357
0,459239358460065
0,460589811207046
0,448097985876231
0,453480038915821
0,434406112492681
0,453941536481293
0,449850944829983
0,450266741446953
0,438405698660674
0,434849884678896
0,425055561210143
0,425359686823545
0,421463040128609
0,414201915002594
0,416556448498858
0,416704253001092
0,412198684575069
0,40675882039854
0,405611826121938
0,407440616893945
0,407324258134188
0,409207053322156
0,403898157264845
0,400408176240714
0,397616955176154
0,404556839165474
0,398807443407336
0,407789532811888
0,398444038109154
0,401555837735355
0,404669803197781
0,412051805481665
0,411032785087105
0,403996561776688
0,40717635176152
0,405631580143849
0,405833623708649
0,394636421432052
0,404639280118473
0,395382434232001
0,399130581062552
0,39721174475344
0,394314698632742
0,391054471951268
0,394249381366199
0,393012938674636
0,395537492867573
0,391945491754973
0,393928670833275
0,393506187823816
0,396592756302241
0,394663054120219
0,396478013765769
0,396298435386509
0,393236285533464
0,398665913087507
0,390632370218502
0,39248721751694
0,3927376654449
0,393969946796349
0,39583902426803
0,392742689880671
0,386506214638097
0,390702244874648
0,392505352099351
0,395565451482687
0,390864224917739
0,386570397478484
0,388788613423151
0,382483026902948
0,379358068951223
0,38060898091611
0,38056741247709
0,374154921268192
0,370396234665426
0,369756475840974
0,365894808570986
0,360911980927352
0,358735000099725
0,358098504414764
0,354387118000724
0,356356733221439
0,352285890400221
0,352025173608755
0,349781031920918
0,346759678149489
0,351332578687615
0,34765975008851
0,343922677039668
0,34709853348603
0,345625912550184
0,345645490641524
0,3414063590679
0,345489975779242
0,343338900969041
0,341400649514794
0,342869618046509
0,344965097038891
0,344938489594788
0,344173042476566
0,345191647212189
0,349580261543377
0,345856991348829
0,351313556671027
0,350212655426399
0,355194861886042
0,353673364949181
0,356326982736349
0,354652827691972
0,357009745092284
0,356192104156255
0,357871685371249
0,356286182605973
0,359694926048295
0,359303344141905
0,361638908745116
0,363038372972915
0,3628249779894
0,362925479122682
0,360357110883865
0,362836608617392
0,360350188889966
0,361884017171588
0,361812146741685
0,361655341029176
0,358604617440986
0,356697459628331
0,355559556713182
0,356596699565324
0,352343778335971
0,352183656733939
0,349980841733783
0,350172802438766
0,350712114177779
0,349171926912534
0,345712824400975
0,345133860108654
0,344348416224288
0,344473785550935
0,339036506150267
0,339352478618616
0,341254178035326
0,338700653725339
0,336899477700106
0,335183383193427
0,33759006931599
0,334850309602864
0,333443464130714
0,331669004416114
0,33203401386886
0,329286793841565
0,328554753621961
0,329425918341999
0,330730046204648
0,328292728676213
0,324550937637582
0,325323767511042
0,329125636741941
0,324852806463337
0,321055339660329
0,318222914441754
0,316342407604095
0,316930253363379
0,311028022244653
0,3088142965805
0,309756394970238
0,307095122914381
0,303148290226389
0,300877261767794
0,299918397652191
0,298056176402265
0,297038980247983
0,295021252433275
0,294356582552558
0,292605516731275
0,292578284992187
0,290971021398196
0,289283964112852
0,288603836878923
0,290936004374646
0,28890240575171
0,286521230661685
0,285348873923544
0,284781195003728
0,280528808182655
0,278363253403015
0,280263661929628
0,275738653177499
0,270663484300349
0,269901411362941
0,268498313119348
0,266541612354606
0,263148776430763
0,261736943697751
0,260274269561156
0,259337301012058
0,261659176458386
0,263599917771306
0,263861630170209
0,268437528923339
0,273056220188299
0,277015432278707
0,281782114644293
0,289880299074432
0,295523612875601
0,304171547657454
0,317074611566095
0,324020568748352
0,337076853684152
0,349408573989948
0,360071569410899
0,372914399825087
0,384013904600144
0,399135306978911
0,41168633768319
0,425012898099722
0,436168917864004
0,451874862416368
0,463308909925676
0,478548302678292
0,490763833743579
0,502764811004432
0,509402396157787
0,521175435933101
0,532717460525607
0,539570007024433
0,544408730004101
0,552448166728345
0,561069281667505
0,563246944263978
0,56623326571998
0,570842550402638
0,571759818844536
0,570980896401844
0,570608914326673
0,571120783649411
0,567779463236963
0,566601435257586
0,564669176525461
0,562890924122554
0,565434587120035
0,562254846266418
0,562259478484252
0,561585302663929
0,559481775379547
0,560929421414758
0,564745806343036
0,571217777333136
0,569116315906027
0,578249443785645
0,581541338347424
0,58456223051759
0,59086912499532
0,596529384235874
0,601581883184382
0,604873382546392
0,612436647663509
0,622324375632697
0,631734313187752
0,641467004086138
0,651174731869746
0,665506871732387
0,675113199846586
0,686624523377962
0,694306485960215
0,709961354487044
0,710772301135025
0,725550586735628
0,728646299605572
0,730024753664463
0,727399510294344
0,731790996113193
0,737219519444421
0,729370326265167
0,72690260882812
0,721579840961597
0,711047588175174
0,709212405811472
0,706729915164721
0,699731284944376
0,700744109868884
0,702095388390469
0,704423306223734
0,70876874300339
0,717147305234596
0,734790822466871
0,74187699889921
0,753347686689887
0,765438522818101
0,777949271888325
0,787211843780283
0,796916420361535
0,814166796619267
0,817342481149884
0,8262238547682
0,84491928269196
0,856831907224122
0,862440283629057
0,883761868277772
0,896690911094263
0,90326359482245
0,921452101236993
0,936368961104667
0,942675954909824
0,966030617438771
0,991363668952881
1,00637493328278
1,01923768473926
1,02760174563303
1,07108725446838
1,09402128646674
1,08745377543906
1,11386357652809
1,11297230892702
1,13092430974491
1,14279710269415
1,15011176842156
1,17230430594104
1,16378272901348
1,1886371155629
1,18597427047457
1,18563798583906
1,19906790644699
1,17726227941908
1,15008901274083
1,15730805613122
1,1557018117247
1,1376552414236
1,13638090516105
1,13390632592411
1,11467103395168
1,10971263645153
1,09628350420397
1,11687694878044
1,10752665518414
1,09454962279779
1,10780689068641
1,1263843565684
1,13180314871193
1,14032584540921
1,14131970484722
1,14052893116339
1,14792612571531
1,1929597336961
1,18545822644629
1,20518745553727
1,2044649514136
1,21926489184311
1,22998767033315
1,2361657880355
1,25287327645806
1,26631360275022
1,22856630904364
1,25534272604644
1,23996925727726
1,27371355252919
1,26682733532449
1,2459536257542
1,25971284097123
1,27850670785769
1,2341652998169
1,24387023247008
1,24407455571578
1,24255301699526
1,25277888409269
1,22810937026459
1,23179592674848
1,23563534854189
1,23679289482897
1,22104974703709
1,21252812703035
1,22190362631971
1,17639541367904
1,16061821524079
1,17139326475171
1,16461539482357
1,10254107959494
1,10954280963877
1,11774814279005
1,0625853649683
1,04076303136493
1,0282349267514
0,965769934142616
0,937531208000501
0,895931153003767
0,874386677509258
0,8352641796182
0,799178357973768
0,774142957250269
0,755564159523427
0,733617877419255
0,718272062018215
0,697575767662598
0,695936920663491
0,692248394379843
0,695749997694624
0,691197895968348
0,69426142137785
0,691809031278608
0,690220295707101
0,682366931555641
0,685438106714401
0,669685425557619
0,66120365613653
0,654966312407288
0,653465808268235
0,639996346700023
0,626281310700217
0,616390906104158
0,606510959857564
0,594995939574342
0,581518332478711
0,566399140326239
0,556945408035456
0,537904928800339
0,521762414285294
0,499913213274632
0,488041553064907
0,474690783173141
0,463265067087018
0,446965373820468
0,427378675792181
0,414210495618144
0,399191785848495
0,390998769835701
0,379467758389995
0,365405171968488
0,360227233853026
0,347375207757063
0,342632521733806
0,334620994542496
0,333326378378492
0,325064657868663
0,321992342247873
0,316285430070343
0,315146286668928
0,312978833390934
0,312158740931513
0,310199877118619
0,307432334883701
0,304895278647541
0,304260941911632
0,305537144075121
0,310985626085009
0,30748808548136
0,309837708473777
0,312150767914065
0,316835528856388
0,315638241413071
0,317461539170262
0,321040355013432
0,320690493113296
0,322771407176027
0,322433251114545
0,318630903592941
0,319739325434807
0,321302708858713
0,320740857076614
0,314612943763424
0,315625976622065
0,313843828727908
0,313238505927114
0,314083502028224
0,31747300526228
0,314889390392984
0,314552913811602
0,312261801855588
0,315120828028715
0,316349488665903
0,316913051343685
0,319760410180523
0,322595161156541
0,320073077645943
0,327917244668693
0,327127779304667
0,332496372450957
0,327638285948072
0,332721306832176
0,337007812314624
0,336970757216423
0,338948357850476
0,342676541837172
0,341430416072906
0,345943776401915
0,350846814370902
0,343267592535081
0,341401996114469
0,351383723406791
0,354820024686127
0,35179695946098
0,356373323093238
0,355152020800356
0,355085950745477
0,360789557525821
0,361009276894515
0,368274716100936
0,361986091449518
0,377018769293727
0,36924336552288
0,381611851347024
0,392798912624618
0,401437176025003
0,401653121492736
0,414560329008851
0,425568420102427
0,437511506161953
0,440496910563405
0,447731462303643
0,446862080412877
0,466642668667017
0,45821686404716
0,461895665174897
0,455057171022661
0,455920516452277
0,458091224843704
0,456525057619701
0,44316364719394
0,445900496951416
0,440053247083621
0,445222467549169
0,436581874980601
0,442627128579371
0,443320424724463
0,440709617634654
0,444465168361122
0,451817642389938
0,452753467322369
0,445118886181604
0,440475062896819
0,443953000994698
0,442375414648336
0,453256218378491
0,44942960668401
0,450645407991362
0,444961056597941
0,445974955998334
0,437063742667303
0,445124577414142
0,441332889877922
0,448395091292196
0,441882778914604
0,441018542987244
0,456859845866381
0,450248634012414
0,439483805623448
0,4509885096522
0,443147926461949
0,442715788783849
0,450867981027535
0,452215567632966
0,441517687638317
0,462435784290031
0,457646041804991
0,456474562845303
0,449816509020988
0,459642046128968
0,45462919076198
0,459268318776365
0,458839966228747
0,456779548243653
0,465368350116944
0,465665729085157
0,468119800758789
0,468556943670617
0,456705089949104
0,46751241054964
0,462662830797086
0,468177792585533
0,469885391571728
0,472545227129963
0,461692060406271
0,466522396250578
0,471390187918716
0,474062203470536
0,471421879155528
0,488986577661479
0,484134137514695
0,481619787508027
0,470865903132183
0,492278719452921
0,492399940366457
0,497069294027732
0,474948846058647
0,50641050639497
0,48652331727657
0,493772134658802
0,514957583241955
0,514352619737247
0,49757613932554
0,50238039074221
0,506078137365739
0,517825096433474
0,49078476414483
0,525665704017376
0,53671584204067
0,528841770193489
0,516902587973105
0,541458681269135
0,523011174914886
0,542419627720003
0,549302279678651
0,549774639549279
0,52680127551564
0,574075537827423
0,548343481795281
0,561679591244839
0,557988695643334
0,588197572088791
0,585054962465989
0,594063745289746
0,592356051125831
0,602067064215448
0,612659497826617
0,628086775294921
0,63344055800344
0,641738194904316
0,642212782490824
0,669555600328957
0,630240442395553
0,676303655984221
0,683657515138553
0,682967618305506
0,680343144717516
0,704891935326735
0,700059587177901
0,700303109432864
0,680983873656624
0,762571825544721
0,73230963733593
0,745612517658568
0,745898034807197
0,760706875213882
0,676888559669265
0,76576238616348
0,722170653035001
0,739429161327107
0,68841330718276
0,731011584652041
0,69277467030603
0,737519033578503
0,732906119516742
0,79155591005724
0,708218841577007
0,723748035610327
0,728570442716278
0,772531194319648
0,723136507390695
0,769743203536146
0,727351043104465
0,729072387803358
0,718074787454207
0,749397558807037
0,730523807483902
0,757263883282768
0,696384948155604
0,787707174621235
0,726135005156681
0,736799035583808
0,712678159167152
0,767241692347666
0,687707879393479
0,765207088850759
0,726530956940572
0,794472599280653
0,706123720418943
0,731423670556051
0,7440201239135
0,767988119854188
0,780690935846423
0,822094791050065
0,779832684887
0,7956199889862
0,786238026936795
0,747707089435223
0,715621875054837
0,860194535583663
0,814954132023247
0,820823526611455
0,803469489200843
0,912006311925697
0,77040682520419
0,800241710103972
0,766122572877495
0,859173579845532
0,70307872145182
0,804047393607547
0,788171025559518
0,86233188216897
0,797337321138762
0,93471736435555
0,717108826816511
0,707712169191256
0,842771603639652
0,949475923420786
0,756111244927243
0,845375934963943
0,818926425344616
0,848706840435228
0,786669621791693
0,908838875228916
0,773297340282254
0,81069018931772
0,803376215948793
0,947051188185802
0,803049286816625
0,893209473065921
0,826512764857982
0,943930953985673
0,877148539408693
1,03869875539025
0,898410679429062
1,07788752288196
0,977223696021701
0,917585548848854
1,00464292561284
0,948436070412483
1,02982101096674
1,30538651056859
0,784248220089021
1,02617941106831
0,950149218302507
1,19404043900531
0,812983117360926
1,10161061829951
0,958101420747864
1,03263154594129
1,18810197462241
1,23000160253501
0,950765551580883
1,41366815049769
0,808889926517759
1,060212595599
0,78906475090694
0,84005548149341
1,04533391602623
0,890785771149498
0,90981405976015
1,20479775096981
0,886335219505536
0,964569659714413
0,868674913772812
5
0,739101095639598
1,14352423934217
0,990009497521674
0,977649052978213
1,0879184497403
1,05310661981221
0,979286916959236
1,31845383293405
0,800212938712504
0,747772882430691
0,851960419138652
1,04298331435408
0,859648842551792
1,19266129500711
0,81972768971305
0,953476515759641
1,13145713722527
1,94117276566356
0,822055574427024
2,42185557324847
0,775471452046045
0,730494825712129
1,06399568416768
1,34954110295936
0,634271239368016
5
5
0,893852541243286
0,524172775024794
5
