3596
4000,36533379555
650,420452594757
1
2
2
0,100952473773994
0,0873641391127331
0,0939935591760526
0,0882027435847505
0,100814568514192
0,0952764044776292
0,101801700702892
0,0835138837701716
0,0921285346990099
0,0875342662405102
0,0988622239504883
0,0805462600886381
0,0894819490053676
0,0846026811407652
0,0964738594792893
0,0930920073661072
0,0889467061359225
0,0784629620235648
0,0951059234812845
0,0835063656703834
0,0981576956589456
0,0783060299534886
0,0882836226291601
0,0836517014730333
0,0974271195415068
0,0964465194252578
0,0932429456876426
0,0912118908021871
0,0982380524182318
0,0877467597121055
0,0933242623704665
0,0857675492901244
0,0972440245520992
0,0903231163091461
0,0892196130766131
0,0888117003768245
0,0953936245761569
0,0894219679558792
0,0919234445628569
0,0931970191935085
0,109853028741203
0,0867095852979862
0,100324952244534
0,0885342230506769
0,0997981909778377
0,0860976337255316
0,0888638064316042
0,0841852119934273
0,0990026164678287
0,0864237301762802
0,0928304893972167
0,0853832931203311
0,108898553967989
0,104446749040753
0,103196511799099
0,106721316411631
0,106726494037462
0,081929993475618
0,0930597418514103
0,0922805088574748
0,127024948972895
0,111657624179707
0,0875964218800622
0,0923142326087805
0,0821491196718752
0,0899455944018847
0,0962187094861485
0,0864294714345639
0,0880026373387325
0,0901554284252166
0,100207651501072
0,11442861632936
0,118546925323178
0,0879724224116494
0,105483202635759
0,0971176973504014
0,0877047937195256
0,0847227597852234
0,0853509029214412
0,106765698336471
0,119175100590627
0,0921743184895556
0,0934761640309187
0,085111704941257
0,106063111427699
0,111508865975872
0,0944054861314468
0,0932641877015159
0,133286691075307
0,0970356864778058
0,0954873529419151
0,0853259745082336
0,0827240512136556
0,0811744480871324
0,0900345807375007
0,080068618500442
0,0941945799562992
0,0781101676751326
0,0886043561145309
0,0966519111304347
0,118788933265199
0,117597957308822
0,155022649114766
0,109189776700823
0,152140412090163
0,116833924590757
0,101464833384409
0,149700148982306
0,115468360869251
0,0960091952381627
0,0818253020429075
0,0815023870841866
0,0944708406983984
0,0918916955626974
0,0986584481150043
0,125775260626287
0,132265616038609
0,0805874638532094
0,0876400358141242
0,0829644774707596
0,0924278118020756
0,13097454260057
0,147520108295258
0,0925013915271006
0,114060346187132
0,0869055046765645
0,118780986898169
0,143898387315461
0,125797172105037
0,0827090879714796
0,0942125045652782
0,0768645842184376
0,0824587404909028
0,101818665556432
0,150616273096527
0,10128718049717
0,0965832324085923
0,110270158707582
0,136387838190279
0,14810716961032
0,106662146769349
0,0778032421187594
0,0886931758147377
0,109553688690746
0,15087968817913
0,102978383889669
0,0998042926281098
0,117016471165566
0,107463814372056
0,0844082565832375
0,0918274026862211
0,0913209810041771
0,1199988789659
0,0936178333854639
0,0878562694230383
0,146368121810756
0,202198062387403
0,130568700637332
0,158825842124161
0,100651784019762
0,102044362760365
0,0886625960988031
0,0871195112655571
0,0848208617257114
0,0888275809692121
0,0808770639994561
0,116204723726234
0,122788790372361
0,0874755776898655
0,111094059530791
0,149093777242472
0,11962214618188
0,110298775346453
0,152019500486142
0,109680819531612
0,0890403238073656
0,145686248665634
0,100429109921444
0,0861444727327787
0,0997988084854503
0,120388071296286
0,0824626189161176
0,0847805177357792
0,0793211161228519
0,107335841764215
0,112122369122712
0,103096027782932
0,0911876537692276
0,0962171686969642
0,0898204142631776
0,14833525738492
0,158099035640223
0,135389358419349
0,10251414742773
0,0915789627339931
0,0879766176908599
0,141214370393283
0,124770685872324
0,0951954870507023
0,0797049980126928
0,0753752387902843
0,0779248131823246
0,0819248329075469
0,077654557159048
0,0788628626415212
0,0818413416737192
0,141785134454624
0,111380471491757
0,0832206649437947
0,0848178088020786
0,103633784030789
0,109884929718207
0,158359478350301
0,132170457403438
0,0891583768605024
0,0845302128728199
0,0905777113082887
0,108389852724156
0,107685130977359
0,0764494425159427
0,0843749168109317
0,07477737703337
0,079652643947964
0,0740815462158161
0,080106721332399
0,081632494441286
0,079036737046408
0,0774379279539956
0,0887699347878022
0,0945236345751241
0,0958909953942884
0,0888992537173741
0,0855198749681578
0,0795274653036244
0,0815069878685338
0,0990927496072398
0,113671697117422
0,0870110482352902
0,0831904330583114
0,0815569618063462
0,08157783423847
0,0808699681767514
0,0793727457169842
0,0808200390678418
0,087525023610448
0,0988438512423123
0,135471444118746
0,0962173761036373
0,0800452476408893
0,076929234478136
0,113601365395027
0,106978689824495
0,0771698154791909
0,0869776044185664
0,0868268641922492
0,0755664113242919
0,0914874335401371
0,138592436010656
0,0987586801684166
0,0871080884538473
0,110865969420162
0,0945250150038544
0,085777247608292
0,0912195946959733
0,109922298802542
0,181884043500298
0,128703384205346
0,121377579812852
0,173995534367439
0,117203634411639
0,107939545738775
0,100288668204591
0,10194060233897
0,250230355704936
0,16001508381317
0,0891960980666989
0,0984163561517308
0,110179566121477
0,0910727929329329
0,100141781050052
0,111989568661992
0,116695984019053
0,1391845514587
0,212770262651407
0,153673152074547
0,0992950932613886
0,147510156174213
0,133764598224567
0,0944460568503407
0,0914129175641036
0,0830784475418022
0,087237367335552
0,112669970200261
0,124423579848487
0,118260283772679
0,0966311465996482
0,107540811843485
0,141075163801859
0,100299179534707
0,0843712772281564
0,109296175537199
0,101324676099658
0,0839212749997709
0,083854537043169
0,0880430823500926
0,0949936718355618
0,0881895534643353
0,112403697925466
0,170399102918046
0,113011215024958
0,112720253398252
0,128181283389115
0,0922730317857982
0,0871928863522722
0,0846728368971929
0,0796129870833517
0,0848916553143036
0,0775072764356059
0,0913190536410944
0,121062249674577
0,089034510976079
0,0785793728313663
0,0821253705505168
0,0787393461309559
0,0858833271163238
0,0885857892725434
0,0848783896592247
0,0868876620111225
0,0876537047263892
0,0846989635156124
0,134094496012974
0,127874508209365
0,0982602321586769
0,162000224003503
0,134402590478026
0,0962467563977775
0,0854208191526656
0,0874281745775534
0,0869097806057832
0,0891262817491653
0,0877159288834461
0,0860081943480804
0,0999213753462877
0,115747454495349
0,103805046196007
0,110383699270935
0,117890927791893
0,205863051334663
0,187836614047362
0,130526440913726
0,101940175146418
0,0925901243887635
0,151919759402272
0,146121876803957
0,14814059540988
0,130115474716458
0,0970929794641801
0,0986172377729832
0,094653054504374
0,0957130400136918
0,0956861718930009
0,0958585948756064
0,0973981994110236
0,104495583245646
0,0950523068122886
0,100355961914986
0,0950010578163995
0,135121445811836
0,15989950639587
0,117689442187
0,110761730208779
0,11217553696163
0,110223842027777
0,172379388078934
0,172101396113457
0,204593295811564
0,160919385717978
0,192111059342542
0,181999055137794
0,12633384323395
0,117188499109118
0,109456994281507
0,122260834807278
0,122543421014642
0,116680185022463
0,119793787747547
0,113756578909733
0,130531751142625
0,122343575175194
0,121704532611421
0,11729197989417
0,143204508201513
0,152792770416537
0,13520406372705
0,135178742679111
0,139024427495213
0,175715358508749
0,2466367328232
0,192391045493777
0,151291114126739
0,163271466935679
0,140585714094545
0,128672912729141
0,142203918946426
0,14638412675518
0,154022738255081
0,157120875919198
0,201912958541946
0,183860413349431
0,191921320491293
0,166283633074341
0,153509895105027
0,188524631363006
0,174378652086271
0,182922460314015
0,201735533450199
0,168695991350673
0,170381041682465
0,2031159836138
0,191886204130559
0,200446707952112
0,205391701544986
0,160442414530465
0,163421671084026
0,17559914419557
0,186614232395275
0,176612224219915
0,196746594726501
0,188259376326929
0,201326003448201
0,186583253549376
0,186123997482262
0,190301754917471
0,221236022529257
0,189754304542105
0,219428228787634
0,207760366464877
0,192206897143852
0,18641060334981
0,197443319519189
0,244173072088412
0,251269160799935
0,289118416136829
0,240010371826618
0,215284497802877
0,218369766197305
0,209922280390407
0,213636990197028
0,204525804938782
0,219765726800549
0,212102763448945
0,220289354268792
0,22985886941801
0,241724546455397
0,232556965541336
0,238843499630778
0,240335399742627
0,236627208273512
0,228783841094807
0,250224509613188
0,242545991711112
0,245050140952273
0,312266951864756
0,315067013215237
0,341805914147226
0,308034068105918
0,264930224716399
0,268167701867646
0,257354345026735
0,266467720149869
0,267156880987486
0,281664432130801
0,270129187931652
0,28186259693296
0,27861532765496
0,27680307645619
0,27391861805357
0,306050176843505
0,291851187596663
0,312511875462547
0,301678564678597
0,303380302108263
0,299312583806577
0,298857097972473
0,297654750781885
0,342894721531691
0,326805371510236
0,337727684172788
0,315886960776437
0,335758323337281
0,320172444580991
0,327555912755317
0,320123766677129
0,37213722038335
0,332203195529792
0,339101515971476
0,33634807616617
0,346017263004244
0,341563203934862
0,345280388756626
0,335767129381879
0,359369993412008
0,344215970723181
0,366331672663453
0,377871319763163
0,384207570431027
0,372502432536223
0,397372825200689
0,377215356753815
0,390882717610739
0,394036119199206
0,41051559855077
0,398561284111379
0,404165129435403
0,386661813773057
0,395098571166784
0,393232022115555
0,404343499454632
0,376967858086816
0,438574307593198
0,404969900602857
0,440655807733126
0,423722163035181
0,434646897683318
0,417096540867022
0,453987112466665
0,434893586761803
0,451263105138499
0,425688096157095
0,449651507905328
0,468303156245834
0,455889859591185
0,458142290260401
0,503485495903401
0,466586563574805
0,468780491073024
0,442962269112734
0,473004868939963
0,465622461370376
0,476375055333133
0,467826370979653
0,5001557884748
0,497012983737706
0,504518817365505
0,490257220236615
0,492928808012586
0,481111843141511
0,517269911086373
0,502175452349115
0,529668910822225
0,521061843255276
0,539944910071682
0,530240551072592
0,536705578473886
0,543943887063166
0,576492121915024
0,520021923503168
0,535693396996095
0,510614294894359
0,556058006049865
0,534027360163618
0,563197103887235
0,527255503634756
0,568263009731694
0,556022002555763
0,59260607919391
0,523656710514002
0,586747194148181
0,542462816167812
0,566353684245408
0,585633860620712
0,6175433134041
0,580148016849913
0,61526251472753
0,580498188217983
0,618624139880152
0,587120699610011
0,628099227572883
0,577178796829424
0,624979187942578
0,601620987256459
0,627295177184013
0,605517543678616
0,63457941393654
0,594529199374116
0,639581398626879
0,61584154559643
0,656935633826592
0,60512333497933
0,656302111752544
0,646988791161209
0,669559646523132
0,661911561478153
0,675425234306046
0,62754128095612
0,684542801070461
0,684665704742624
0,702605904514393
0,652372302179163
0,661881185943665
0,647493177314401
0,685136194994502
0,667893546345362
0,713558331621535
0,67132576477993
0,712078127085551
0,664051944298072
0,73890410691756
0,670075674288821
0,733466102588631
0,679470599328609
0,731574529032821
0,680420528709336
0,739216772976651
0,702316644557717
0,712276369441564
0,705353725633911
0,729765708268137
0,702103868351212
0,742914398882301
0,753052182210917
0,748677208947687
0,708438916354876
0,747907968730634
0,710678542149364
0,775581544339623
0,690747459006311
0,793634789253058
0,715503145616364
0,76861266772421
0,74253947527861
0,806710034022873
0,744323821337106
0,758503250273746
0,742809609037875
0,76300876750593
0,736873184677946
0,801147121093982
0,735919629860515
0,778821957899653
0,781457219987679
0,798132442557498
0,763754330139434
0,818335744008372
0,7385862464381
0,816433320435619
0,790048351812508
0,802528931241646
0,775604734043913
0,814778145176757
0,790528003123631
0,826850751556759
0,769787000047917
0,827132146711749
0,809772991248505
0,868753450511569
0,810032333814249
0,863701933994153
0,79544265006151
0,85010972285833
0,824829668327965
0,833135469401938
0,798956988480682
0,853063051558429
0,836010228631102
0,885753899676638
0,82139313197902
0,879367229497121
0,804638843198311
0,877602233219957
0,83266255045957
0,841596190704856
0,824508294080573
0,896072910719249
0,792302621586578
0,82415815361206
0,80324981779117
0,879738243899706
0,860261527107639
0,902913985791623
0,825102753977508
0,892648388981777
0,858492388715999
0,866233016906624
0,85255110391789
0,883763400156093
0,822181276098954
0,958471633703375
0,842420813901574
0,873252349203928
0,841914830010256
0,905150951113795
0,844309426308697
0,90567694497388
0,849902515895596
0,891957751966912
0,846854403697939
0,882287851047085
0,88769095587199
0,885333442139242
0,885864988248957
0,924625640552631
0,861467145734947
0,874437604491558
0,844519506726708
0,920456864818115
0,862705069396938
0,936891682693258
0,864012627873849
0,935309977485986
0,855443849987224
0,87655075224145
0,864730405763172
0,898794516226533
0,854483050109167
0,934771697398484
0,869182535720394
0,883101148382216
0,8469653355518
0,926297268301653
0,855834996744959
0,920979124154383
0,875304484854151
0,936703256625097
0,878551854981811
0,900667729414644
0,843542700020864
0,915029545417529
0,856650619549965
0,88220933031259
0,874268438465951
0,903737654376085
0,844267263571529
0,893887798126935
0,872793963835464
0,904202136032871
0,882291588090419
0,960366205868744
0,84292978764199
0,921079342754825
0,85742534424736
0,921153294948407
0,875897475143101
0,89215452385288
0,893768291877462
0,914668276980568
0,843128354271626
0,939995253106687
0,857992060507619
0,912083300467072
0,866635647619136
0,926030824828984
0,882845865681274
0,909259980901354
0,873958959465386
0,901358455518981
0,855381497577491
0,895771244279243
0,843911879056884
0,89877907208165
0,891856532225148
0,905268118731485
0,87434906101049
0,934186681966849
0,871690421845613
0,911377417495436
0,838084255123658
0,880121633440527
0,878526684802898
0,907852877729901
0,860940563330195
0,888329668668727
0,846625799083704
0,910881714421662
0,898046027614011
0,863822306735326
0,823202686744355
0,879980429053027
0,896122683626537
0,903770217688404
0,858911671383587
0,892260034188773
0,857648864478167
0,885042129446942
0,877562581104625
0,870124298231275
0,828007576747774
0,877314363485648
0,854623476182467
0,911063263708531
0,856323876670749
0,849491579515856
0,849255823981663
0,84414128538272
0,826631968567386
0,857545513661381
0,830456592380151
0,853593545633587
0,831785579419519
0,900739290144126
0,828904338515331
0,863289145142074
0,825002736425298
0,857414368549372
0,816527179145773
0,86499793642559
0,820655075567341
0,827502179351912
0,794044930955702
0,827614118185839
0,813553359901632
0,819007498284828
0,784943180990683
0,816501125909308
0,813830079975589
0,810931998910228
0,824775153292852
0,812010913180896
0,782420620482221
0,828171667321781
0,800465095382006
0,807777114422627
0,782696415993663
0,803246363395756
0,774831878997876
0,833137406815088
0,792857784744561
0,821520848570018
0,793780936219421
0,801624484903282
0,77679166432928
0,764916734886826
0,747814253047524
0,775942784277821
0,763463144905954
0,762032393426825
0,738987749409823
0,781073229458283
0,752244878766028
0,78355468278247
0,729308834512408
0,774069943045144
0,742030145814708
0,748657456272277
0,724530418468863
0,770947145848933
0,732757551936012
0,792539612115703
0,711573170197094
0,74172982453381
0,727048533988075
0,736516045014566
0,704113291705772
0,732662232950138
0,722917432442633
0,735960603253182
0,712356117292141
0,717163870780876
0,712945609808493
0,71556848528227
0,692174170518484
0,713754917185465
0,694100645632478
0,704476876261042
0,683716108319703
0,692412306934913
0,673503512790889
0,710986891300273
0,681526924188569
0,70041579872448
0,671686458226622
0,691080494488607
0,672654182739281
0,668694612747373
0,66393172497148
0,677122744701084
0,645212563759558
0,67158846400168
0,658839500476137
0,666570457673965
0,63942095145146
0,657385368150247
0,638593210292801
0,656015129674418
0,635530474111764
0,648746443716933
0,632742845659098
0,652135535025734
0,624779338659728
0,641843285999941
0,622273766046481
0,624454656463704
0,615716285007208
0,624806601472027
0,60430880725065
0,620675859760885
0,608494522040887
0,627207942660977
0,595689231009686
0,610509343782948
0,600241088832055
0,610212714170657
0,597612970228606
0,598637405855475
0,582080866404902
0,590873343344967
0,591210499437469
0,601464886510214
0,566790357304363
0,583689469294245
0,563137114799835
0,585553726655047
0,562608336692827
0,581726246969945
0,557820357482387
0,563263236410169
0,549514738185541
0,578326594243006
0,5537698341882
0,556626197510499
0,545091473185113
0,555021954877154
0,541025339804553
0,56120149875258
0,538418250313436
0,547053930116802
0,53160883802484
0,543659580637339
0,52201434912131
0,529951371605349
0,530243837657179
0,529693577698288
0,52271890493507
0,535196703655202
0,515247520080737
0,533395102996683
0,510613288131728
0,524097448944768
0,510559287391288
0,509743148128076
0,500883418246178
0,510901540499735
0,490393518542237
0,50251062132118
0,489798897360405
0,507636798573079
0,492796332071222
0,49812428708604
0,500721333060012
0,49871509304285
0,484229389218133
0,487968014447499
0,488447944749346
0,483783255791231
0,474892905626247
0,486939133052511
0,471664865446789
0,477179076679145
0,473467257391579
0,477281315676406
0,469472252945282
0,464867351366985
0,46895159761968
0,472806551788105
0,455434984936369
0,460713707880052
0,457446631354965
0,459494745259615
0,455890965243957
0,464700223356691
0,449752908793105
0,448277752518763
0,444453988240471
0,441810440929841
0,437850370495646
0,441785156330225
0,436528093704666
0,439455828760801
0,433082271164036
0,437457260883477
0,438775980955743
0,442502669290421
0,431355437291212
0,436701498806237
0,424462378571285
0,432290421819711
0,422502090311808
0,435953560286811
0,423164304091134
0,426934979621978
0,415383416248837
0,418266200571874
0,418858960224898
0,422022458239135
0,409161500422332
0,412556831358955
0,395132351643554
0,407667362240926
0,401435836480115
0,403425243710991
0,40291247321952
0,397986843199124
0,393316972234719
0,401921241242274
0,394416394833359
0,394826870610667
0,386061745435807
0,395582088550751
0,393742368755205
0,392497298335267
0,38791073032255
0,385772282742889
0,383865108833481
0,386142252912199
0,377459455071156
0,384975409463046
0,376536684995334
0,378443166726533
0,371001496172352
0,381185306721644
0,374083341251894
0,369950583360505
0,363956196769395
0,371959757016574
0,3641665687758
0,361497894691998
0,361188828782902
0,367270331628563
0,365138923952849
0,365930074570615
0,356251019049455
0,35798186851431
0,343507615827714
0,351476795700711
0,346730031283089
0,3540994032397
0,353128527474019
0,349900649876977
0,349101615714615
0,343213867771075
0,338106382896434
0,340540008006237
0,331695205056044
0,341207676596278
0,338146714806984
0,335234991664798
0,326128265450384
0,33457402643673
0,336404985644125
0,330909141708617
0,326070145587593
0,322333636764806
0,321322777685859
0,323544713693731
0,311871498938734
0,322502299119261
0,316086888823729
0,319139060136369
0,319889967982691
0,321998611541989
0,314447947161246
0,31039779345854
0,313243316578223
0,316707168682575
0,306082517326884
0,306885496513494
0,30672227384154
0,314998848485275
0,309727517925921
0,307849005361902
0,296790939385259
0,304841826052668
0,299348566187377
0,300921959130343
0,29853780941396
0,305569714496574
0,301369276886155
0,301304250094991
0,300746641971573
0,297253631571628
0,302223584828347
0,302564004273457
0,295070385335073
0,299078992025259
0,294974686187851
0,304255230587415
0,300066609025111
0,306274965173676
0,303564214913704
0,302597306210298
0,300143103542024
0,303761484131984
0,301579270027761
0,303940319516682
0,302903607780065
0,308907882021411
0,305414730610371
0,310083563472423
0,311737490443854
0,318039290005392
0,317607323455194
0,308943256685253
0,309432747258106
0,319058617261103
0,324080109587378
0,323877992392873
0,320385217589518
0,326317510545
0,320848871210849
0,326838538055128
0,320612458762433
0,325938817315655
0,32967173341156
0,331669215371398
0,333446907184546
0,327388664872228
0,331090535009113
0,340262650475982
0,334166688755482
0,33754363750081
0,335396315843868
0,342150291840869
0,343420059167973
0,350009109797237
0,34471177802931
0,352987542743593
0,353326442414469
0,356107205494081
0,349775377345667
0,354541726381654
0,356220975569102
0,359020457934392
0,362460216079252
0,363513947363177
0,368231427016965
0,375115338297496
0,372698156597022
0,378455319519056
0,379580971034635
0,379233061958164
0,377377547305399
0,386898753251385
0,390871813789871
0,394153778654653
0,39148165514666
0,39403052191045
0,390180823916055
0,393497732485748
0,395855800284568
0,393342720039422
0,393988108739155
0,405081844380203
0,402664068920774
0,394676622536802
0,392940602519692
0,398246907897889
0,393118362163583
0,401720978919903
0,391484935275039
0,395493450424252
0,393826044284812
0,396010017964148
0,391502968856134
0,392619068230796
0,389405060758284
0,399506495031486
0,393013321693802
0,396425982756598
0,395235485529014
0,395485436438465
0,391990908675825
0,397943548792753
0,393363600363945
0,387314477610966
0,392841241122456
0,391172742993552
0,394399510469221
0,393180529586013
0,387899886991181
0,39074138061584
0,391060312164059
0,396106322773378
0,39709211852604
0,396348287516947
0,39130047722002
0,401254664580666
0,394608260129288
0,392394618789887
0,394626294883419
0,397570043691217
0,392862912445596
0,398612179757071
0,402128131334538
0,404661318736522
0,40122051401709
0,404300959959535
0,398551945692648
0,394695383374531
0,395786989921332
0,399179567215155
0,395404960359149
0,398274346734629
0,39986146252162
0,394846704578967
0,394939255821603
0,399687814416512
0,393777261772017
0,392414235746668
0,393558243078947
0,390317194708672
0,385320025229828
0,386366538956057
0,382133087700805
0,387886058218598
0,383603738092244
0,380472896580245
0,377620052439779
0,373193613293028
0,371467659353581
0,368787463124775
0,362382390629773
0,363553376445268
0,363009960464265
0,359697765832308
0,354548545541376
0,358512835934393
0,35316453040148
0,35280198718614
0,351166504908717
0,346692314054854
0,34378288468249
0,341560234472444
0,330861822569389
0,328609849466429
0,334846921554734
0,332626881515214
0,329055143506149
0,323913999742169
0,321237838277156
0,323192542118587
0,317563340608577
0,31900339599082
0,316552412763893
0,315406685325619
0,316188653378882
0,312959108525556
0,308668159863757
0,304052078762266
0,304096777997887
0,308609068875675
0,300745331059855
0,299809279571656
0,301845750517411
0,296303194421833
0,29605863965028
0,296512505521691
0,291374084238305
0,295615384857823
0,290735283364734
0,289248306528466
0,292244282547635
0,285507792126335
0,287601156005684
0,285637505207584
0,281492411777088
0,282297999455623
0,279530413328717
0,276410485289635
0,275289516590976
0,273839723328358
0,273624481364353
0,274828816826219
0,272469751132866
0,269781501282379
0,270908204219453
0,269004687260855
0,267371666040455
0,265678457840066
0,261444262350512
0,263136952171011
0,262446748652294
0,256524835146921
0,25938376301359
0,258236217365661
0,256799065213793
0,257275341428338
0,254326042016474
0,259885324468463
0,255776169623151
0,251181590809426
0,252492309214271
0,251966219586678
0,251642014549306
0,249459008967814
0,244835209351688
0,241318988843535
0,24331242715238
0,241841497496386
0,245689080830763
0,241109077241034
0,239417313601651
0,241444151881074
0,236632226852551
0,241278345940143
0,239951209146553
0,236264850870048
0,23560635923029
0,234468224893887
0,239900807142891
0,235089476963793
0,233459337444195
0,237154191926216
0,233243828955552
0,229457357976507
0,230988605406882
0,231260624610362
0,229710555576108
0,228189844029866
0,226849725015539
0,221585359657999
0,226583235879146
0,228236277838288
0,225911425505453
0,22368075136076
0,226323228968874
0,225137313036428
0,22471903493347
0,224878030315132
0,219949663073261
0,219995487369646
0,22275186616748
0,222131156079479
0,221682114570917
0,21559083730957
0,217340120912417
0,217143553179619
0,214694482724501
0,211308834281174
0,214809358167332
0,214592626486597
0,212388314778505
0,215358419347016
0,215385289046371
0,214111058104
0,212226146338923
0,209080745152302
0,210654863747304
0,210678459510066
0,211329522721939
0,20533947538064
0,206222182391902
0,208941006361492
0,207591528874596
0,204568154967765
0,206931873106011
0,206463891892705
0,209914831904775
0,209125353910305
0,207173342545436
0,206154048788896
0,207882630134855
0,206070256909608
0,203303039393228
0,201279173401126
0,206037171980612
0,208434786049851
0,207729966161508
0,203321702470631
0,2075535161537
0,201031079365266
0,201004323736629
0,201331531894855
0,200402196159868
0,199297257709953
0,200283099115323
0,198351819126127
0,199874836326175
0,200215757677817
0,201394713358382
0,197734444890233
0,201061370010638
0,198193564081551
0,19709629765969
0,199545969929755
0,197216772501385
0,193783595418774
0,195424861018166
0,195283866935891
0,198829772009252
0,192706395747111
0,194758825558013
0,194510909757351
0,195126899279026
0,192703653534408
0,192273322285235
0,190371396699299
0,188069148033432
0,188216514039018
0,191765336036228
0,18723231714709
0,184536468721483
0,183745871031692
0,187362889664092
0,183534395759614
0,183577256343506
0,188053614520494
0,186099249869285
0,182572071724809
0,182587440347228
0,183055772182019
0,183991685162662
0,181452997178771
0,183133415039494
0,180577112705447
0,179088224459821
0,178167420562184
0,180536065497211
0,176152469437339
0,1774146197823
0,176197972759192
0,177645465849478
0,177293520194574
0,176679724809216
0,175962106180509
0,176678886935777
0,172953853709726
0,172886844952072
0,171354101543466
0,174606237179677
0,172123256934837
0,169986683236549
0,169674447671397
0,172698721236286
0,171342506694552
0,166580704103433
0,166889355408037
0,169685075621937
0,166327707900785
0,166034628236997
0,165084866046829
0,168829561509679
0,164355095466575
0,166116373709712
0,164992269868539
0,161771571828347
0,162207722808335
0,168799874715978
0,157467924218238
0,155342309577063
0,158823630498531
0,162394836843487
0,157104222617201
0,157484405316425
0,157568697971701
0,15698786199269
0,153465563958827
0,153898268111208
0,149411694173663
0,152032573345241
0,150100424553322
0,153598234129545
0,148989830933304
0,149312563528356
0,150786491607488
0,152440397639831
0,146515631001649
0,147324711681235
0,145912348667979
0,143656648812653
0,142019141607085
0,143748807101879
0,141120203863345
0,140246853433118
0,139042003352474
0,144520939916772
0,138827734458828
0,140854867680313
0,138420651257882
0,137782061368129
0,138239479965886
0,140480422458937
0,13912920187593
0,138838744854087
0,13640679228984
0,141291565172754
0,135410904783453
0,13852240963885
0,140670883741421
0,137879367072812
0,137381423772054
0,139501204411971
0,130482313348895
0,13157023274152
0,134228174250334
0,135496119604457
0,130138012903872
0,134759193668645
0,131301236184942
0,132780644666791
0,128274119856477
0,131571268352735
0,129840336413207
0,126247751974253
0,12721439808728
0,131520672761217
0,129145634937229
0,130640859553203
0,127488439692109
0,129559335187086
0,125727236737706
0,127962495764136
0,126925753070064
0,12685499389813
0,123688619203276
0,125297464395243
0,124845128013991
0,12529048750695
0,123095745867213
0,123569631884061
0,119883879722067
0,119442891473969
0,118434256097458
0,121366404733402
0,118713028658855
0,119991984260328
0,119632427574133
0,121156005330837
0,117327974244171
0,120340403469812
0,118370464445054
0,115049509779494
0,117099249618603
0,120397478790226
0,116517598859218
0,119631620688656
0,117203739276421
0,117747659740629
0,115031260558105
0,116465859408876
0,115906172269213
0,116744361046176
0,112094138178744
0,114144250421348
0,113026073616105
0,114516756374467
0,112991834188555
0,116436610984757
0,116559596748341
0,113781922202083
0,11332937518455
0,115755061110769
0,113652736582695
0,114669751324967
0,113556843351591
0,112737744635366
0,108779579717653
0,116198553160548
0,111759461427533
0,113083948409304
0,115033712708008
0,112434290106779
0,110948435076372
0,111279016596114
0,109680694742607
0,112180586725119
0,107041779013062
0,113362367760675
0,110948504905905
0,108008981527982
0,108174454896719
0,110704298660264
0,109892928601632
0,107858114585115
0,10663577838782
0,109839300564467
0,109774516388984
0,106832613262039
0,105469509822071
0,10475199539237
0,10361333253754
0,106251624021387
0,10393015698712
0,104662909872093
0,104733269412625
0,10334905999934
0,100412329586019
0,105025036446835
0,103461211232301
0,102470478369773
0,100497790207975
0,100658666899248
0,102434439284693
0,102243394795127
0,0985432070002595
0,100095181439362
0,101432021500306
0,103677614314124
0,100880200173206
0,100616235359051
0,100281666034801
0,101627079688099
0,0968876474945177
0,100000145504356
0,100370755308647
0,10004005739726
0,0992600473209373
0,0989629773076466
0,096876054479409
0,0985956285989947
0,0982029265294749
0,100563238934213
0,0969960310774463
0,0964107643229185
0,097492713202442
0,0978325035242116
0,0976765568530157
0,0975764174015429
0,0980389572246891
0,0987984689239856
0,0923893991471019
0,0958897598557918
0,0963981893493312
0,0990396031593862
0,0954630263095997
0,0952442412558099
0,0934660025619535
0,0937466055315748
0,0948065141617598
0,0941506829714684
0,0919641990908297
0,0914587808785668
0,0931367207626752
0,0918488989896208
0,0895826988267251
0,0932508352872449
0,0924697681284793
0,0927500668335088
0,0881490768449819
0,0895132059023446
0,0899995928410472
0,0904724317314144
0,0884098257408482
0,0893282307029517
0,0885448148653089
0,0882986398194001
0,0873530100680732
0,0871196048272038
0,0874579749974908
0,0839199392053808
0,0818884730664333
0,0872043157344105
0,084280092720159
0,0841536963454046
0,0831814831819937
0,0817076521703338
0,0833185569870477
0,0850735282078704
0,0822066253755669
0,0824827829203998
0,0830968530783328
0,0841749366069508
0,0809035344114893
0,0830976341596892
0,0796042528607962
0,0812194671466504
0,0782684429700679
0,0805033006900536
0,08084010190842
0,0813106854230176
0,0793794079286068
0,0805776368377665
0,079879595104358
0,0791704626553909
0,0792322229285797
0,0783066448164847
0,0766727905890894
0,0785128990265863
0,0795032563531627
0,0796572052712984
0,0775522051029202
0,0777806648006018
0,0769747130350705
0,0815091015826712
0,0791678826112592
0,0766388961004568
0,075682534240968
0,0792065452947185
0,0756724258862244
0,0746446510569218
0,075132525198741
0,0783919728760062
0,0746235095560102
0,0745828780154974
0,0720625721818386
0,0758496029594321
0,0726549409121158
0,0742634159569206
0,071754587257837
0,0757507534915329
0,0712864238334112
0,0720437397399201
0,0682400727163788
0,0720673518362043
0,0698684454893335
0,071447441994185
0,0698936642965071
0,0720753498129101
0,0703077145757625
0,069359616870045
0,0678664249747391
0,0689091803286623
0,0697729269623111
0,0696091293726835
0,0656276104019275
0,0675589885655277
0,0693460416047112
0,0686970765055015
0,0661356273639747
0,0682461901386088
0,0661719470742142
0,0683015921939844
0,067499961650587
0,0685090626786139
0,0667989769905999
0,0691145393041881
0,0691176623201916
0,0650242669650629
0,0642028321755034
0,0656604247079024
0,0626667322767723
0,0670980092548997
0,0649039111532556
0,0671958057092983
0,0658008050832759
0,0673504482791291
0,0694890047592314
0,0700549996122299
0,0716802766423066
0,0702039873438944
0,0672094692442555
0,0719608267591347
0,0704308246927598
0,0707543128426876
0,0719310412798684
0,0699124697014426
0,071115679244832
0,0718849143210013
0,0703363082473561
0,0669868403508586
0,0625912085495015
0,0641854706968188
0,0579050373488901
0,0686408184257134
0,0638730320508072
0,0578958196170318
0,0534831585684385
0,0644563710264875
0,0591666041297756
0,0550393386780233
0,0541377395866614
0,0596248528422
0,051787634494309
0,0639646423775899
0,0603952408555429
0,0547060249788431
0,0578846189558573
0,0612233767283626
0,0649785516072618
0,0612596944489857
0,0613675835906033
0,0645258521869539
0,0651219494979971
0,0622435158666517
0,0641458435136862
0,0596314540143211
0,0587342729607025
0,0558866883455146
0,0640385147074433
0,0494256184516691
0,0588978936834132
0,0503369875950084
0,059853929729072
0,05441729889991
0,0649754599816036
0,0507058923236385
0,0702480920258325
0,0444880012370877
0,0643427254168478
0,0394774319555237
0,0731074508238801
0,0462184808687369
0,0822754126942903
0,0406640123457736
0,0810362258136102
0,0333597904170304
0,0868197780097192
0,0359281292238806
0,093784730844956
0,0280682831443137
0,094988316735799
0,034173047944014
0,0960351163922663
0,0347696209539182
0,0910412896996168
0,0420739227255656
0,0841514448349249
0,0483298333153749
0,0714511949029043
0,0619564148539791
0,0613003663263747
0,0750566701543003
0,0556468578965315
0,0723943617481419
0,0505520201223379
0,0760365202887651
0,0525772498790386
0,0717266998912319
0,055603777285717
0,0632027081226462
0,0613395714560508
0,0579755658341926
0,0619652661414553
0,0588643648095824
0,0596978547557343
0,0600486921910173
0,0580353756512455
0,0587843305737188
0,0565023607178439
0,0605037460907337
0,0565918935531346
0,0610622341445278
0,0543372902587696
0,0563687350367192
0,0537129173919317
0,0550884784121163
0,055357325432061
0,058685570248432
0,0558384562968994
0,0566119945380114
0,0548288910141139
0,0579896249146794
0,0538523199278893
0,0539964576895419
0,0541628187926324
0,0559965995552444
0,0543767935211821
0,0558405537732604
0,0536354958873242
0,0566160553906856
0,0539929400272684
0,0553836514627292
0,0538731823263675
0,0568137631786867
0,0559709423202071
0,0580513609687875
0,0551189665673619
0,0571781348115455
0,053438706091248
0,0584705033299534
0,0562688094222967
0,0549676610185079
0,054812791460578
0,0587064133953261
0,0545082468758294
0,0560209497571762
0,0542032298399409
0,0578649432406141
0,0551613550616209
0,0565194467849933
0,0532008099910462
0,053234550098347
0,0538657370247377
0,0559539855413505
0,0551574588455393
0,0580914796416795
0,0548150073214276
0,0552937278971414
0,0545132562143669
0,0565597326405899
0,0534163146086268
0,0557183387154357
0,0541791340340049
0,0547019007305992
0,0555955417180829
0,0558843620845442
0,0515133474676422
0,05514232580886
0,0533298087706745
0,0537383177256506
0,0514125464798648
0,0563223054842329
0,052742117504915
0,0534381403273079
0,0532435125780203
0,0542293351813387
0,0525618733547232
0,0549492298147918
0,0525142365672893
0,0554038847778749
0,0538506974929761
0,0532250981481623
0,053606248586299
0,0563639577414636
0,0535604640522287
0,0545954145997297
0,0533195480094809
0,0552694239878016
0,0536165274761685
0,0569328499747526
0,0539100817630699
0,0528581862927162
0,0526992802868335
0,0563333647433384
0,0561406621620784
0,0557982491262647
0,0536130672975607
0,0550359497736108
0,0546573071593362
0,0559390593366668
0,0533925021253567
0,0564331901967321
0,0546447799038018
0,0547462473868234
0,0563147488923816
0,0570468400604588
0,0557375245070833
0,0578131114539671
0,0538260325028011
0,0568729974567238
0,0561775333537934
0,0549587682924355
0,0533479886312168
0,0557693543244201
0,0556388705766004
0,0563380860788911
0,0545210296905822
0,0571444350504682
0,0558342053608582
0,056337745805825
0,0554915301205823
0,0581167835302082
0,0555935283582678
0,0584127360331589
0,0548727182269044
0,0538531342117233
0,0540692883363535
0,0554306523422023
0,0556098574232033
0,0560303435116619
0,0537587498932328
0,0537369301907963
0,0568295840984474
0,0548608297896868
0,0523841706176105
0,0553609972923112
0,0541888745902053
0,0554933168778832
0,0537114333327209
0,0540633142395213
0,0566112096416296
0,0560495448622204
0,0533138311454365
0,0547155681212265
0,0540336510070751
0,0568143531866617
0,0544452337287631
0,0550799408963478
0,0555088704521276
0,0576472230273084
0,0563571058585496
0,0576667143463387
0,0576227121028152
0,0558081957639708
0,0557765234781793
0,0575753657897253
0,055735780737621
0,0584261107928205
0,0582993481677956
0,056013515012032
0,0563237122077867
0,0600948078361749
0,0554820133372284
0,056953259922817
0,0559725904546718
0,056043657198313
0,0549615058144133
0,0593082879541153
0,0575858934751106
0,0554683401921466
0,0564177571743471
0,0588346199972556
0,0569096584579076
0,0549530597931052
0,0539717613018504
0,0570387679455504
0,0553630973657037
0,0565724517590519
0,0560066465432502
0,0553597565373999
0,0544056661880413
0,0571090471924686
0,0566576641622737
0,0559916392951411
0,0550188458196829
0,0575918291499302
0,0540620398160425
0,0544827846803633
0,0539349496221254
0,0537879084038467
0,0521546085820518
0,055845021706723
0,0520510000401442
0,0533746303718251
0,0538805959024241
0,0524457067259052
0,0527759362666169
0,054807304826625
0,0521434656977168
0,0548517666825882
0,0532956134839444
0,0528961971674202
0,0532765177290483
0,0561493431612826
0,0544016528396661
0,0540081190192487
0,0531734756317975
0,0531508980903129
0,0526588973586978
0,0529892132409732
0,0510842528816438
0,0524183455596076
0,0499245672723233
0,0545406769098561
0,0515106975256041
0,0563340652015741
0,0499072656326642
0,0517535405900364
0,0506331375358168
0,054665110297272
0,0517371099773507
0,0536207291969304
0,0535545047396533
0,0552193823172565
0,053564321253279
0,0532662066582784
0,0526895146711494
0,0527540085406763
0,0519540710281868
0,0533588561262786
0,0541731547610052
0,0529158795012443
0,0526240291348673
0,053158345015128
0,0519800642758468
0,0514306141344057
0,0509590579601615
0,0527932233418094
0,0492443654600933
0,051434935271948
0,051272357928666
0,0517954649113888
0,0502630646309811
0,0514786524924054
0,0496575550567006
0,0520181114631035
0,052266860304822
0,050911571299741
0,051490086253714
0,0503975002102895
0,0522207132681481
0,0540217963761731
0,0513846050909405
0,0514043767144479
0,0508141038864878
0,0505085095604445
0,0494933232624279
0,0559051741639794
0,0545091738448734
0,0522741665385459
0,0529891781002558
0,0523249466718553
0,052059267164709
0,0506052819985349
0,049964309393949
0,0513803075701081
0,0522376159934267
0,0502627972592719
0,0480002573655271
0,047839711829781
0,0509107706814966
0,0502012797505226
0,0486443248205704
0,050463873656672
0,0506481746819701
0,0501040059004631
0,048405283570166
0,0528226506492147
0,0518964657462174
0,049360194820109
0,0523261851171875
0,0500849659967667
0,0513230075157476
0,054249730890404
0,0498641036713526
0,050499554190892
0,0492273463657844
0,0509747081473424
0,0507676637629729
0,0500094292915959
0,0493577235351006
0,0510462010670544
0,0502728601183688
0,0509639614063793
0,0460872239169033
0,0496524831172069
0,0463688299503528
0,0504644699038424
0,0492194671687563
0,0478702810341885
0,0480159841007899
0,0496066625543236
0,0467608550742855
0,047729833555257
0,0459693160283204
0,0464680624029184
0,0466033047579714
0,0526856193739666
0,0489278605168895
0,0603962115227493
0,0480236207051654
0,047826182891188
0,0465829686968431
0,0468730261041779
0,0459031074016627
0,0479700483847571
0,0469233520014579
0,0478334352704733
0,0456590839813091
0,04693874012122
0,0437344392796444
0,0456505143681228
0,0438165906420153
0,0450830645607567
0,0458509035042145
0,0451247356901132
0,0438184609303698
0,0444065361899199
0,0446116412869696
0,0440826965237422
0,043643547899939
0,0457802787623252
0,0434803736569575
0,0454414992867891
0,0440297852523001
0,0586893171065177
0,0644170410940437
0,0477425774977688
0,0455215590639262
0,0507802344118662
0,0502988076952355
0,043413565195384
0,0476631158199783
0,0457936166689802
0,0455231652126947
0,0449546104283883
0,0431018906736773
0,0442036088544167
0,0438463128838412
0,0433342721634669
0,0437665523305644
0,0433177917277354
0,0436911165665509
0,0441131658470162
0,0442000817942061
0,0439113967532046
0,0437743298699847
0,0436771503155037
0,0435772727902124
0,042264733990563
0,0429178423720895
0,0447864893904788
0,0588138890907831
0,0541256681579993
0,0482649148222952
0,0424996106053914
0,0419209234142945
0,0424816635794959
0,0434677258086065
0,043411514445493
0,0442123385420825
0,041855998052151
0,0404457233344413
0,0449428684543184
0,0437824197496841
0,0436773180340381
0,0423494697137558
0,0408138706411222
0,0435685858521373
0,0414884774409247
0,0411400869732268
0,0434351611255952
0,0420897064281654
0,0418817135434959
0,0452918682339515
0,0481148683626617
0,0467755041845432
0,041075539456257
0,0568949492342748
0,0736065452916646
0,0444077572608204
0,0485975228051857
0,0430397310344196
0,0434251762514186
0,0389346789018298
0,0429112455515324
0,0406266952450499
0,0414400888545809
0,0404882886498555
0,0449447409605005
0,0420453310042285
0,0445558510446281
0,0421895102093868
0,0421795335694287
0,0413779312198175
0,0442390525285128
0,0387651985905337
0,0435206127082842
0,040347797989121
0,0509232238637868
0,064613315095489
0,0532052262268568
0,0455170691787606
0,0433095065414673
0,042476535186381
0,0816370865866157
0,0533721513507333
0,0422845316775552
0,0453114101637942
0,0436120079665575
0,0418650271531847
0,0415562933883041
0,0413993303521851
0,0493477990182767
0,0544512821944758
0,0462452964999504
0,0503109654445324
0,0419145075700279
0,0425020421129888
0,0415225889801682
0,0418069048500172
0,0404542683334954
0,0432766321884757
0,0415989230567466
0,0404693936880299
0,0420876810395246
0,0373665684475967
0,0401185956355708
0,0413682907601377
0,0526261278636218
0,0548082582079742
0,0399919466482262
0,0427917454331296
0,0425446510363147
0,0408046129474579
0,0596352933047425
0,0693369967056749
0,0418080067424154
0,0450230774725374
0,0407439924553929
0,0449908210441551
0,0413468856959908
0,0410812374668335
0,0409926490673434
0,0408871751111155
0,0401621480008833
0,0438410447627156
0,042243291367317
0,0408894119146522
0,0407155474106598
0,0397840970202821
0,0407633757672594
0,0430377016095952
0,0427823228622596
0,0413345027586058
0,0464276684053136
0,0508302432890767
0,0759996606599029
0,0819283316574086
0,0656648261010486
0,0641168089363386
0,0501481685644651
0,0460010324913242
0,041505808630306
0,0428474492662016
0,0433243868115472
0,0490858252315674
0,044237768694277
0,044215600166398
0,0451281680320984
0,0451770131690377
0,0393425726193476
0,0412000117737795
0,0409564988354367
0,0422883206975229
0,0398303835815837
0,0442870282883074
0,0406600633998623
0,041134186978627
0,0430787152839316
0,0597127774216146
0,0557257886103664
0,0479812094893549
0,0547114054129541
0,0884372390721282
0,0754522638751308
0,0548737921778906
0,0558812763330506
0,0417924496243976
0,0445337817445315
0,0425645465179958
0,0493634960386302
0,055201822518369
0,043950793621313
0,0424056136589535
0,0442600628460804
0,0494680708043874
0,0474618581360975
0,0431046489770143
0,0732100201789639
0,0989725686514467
0,0630111207185673
0,0483592312726772
0,0451845194233481
0,0656619954431482
0,0899571105276256
0,051496410453617
0,0512909191293492
0,0509072355399414
0,0436205025359993
0,0444826461385094
0,0411154417660191
0,0488840072403567
0,0575104526044691
0,0480794680833816
0,0439993897811232
0,0453911025657412
0,0441736882249297
0,0525958987011986
0,0559017717751403
0,0647625685775257
0,0634770585151504
0,0496969175380064
0,0555621400258222
0,0553895149940935
0,0467806084268434
0,0499339616782876
0,0457077008276361
0,0509242887916565
0,0676309655272732
0,0693925974284655
0,0634008024133911
0,0778771991752674
0,0630111059155296
0,0484126299686872
0,0574089736668294
0,0720648494735466
0,0607433713018902
0,0534729132455713
0,0776123421519312
0,0959650024068543
0,0831360983168722
0,0770718473128124
0,0564040769327884
0,0521870133482426
0,051813722211085
0,0461789368209819
0,0546991370852057
0,0750808420408841
0,0592611554022475
0,0488197215767201
0,0557530096235987
0,0665279527392186
0,0722178462285408
0,0593813229953629
0,0577278590893537
0,0500994038535344
0,0575408932430785
0,0751508725686337
0,06224997299666
0,0667281668730738
0,104954135993358
0,100991101761522
0,0925273069243665
0,0597199917806097
0,0701187499445783
0,0988437768451277
0,0677226274850568
0,055801909476283
0,0566673162618093
0,0559841441465818
0,0526480718702402
0,0723160713051237
0,10602807006616
0,0679780608135759
0,0560828300707587
0,0608668848336026
0,0687596601977217
0,0960305512325214
0,0760542417173668
0,0550518031680726
0,062088313837488
0,0577512131161371
0,076596285299898
0,12211893499071
0,098032981616241
0,09648430124028
0,116391232086145
0,0962680249841295
0,0883292368983941
0,0793352572522667
0,0748551425479462
0,0967137758744918
0,100245440679875
0,0693451590421756
0,0678906649050522
0,106174123220051
0,0968035998192036
0,0780166908792722
0,0746142628699053
0,070807869430362
0,0814040453169755
0,150999400312299
0,171911068830766
0,119440276901824
0,0816601888883757
0,0950288571470216
0,113882352476372
0,0855540481538246
0,072803216931449
0,0753843085768366
0,0744317935460898
0,0716457789152584
0,0820970837544446
0,0941396400295206
0,0797037500043331
0,0813933743803174
0,0763986118830778
0,089454808741612
0,138493348863815
0,185219992359043
0,128126328125528
0,125581211711818
0,126974950971089
0,124549657964736
0,0999863514257943
0,0898068817858633
0,0883288527507228
0,100132858985055
0,097945556965843
0,0906705616590325
0,104603871377423
0,128525719569382
0,117828717928762
0,14137964158632
0,128129790810189
0,112793378980435
0,110552933739139
0,176438841843868
0,256986217945996
0,167940762673392
0,13173174572789
0,147518367579704
0,180936617758543
0,204361194337599
0,153131417078081
0,134445029195106
0,131516408194551
0,130269298772136
0,150786500204996
0,161378528744672
0,164567941592793
0,179028235373831
0,159742003733603
0,169598505118385
0,207233648491326
0,308987977750523
0,272636574229469
0,20039445293889
0,194189381536683
0,224940029003715
0,213490744403345
0,193307755740747
0,196725478264661
0,196282513194179
0,246259303331227
0,263976242621235
0,236287073871048
0,21345750059514
0,252364151951297
0,242043854829582
0,261332459002859
0,291939198434221
0,29328753558807
0,255827570571683
0,246951135093905
0,254421401087653
0,253404847301034
0,277090511582645
0,299952829148694
0,301122387684181
0,285049594347235
0,280069414214918
0,284337317826999
0,287615503666405
0,297200239919862
0,297397105376751
0,31969457757196
0,363167785227199
0,435896518555391
0,484925203962731
0,367497124757802
0,326324749917565
0,308301756826784
0,336102443240186
0,360184386803836
0,378738767987498
0,385566327575546
0,350878381207889
0,323700615064049
0,31666461673156
0,321406083792869
0,314114753788214
0,324305806176794
0,308360323266577
0,327800649623423
0,342812732032063
0,3463960114104
0,403371109369871
0,396842900856734
0,337840401819046
0,31362893949064
0,32056457409377
0,308657962248057
0,320580664576221
0,313211237234042
0,343341550227248
0,325496450157579
0,323161401975482
0,297795699912991
0,319085850112558
0,337874406191525
0,330110149994645
0,300060450628237
0,284603370728501
0,280753912222955
0,279450263877872
0,273622282624055
0,321073882228195
0,318558381136175
0,292227790229375
0,261617608445682
0,265317011600719
0,253434305618867
0,257757626874865
0,252454484135049
0,271637773687138
0,251469136341299
0,255073401747402
0,250774573745722
0,254341059412699
0,243207134509341
0,256018616201133
0,250986234836997
0,254790418988781
0,2484967738916
0,249579826716161
0,242623079687618
0,249195364356375
0,24362619838799
0,243991352365391
0,244490593000331
0,258560425453894
0,247278597603773
0,247611791354515
0,247051644427913
0,246426497430799
0,246207176955522
0,249013493942947
0,243238744532461
0,24432318599765
0,241309898700137
0,24626916486785
0,241741865286114
0,24241045170354
0,244048280260448
0,244047612902731
0,243407842709509
0,237610114513333
0,249226030458456
0,246736256698072
0,28070477776922
0,31540906076415
0,275471303456195
0,254716657049571
0,232737869694958
0,249281094985509
0,228771913157407
0,257641889106938
0,302568484574256
0,281844723327313
0,241942679045722
0,234331613379889
0,233623122658478
0,267783542613511
0,240723315367558
0,249125330171096
0,225153003143406
0,256648748857295
0,294775294966176
0,363542269927592
0,413566926929142
0,336528253269749
0,270791918301607
0,239816337801209
0,298223205838935
0,268887895799159
0,255431553289845
0,219865450089036
0,243807921332709
0,285260466809709
0,250444978975982
0,237200931642357
0,225850736041023
0,238262988780791
0,281774555910201
0,285750318782396
0,269238071570714
0,301851638961281
0,287013385902712
0,301311645800943
0,329138405725542
0,365137590322537
0,259417640029608
0,228379336470708
0,225635897964078
0,222293001407831
0,274891671146176
0,274705760612503
0,245518150762373
0,238594700581116
0,205485872982025
0,215179232902972
0,222216114596057
0,263900406404593
0,21087402977191
0,266392464251918
0,236535646625113
0,231973994156707
0,222919907780282
0,264435388853231
0,296508206209029
0,294768263456246
0,213737849331542
0,203855353162234
0,279557267098429
0,250065209546788
0,239511085174504
0,214028822248913
0,18212200229513
0,222538757087463
0,205254476431015
0,200252647253866
0,221870887515
0,232482141427306
0,276247551451991
0,294776695720644
0,32747692319478
0,256440131425763
0,187381458269033
0,16856439269513
0,163549341435516
0,187794273762202
0,159692623705198
0,175443921755731
0,208886014395067
0,166388470222007
0,206254326377646
0,20194705014028
0,181022071721402
0,165405458491277
0,160211500804209
0,159551890919638
0,183857358910447
0,233378472914401
0,248317500503294
0,195553038971044
0,210962983384984
0,191649276585249
0,194654002839302
0,168121790999491
0,180491007616908
0,172657311260415
0,19074845928489
0,194500177383853
0,190579050450262
0,184975842742469
0,192258883617985
0,190919875835244
0,2724443698357
0,211775676109796
0,241098375678201
0,245199175302633
0,294597855453281
0,289037208611106
0,243976855263788
0,23536925767538
0,225962044354917
0,235633037714879
0,237031646852956
0,238033496370697
0,294472748396137
0,265008407771028
0,26552962478892
0,24964994156619
0,262278119422826
0,251981723937458
0,287533581858059
0,309712152671692
0,334027469094512
0,3805665885755
0,319414473517782
0,332178988134349
0,275940883789057
0,288274361495675
0,286110484739155
0,286161558183208
0,283756303433655
0,272535625020187
0,307378160971546
0,317708222159045
0,292058911119549
0,288002694906691
0,286201037817929
0,287759843181329
0,281812207765574
0,289593993911941
0,290961733224706
0,295814162945507
0,296957998829554
0,289217736174507
0,344771149635921
0,38211702506693
0,335378560222373
0,314365442510905
0,315249919104862
0,328342609429457
0,309601107489761
0,332858956701139
0,34810937490583
0,337530555867382
0,328978875793312
0,321155355873557
0,329583050355711
0,319014674116355
0,371727925266399
0,351964245503875
0,346929168688214
0,336236347688988
0,334212996992076
0,43259927699382
0,376825105560626
0,401622240920315
0,360739544558664
0,371572254943283
0,343283968284883
0,356643135218062
0,342489540860424
0,362145794749091
0,351981983398198
0,359752486753104
0,353234808166956
0,356355404942033
0,358075097877547
0,344105154752017
0,372564267562804
0,387747569142415
0,364460933360596
0,35648843583861
0,352500786552971
0,353662132388096
0,359293528812966
0,403449151515103
0,381614297147065
0,3821432820164
0,357607701530368
0,391698832220047
0,400900252284859
0,370469755384198
0,354649718702647
0,350254036683176
0,353166749353305
0,362179986970122
0,340895018203029
0,390675418388669
0,380365880793061
0,384066947094604
0,352134594455656
0,36511696467062
0,352443566285755
0,364818731908556
0,35279954502416
0,373493953795236
0,361821143706271
0,378061152152085
0,37164993014891
0,3713823604589
0,368016205867841
0,392315526595013
0,403748770801045
0,387768675594291
0,368198370895434
0,373095385625529
0,355839848387225
0,376520964624033
0,366155916711015
0,370737580627543
0,344090028565461
0,362570196515058
0,33041294561916
0,379390058733171
0,376925611737827
0,369296419717512
0,366581020012117
0,343572833362167
0,33491439060987
0,33480407086526
0,332338529968201
0,324468816286989
0,331764163188728
0,332744706872804
0,326629866704245
0,32236753548263
0,320483808105283
0,320007943228587
0,315168589262566
0,322034594961014
0,312843592974579
0,314001401339283
0,30782815646026
0,316587348171926
0,30763680381307
0,316879347512495
0,309239412398976
0,319276647225262
0,341474979932739
0,344702031757641
0,346601745175855
0,319337191791383
0,335415233541306
0,313299608530955
0,314412064620772
0,303341751473847
0,309343491680449
0,306614060091934
0,306594623950001
0,307681812275113
0,30964239642084
0,308851611374479
0,305766087983168
0,308472726498118
0,30691996189118
0,306509316275885
0,310408710945544
0,30629209375083
0,306617778209117
0,311130340354334
0,310773905741011
0,326582577233381
0,31027826869281
0,324790961395705
0,307691801438719
0,314439731294199
0,309400874143541
0,318498967830919
0,322100296203716
0,311634615768946
0,3084477438541
0,312038877331852
0,309975691881478
0,312733521520614
0,305917984323534
0,306627127062641
0,30313773647179
0,306763796750748
0,299253682676229
0,303328048398478
0,298696298326872
0,298016214855583
0,290087005650247
0,292299353692532
0,285320535742283
0,29089716893452
0,280861566742283
0,285557433804357
0,279147691835665
0,280404943540851
0,272622218914912
0,277371333610848
0,273040965573731
0,272808323187916
0,268119649412244
0,272146760896227
0,265173702762774
0,263944937654816
0,26043346256662
0,266050013817248
0,26103111682574
0,263759501975067
0,257670038714675
0,263046030018962
0,256025519018863
0,264625245803653
0,258313841685289
0,262750718089465
0,261468037218624
0,265791298277961
0,259409468835478
0,266038401317283
0,269098238282984
0,270117418886721
0,270549268651363
0,271812777513637
0,270305915595492
0,27135982267782
0,269729106789966
0,274475973243416
0,272875478445286
0,275240525823143
0,274476434822134
0,276773020084569
0,280967279502022
0,277387041170772
0,277498822325174
0,280403173131588
0,278282226485963
0,276360167758236
0,275770989086261
0,279654793281137
0,273165391939936
0,275997589331942
0,274825500031301
0,275912145434161
0,276071801952817
0,273550895863894
0,272616988375817
0,272255108029715
0,269860404174437
0,273934637172379
0,272940066858125
0,27145589397267
0,269216125452277
0,270416723008231
0,266343574600441
0,267953594600487
0,264416897943527
0,265507843384331
0,262555559302908
0,264797997938435
0,262744963524294
0,263673406013863
0,260870614317487
0,26187289813233
0,259051082125202
0,259548194191875
0,256253512328061
0,258195348502153
0,256387891162859
0,257344523261948
0,254811667781326
0,254838941497882
0,251154456606272
0,253839677104701
0,249708360330863
0,2487952360236
0,246545123626306
0,246529675280638
0,244602273362166
0,241313526453924
0,239946596224969
0,241034506886116
0,236356993684171
0,236365649256555
0,234992147974495
0,231804447313511
0,230369863361725
0,229517520909114
0,226707145567547
0,225115653544464
0,223588139823775
0,222893158588977
0,222605417713674
0,219265775654664
0,219505984455903
0,219455805573147
0,2179918816061
0,216608914792085
0,215824911644539
0,216476951319782
0,214819939483256
0,213907156295629
0,209527522289926
0,210834210825941
0,206487263752411
0,205948248828851
0,202749023192861
0,201227532070788
0,198442038462438
0,195086964723253
0,1936609797367
0,195875629794782
0,192812247140089
0,196091886437535
0,196183376892782
0,200166562244233
0,202690464996913
0,206278639101086
0,210827829301135
0,218628104184535
0,223342315813885
0,233372740520186
0,241615376070936
0,250496898450532
0,258428395785901
0,271740867768792
0,278544323489473
0,290645610703492
0,299974306331976
0,309380315597146
0,316330855541559
0,331283321835658
0,337308318485054
0,348540542201673
0,359616971350502
0,369367020805152
0,372272133239341
0,385502364675575
0,391977889198663
0,401232320603024
0,406653714248656
0,413852826821123
0,419390325419533
0,427181078930476
0,429202497563068
0,433542699361704
0,442131529042791
0,445833013814737
0,450310624818508
0,452650574268243
0,452925837345382
0,454640283362439
0,454064940188401
0,457437398263337
0,458050270493639
0,457116989881691
0,460294879861226
0,456194199293629
0,457298090911634
0,458290144525607
0,456185123232503
0,460849790429805
0,4605043802255
0,464246819133774
0,468267624545944
0,470828694625483
0,470787335159892
0,477151206031813
0,478448476925845
0,488842339113783
0,488102981107256
0,497412622906503
0,501479104021874
0,50692668251793
0,503391318326452
0,513128247688968
0,521608171185581
0,531016406790843
0,535073187917477
0,54822503939862
0,551064407642372
0,559221220620573
0,56391851375932
0,572433207521606
0,577340324752355
0,588109874873442
0,588463443152701
0,588036536388481
0,590203709414355
0,592464516029477
0,591587793992724
0,590867819234834
0,592758125015119
0,593458974830888
0,589847468804042
0,584604313454567
0,582636441750616
0,581011509247255
0,582725206869165
0,589736289426692
0,591387866137141
0,600274041173865
0,60390398153546
0,619571166532205
0,627916726002064
0,635636020038363
0,642046968133977
0,647745844848525
0,650486724553953
0,668397850984297
0,675943897848125
0,69082227922751
0,703296890847435
0,709892680251565
0,727954143124595
0,740620470096601
0,742062688026356
0,753304423058364
0,764719472738651
0,783197914337064
0,793719362487554
0,811274252982183
0,823848153953813
0,843953124368775
0,861820398939795
0,85870801648147
0,884747620308628
0,893019712480382
0,914474763264369
0,920803382628732
0,932656499975944
0,935331372369416
0,963031391146412
0,970501910213776
0,973460288091898
0,985986053673695
1,00395996806488
1,00286290689486
1,00962494057857
1,00664358976813
1,0096456630912
1,01867740265964
1,00814091865297
1,00350770028584
1,01067637006151
0,996477417492357
1,00175018195145
0,998596286157794
0,984553876700448
0,995183939770438
0,990361282173313
1,00023468844344
0,990814187187721
0,99137524674948
1,00900195750019
1,00242938412612
1,02626376336534
1,04953999045928
1,03290555254944
1,04577592137452
1,05470720921109
1,07826442110465
1,06381963585635
1,08400974831446
1,09641540867109
1,09865632992647
1,11678563052353
1,10688293061028
1,12970245561616
1,12586028073034
1,12321421140067
1,14346116519664
1,13863636828573
1,13333567231694
1,14776493213704
1,15874667831953
1,13896170750017
1,15895454757605
1,13883941304668
1,15037152078017
1,14330870117543
1,15081745390605
1,15640696115605
1,12872954994268
1,14017281324585
1,13452836036926
1,14037816714671
1,14623094044042
1,1292706317872
1,12895300545395
1,1251477094614
1,12210015461776
1,09361238443393
1,09778823149154
1,09057938946651
1,0645113845353
1,04038071244472
1,01078661965458
0,994863459809564
0,987409529233791
0,945582832307129
0,908187811084919
0,860633559631736
0,836219770065758
0,810303121176468
0,774114087775947
0,751465192246639
0,720344995609192
0,703528192985396
0,68952666450168
0,682480400444516
0,667262515783164
0,666392384715577
0,654091485521443
0,641704959436807
0,643097014086913
0,639837286201353
0,630255334193071
0,624014986473408
0,61788263427036
0,615051915100838
0,599728507334767
0,597587166472211
0,585299238064689
0,578366122305219
0,565922012585568
0,553430245205807
0,545041897327831
0,526740762131628
0,512592562830593
0,499584046526241
0,482998149666641
0,464442863555424
0,450699274206904
0,430072426655748
0,414818346390548
0,394563229875331
0,373404551158611
0,356564562176838
0,344171124068561
0,329398183727081
0,313049395373216
0,299468225109179
0,285297045195001
0,269851149184848
0,264494303769638
0,253759558660636
0,247863044990504
0,234269231443196
0,225304834082176
0,221958753533684
0,216786146526418
0,20811321026072
0,207997867369192
0,206451637283448
0,203090584717563
0,200864618390341
0,198852647424241
0,200429216937957
0,196624238363165
0,19472508253595
0,194384668825587
0,19983504041851
0,200471981762543
0,203192180825821
0,20030449860829
0,202957706340377
0,202838811438371
0,202561557656044
0,204281262721492
0,204516928572095
0,204891731933729
0,201940166293091
0,200805916301429
0,197510932797026
0,19623467798558
0,198159899143067
0,195382088996345
0,196116708423759
0,19042087154155
0,185799506290445
0,189114639484414
0,184767785401893
0,185376328088682
0,18713445329201
0,184876968643491
0,186632064987859
0,189233965943049
0,190001926527021
0,196707584408797
0,195624869253281
0,199667523150542
0,198296432300001
0,197973132023126
0,201492134828221
0,201762783242096
0,208260569059323
0,20204078506945
0,206327304685823
0,204912561953919
0,211574044805099
0,210443744202268
0,21651428593129
0,214491795281767
0,213795966300869
0,213010935003233
0,214021872151407
0,213099974808133
0,21418136994561
0,216749414293525
0,21631076228812
0,220530992907274
0,218653049678957
0,224406945842519
0,226495975367437
0,230340036841226
0,238607647099352
0,239306690948405
0,248136766322214
0,258319931771547
0,26176534867697
0,268361825925829
0,278108699963023
0,278302121073337
0,292723652908924
0,294493617741341
0,290771271035972
0,290730489759966
0,29226828152739
0,289826536282421
0,289439409583399
0,274821814993464
0,270704112735312
0,27121041506984
0,266788617134687
0,261138969391305
0,25807715367085
0,250383386489463
0,255271680852758
0,249667544664683
0,249759588278474
0,248389631384445
0,25822720334903
0,254665554139373
0,247582564063267
0,247270510000831
0,251978417709165
0,256194761599172
0,250831508532793
0,244125786424638
0,245917889879038
0,242536450902968
0,242913603646233
0,232080865454726
0,232512167607312
0,232816904039647
0,224877825209596
0,229336781244611
0,225272247339286
0,224503542652822
0,228869626540998
0,218919593800871
0,212209814280554
0,21744723494418
0,223773158129461
0,213801788463675
0,210489447248787
0,212223035044413
0,208398035724169
0,209512249922809
0,211441757274857
0,204047187923825
0,203441414423902
0,198745002583871
0,210413786173791
0,20088936885434
0,194665375702125
0,192300568034818
0,195121973107124
0,192688128297755
0,189134546005849
0,198524634446113
0,188924280283565
0,185814731589703
0,191095836279826
0,187806897921935
0,184978894593794
0,176629146077245
0,187487632768925
0,187116274610536
0,185406802713319
0,182714964397157
0,17870555573357
0,176134897390368
0,177813976555555
0,177391189577122
0,176827657425542
0,178051188132396
0,174006739163783
0,179856219861711
0,174013598581837
0,180395837002152
0,184911788397095
0,174298204456484
0,188662669030084
0,185213533508129
0,194322876470124
0,18510401180738
0,191104522486013
0,194324231057626
0,191280992936487
0,184358082349682
0,197553725799925
0,1903973000758
0,189830214613233
0,188909033671892
0,195948072527319
0,194499215434483
0,202620126401251
0,198703717330556
0,211993818260247
0,206985581616367
0,209247475158261
0,217323330364672
0,22443629486765
0,225625747957366
0,236666883931605
0,236596933917928
0,255953208863055
0,253298695011225
0,261198698108288
0,25660594836598
0,273642696527861
0,280099985069179
0,285801907605316
0,286139511762889
0,315092833707899
0,31117738832532
0,322287380022661
0,315860386451292
0,348047363562701
0,355769497062655
0,354703346387207
0,335989282496521
0,353146637972577
0,335737067518583
0,357422941520369
0,334957925303443
0,338385255776606
0,33728511287912
0,344006487672687
0,325438881587222
0,327251653574895
0,326470664127662
0,32909057361855
0,319531929130079
0,344945576993909
0,323342695371909
0,310912224202652
0,34995117669893
0,34085056129305
0,314525650192057
0,314692073396567
0,323269727575997
0,323955148015931
0,288081382820817
0,296821933033797
0,304122451943528
0,292963479446344
0,28595719133534
0,305803325904785
0,304864034843623
0,28951856966267
0,290864541498319
0,280863568508184
0,298250388341583
0,281253317059409
0,280041362959483
0,266921823670603
0,270213803157633
0,288727529785363
0,278240416067413
0,304316154604602
0,276132937950588
0,277578664219096
0,277348642018495
0,30021067943808
0,293498404312504
0,316452310512515
0,296115126926816
0,299071734178959
0,296301032877258
0,299017201805559
0,280645831434799
0,290077718843837
0,2905587519645
0,288540922132857
0,283750277516019
0,290098198408854
0,288578267352377
0,290662155277129
0,294923804629259
0,333497208708725
0,303609712298398
0,297372093238183
0,305779617951034
0,324666133911279
0,286646856769922
0,313714461939401
0,307087285241394
0,328701821551284
0,302756783332153
0,348422224781644
0,336516761523438
0,346963010237604
0,363442273487949
0,348327636473794
0,361068009782755
0,379757974855617
0,357214348066324
0,369112531329463
0,372128814034462
0,397877065877018
0,397282796671809
0,4090101730533
0,385306733506598
0,405730206076719
0,450574304436519
0,454221774503627
0,435529962084124
0,481146739173781
0,433162825325847
0,452848159985795
0,409152961604917
0,379511577297689
0,351303363967155
0,480742662353393
0,430612331725876
0,445179784664608
0,411265505874135
0,38276029805645
0,377418416987735
0,359844626791212
0,36677684841028
0,450361849947888
0,397948447856134
0,419029917027264
0,408285852363505
0,381781120396375
0,381073291762707
0,411938201442603
0,366119901884879
0,380338378697827
0,402344499173117
0,391944259919037
0,388835156836766
0,420506488216941
0,407205099077869
0,460097926049763
0,359303226806455
0,456637066894241
0,420610245521345
0,508904295906227
0,448418342218443
0,340235024787394
0,352371294426275
0,399122925623342
0,447184997027806
0,0847164995513629
0,396369146247685
0,462677749799925
0,326084895041144
0,38505255760572
0,506348920325873
0,543076677981101
0,384226770440406
0,540009227060864
0,454835497024216
0,596800589845959
0,424570380516994
0,369400956393923
0,499950944077788
0,562213429517874
0,426787797520875
0,561732345750731
0,399824783776462
0,486534693050266
0,438331291633763
