3596
4000,36533379555
650,420452594757
1
2
2
0,0619550893986881
0,0700029053984514
0,0579332274791074
0,077926138989207
0,064552047189853
0,0713621384479354
0,0675016900318599
0,0678454416084938
0,0645981911299767
0,0689745692238834
0,0701392094355858
0,0646301319096381
0,0665318422804617
0,0671498148975195
0,0641969027031538
0,0726984741606307
0,0552564537084316
0,0611329358710596
0,0643818621875525
0,0671710901897247
0,0679268506513291
0,0603995736500851
0,0663842913001406
0,0686428508169064
0,0693806132696025
0,0755540640897358
0,0614425248973677
0,0685613315090046
0,0678229369390794
0,070038555968449
0,060990352708903
0,0637025390418806
0,0622171060799309
0,0706671433421871
0,06177683377897
0,0658977256684913
0,0593573226338468
0,0718816573340621
0,0607728164117869
0,0726275891384223
0,0722671490300469
0,0613809015309608
0,070271371892986
0,0690253528075336
0,0675995519217784
0,0646096877891769
0,0667153548141573
0,064315504841478
0,0689029309867565
0,0668123533594706
0,0675516339297188
0,0641572559602811
0,0741970376122608
0,082391003941049
0,0677016592750682
0,0815146061794216
0,0746804485674839
0,0595657859627111
0,0649771718154643
0,0600870827944559
0,0729604452609264
0,0812772439351088
0,0626366113292112
0,0651302746102898
0,0565463188261183
0,0686570271744472
0,0644613562274833
0,0687280897956012
0,0621400273450657
0,0713652526437625
0,0617400484105315
0,0739394621789491
0,0681247390047297
0,0583052473032716
0,0676154050457368
0,071999422359111
0,0562259046551158
0,0635046476513049
0,051833765132653
0,0713974070990084
0,0704355775636283
0,073835276508194
0,0654678719059513
0,0608971980146319
0,0604284787280643
0,0935454681725141
0,0595540829689561
0,0639743966603623
0,0768582248096485
0,0721432156339666
0,0600931415397671
0,0692571490467317
0,0542490598273493
0,0612309770259322
0,0542996300121073
0,0630995782866397
0,0516849307634816
0,0680044808897334
0,0522089112600023
0,0784568845297413
0,0535059571402117
0,0615277976912299
0,100392909686376
0,0548057548711796
0,105309757359278
0,0691066527693412
0,0527055323050964
0,100556775522188
0,073538381200676
0,0731442804383982
0,0534793686392594
0,0626459393226694
0,0590933784808024
0,0711450406313077
0,0434931197310879
0,0874946471080445
0,0828917094265561
0,0658414419649053
0,0626572968628312
0,0706574216353998
0,0351689719704796
0,0819206156248582
0,102235687830333
0,0692796930030985
0,0678251369953371
0,0621346483964843
0,0542006645725083
0,103121685765266
0,078755889107134
0,0658489184422823
0,0583157204932182
0,0598548926028337
0,0496948528491924
0,051103431421783
0,0904518711849831
0,0732963972899155
0,0604216529682471
0,0564958427104231
0,0777093853069612
0,111116606136191
0,0729777914701463
0,0632837948073514
0,0480103610550585
0,0563042885312476
0,0860651667331296
0,0720745809839438
0,0483900160612033
0,0779755309935868
0,0679988894979568
0,0620837889361914
0,0571680041698207
0,0555985392993721
0,0751654063494765
0,0694623463387309
0,0179663039069526
0,0957290991939156
0,0955670794380455
0,0704876925231484
0,109279170259672
0,065622608775421
0,0763749446103094
0,0602006679534211
0,0653705055800759
0,0583200223293038
0,0666786568345319
0,0405199920047449
0,0616638628414979
0,0905746577552496
0,058275593683521
0,0624598999451048
0,0824538690204977
0,0780667825103612
0,0287706816635157
0,114751798923016
0,0703488555536618
0,0580556545116278
0,0866669712567575
0,0776404496330912
0,0441969292785334
0,0640417853568412
0,0843906149563211
0,0625297756054492
0,0610726224699534
0,0581215430614787
0,0576971549080652
0,0793689850686606
0,0673618313372606
0,071710776909338
0,0651290402998041
0,0456577252434743
0,0578298404120857
0,100920170939047
0,091346809678302
0,0721448437324608
0,0665892195112895
0,0300452240213382
0,0846581492285943
0,0969037646646079
0,0569132836410072
0,0578281458469045
0,0524014402440435
0,0631800219683407
0,0590613182924736
0,0641800945915574
0,0516474911177667
0,0393245775335327
0,0941529046648602
0,0873956339145538
0,0649967761307108
0,058797326699202
0,0613678488170745
0,0397468593133664
0,104797185585441
0,0936883039871153
0,0639531964284221
0,0604542480218138
0,0435355912151678
0,0771616669701355
0,0764108011477154
0,0623113756553423
0,0672488236245615
0,0565739923882834
0,0601200797750765
0,0566994603188651
0,0631756174490343
0,06668109425351
0,0653693885600346
0,0624190184758531
0,0571061469598389
0,0675203339689236
0,0716194869326576
0,0748259750884814
0,0679208752177697
0,0701644961148084
0,0503691559864946
0,075264015033184
0,0822858205919736
0,068020716636499
0,0668029715405815
0,0646499315109159
0,0648596838251407
0,0641651068795809
0,0631870158277213
0,067118473672565
0,0583974955507306
0,056314252206125
0,105662666900459
0,0720550316153395
0,0753168566546918
0,0449582394281841
0,0906144926159639
0,0737461172771423
0,0680834781381953
0,0661385338874077
0,0738508903650865
0,0523391844415408
0,0580724488192135
0,0892845252255278
0,079398181245618
0,0547610238097847
0,0816883816925468
0,0621880459819332
0,075515555362932
0,0627400644893538
0,036996499432172
0,142137561607807
0,0699366099459712
0,0570805856167118
0,124537513019724
0,0825314556771174
0,0799432209596398
0,0574314673793093
0,0266685371072376
0,161939341872079
0,121171220646856
0,0833751299847108
0,0631375894010216
0,0884801336355142
0,0644403945305449
0,075855980248186
0,0665676349442862
0,0795443498917496
0,0744355753834561
0,123534292424955
0,120672858030679
0,0441925545886707
0,105805494289421
0,0975923035764634
0,0782927495129987
0,0684159358579036
0,0640273190230085
0,0598030710094375
0,0851871884595306
0,0790243824835459
0,0927757617589895
0,0751700044188273
0,0695897547485954
0,105865959038479
0,0850662027139692
0,0644855463990032
0,0766243854880705
0,0860908509240156
0,0715624992433342
0,0708885672284684
0,0662293985232078
0,0845149400509518
0,0631077529967376
0,067326290350688
0,127258509669716
0,0791906820576989
0,0778055875079291
0,0999560738942963
0,0804886814015579
0,0783119359550854
0,0669708395150226
0,081907821870983
0,0767254625672898
0,0742935282669449
0,0606497621932587
0,103900663520291
0,0781743188647218
0,0873794304017213
0,0818405753346319
0,0737149311278078
0,0753163763249041
0,0822877392719237
0,0743819771350283
0,0867550010119772
0,0823393032276047
0,0741049247600521
0,0991367302136729
0,107995816312582
0,0574966698520251
0,125924156526429
0,114780909378232
0,100263156116355
0,0846667576432024
0,0902396431227548
0,0895825195871061
0,092666118119269
0,0910183597858774
0,0869407289192144
0,086383504631806
0,11458535417063
0,0978213168827411
0,0913332423638849
0,0883382990623491
0,158928206495545
0,154177938081926
0,116450806153236
0,111185026844424
0,067119617238208
0,140924530336465
0,112054263918018
0,121276118260556
0,129886013923927
0,106180518800404
0,120005079723252
0,100917959396705
0,122816996713294
0,105270691679819
0,123405663588955
0,11394956785231
0,124244693767683
0,113305188339571
0,132208859744069
0,107991571297064
0,13060881100821
0,165519893227263
0,139923974508395
0,13160808289978
0,145372681619653
0,113626051854275
0,171058083395543
0,147809645017155
0,189227767779203
0,155034924039813
0,166319550736159
0,18659614708234
0,159171452736666
0,1525310734995
0,143966680579312
0,15688880282904
0,155758737691626
0,157252393573345
0,161696462224526
0,160952134693423
0,169640310244203
0,159546361634894
0,167304872558012
0,166739925541667
0,172183777461841
0,207324772959062
0,180719222953275
0,188933287198878
0,171177705464247
0,19277489644449
0,23281414547611
0,247540243690308
0,200365518945146
0,208928688868684
0,192324289248009
0,198696947987845
0,214131686384565
0,196499326104648
0,207200972452325
0,197330944404321
0,249369280544983
0,222765428164178
0,244957969794432
0,231264402532808
0,217814449160968
0,253897387068669
0,229839922015613
0,239258587228807
0,263433490565285
0,243176282352986
0,22135961035016
0,256223897894169
0,273201216804398
0,248405053371741
0,282637205077382
0,256834770715167
0,270114399872554
0,249646637875345
0,279671731432594
0,266954129974097
0,296749266980852
0,272561341773217
0,289005246623714
0,276447794680463
0,306788780936936
0,270044925052264
0,311834342153045
0,290904371845092
0,29802080742634
0,30987020515522
0,30764916304574
0,30369421459151
0,298832366752082
0,329141176077806
0,347687674265567
0,331029241556607
0,348609464683557
0,320405582545009
0,338920490876781
0,319863396485083
0,342800069410005
0,323357183031756
0,345678914327822
0,345881197891252
0,362154197858761
0,348776637717286
0,374180061939842
0,353755312870086
0,385416259998263
0,35927628493656
0,376092911789984
0,362855724020356
0,374719916146601
0,380613215081537
0,383585446836873
0,404053211809627
0,421469131439008
0,437078152006676
0,437500795697592
0,411732761968475
0,431683406657431
0,387840869116058
0,4334250782551
0,405875879621625
0,438044511376175
0,409525476325638
0,444984925821975
0,429358986089928
0,455374606813004
0,426915020436706
0,456317839138515
0,43390588177884
0,462204358219353
0,443972096785227
0,476217135906957
0,45035964220739
0,472523298528316
0,452675864589311
0,505518136797571
0,477824490138319
0,507388622845647
0,474268133664762
0,510962156561311
0,499767465382116
0,51083312089049
0,487787093551547
0,519808988313739
0,503239894417325
0,541182271415709
0,491659860591609
0,54789909315056
0,509426317442878
0,546124962956844
0,515922816828259
0,549419776752157
0,54959601936064
0,559744458488872
0,53117397517202
0,579888422659342
0,541938189922396
0,571033881114069
0,572795759614929
0,585657782441512
0,545929221651824
0,580420476245712
0,574919784722271
0,581825964064897
0,583482492270234
0,636914301758585
0,562610087749807
0,600872425215358
0,578622934768478
0,608118945816389
0,581912301447231
0,644035355706632
0,610206874671128
0,646015764546605
0,603502905145356
0,660272686182991
0,631121504127012
0,666461593571791
0,623782088878474
0,647812281976078
0,650729765350217
0,67381624826852
0,637913031214585
0,664142336138398
0,626491482814123
0,708915696297587
0,674632688259855
0,66245521961112
0,673051214027242
0,691106133069091
0,68546063794953
0,719575739516503
0,676492926842271
0,720546555523505
0,714638406572873
0,734814734525678
0,686964324836792
0,725732612850809
0,695834036716111
0,746810515776947
0,698497804114668
0,773587432262009
0,717699617745397
0,747885236796334
0,74423583006257
0,798831315140161
0,715994888656965
0,777051065028214
0,729907689027803
0,797127059562804
0,722504108294599
0,795936798400613
0,742846208174928
0,78994455048561
0,735567993269852
0,833151826086381
0,717357338159826
0,806217653931655
0,755800911111099
0,828355413699427
0,792484882549912
0,823568794942942
0,810958243460482
0,860803604726178
0,764044183281775
0,866206721775637
0,780866378542588
0,895934190367104
0,820530396872822
0,860710023316958
0,860933027019012
0,892310196992932
0,789256405801022
0,901083711594189
0,883860977601314
0,917266167254336
0,835814850736588
0,909794218408435
0,820484093385123
0,955839272378802
0,8770239889788
0,913605924516641
0,910180931739299
0,95333457992024
0,844673880898018
0,935574130775081
0,886948647659258
0,933431554289126
0,911007929671885
0,979555404246249
0,855135374381104
0,919009382181597
0,85315622306504
0,939704212878377
0,923873880430839
0,934684455864633
0,884094709887982
0,969236137625127
0,936025556040629
0,972990848930933
0,964063759119072
0,979893777458049
0,907098647242423
1,0761530507909
0,970865982399152
0,998460304389971
1,00154846885628
1,05902548348216
0,909545460729109
1,05222484227193
0,95522359926449
0,990008163707084
0,947484449750042
1,01410892518349
0,993426025941894
0,985105912368892
0,969793580672328
0,996723584675813
0,959809312357599
1,03543271400862
0,963757342229972
1,03853969370991
0,984851049791686
1,00684743977319
1,00088420899165
1,09086320990371
0,990048455531572
1,09957082435012
0,95701054693732
1,0992853795413
1,01453493684435
1,03031291234524
1,00147407367547
1,06803997783428
0,997266458848433
1,17831462679159
1,06724946870912
1,10396332926765
1,03643159801858
1,13371264420697
1,0226216854678
1,07164715010402
1,04383854792762
1,1308765640517
1,07350210056524
1,12783918621788
1,04375800259474
1,16485103618033
1,01974776374487
1,15820178566136
1,04816942043153
1,1539663725602
1,08075077994155
1,18969619148333
1,02611703738668
1,17865186471326
1,07559179871454
1,13105632163115
1,01469512773441
1,14163952126501
1,05518190377532
1,17903300565012
1,07583447283238
1,17372535120136
1,00871494152696
1,09097940627723
1,08339809948052
1,15781208660853
1,06117519284836
1,1605376255839
1,04568285519034
1,2468581062388
1,07771045856693
1,22930995081621
1,09790266111059
1,25593725402119
1,11982922915363
1,1856168771869
1,06885554987117
1,20926456213014
1,09925413544118
1,17985054165189
1,09272920547241
1,19105654421896
1,05131559380799
1,14541185709854
1,08818364508117
1,15766264353419
1,11710315072003
1,22453332836403
1,11838027421595
1,19491432178987
1,04729838103535
1,17729764036086
1,0859607963474
1,15716882441327
1,08591672056607
1,24507635415749
1,14808231997781
1,15750508278635
1,11626949435455
1,28240542121844
1,1081100263401
1,22897792536511
1,12341697962298
1,17052006642703
1,13310772808793
1,1991579673665
1,11464944179549
1,15978831071033
1,11093460890349
1,20263356348292
1,16032625150398
1,16524990503684
1,10874355374962
1,15371587175548
1,16983919283029
1,21428034746296
1,1348093386108
1,20712860023322
1,08211922242205
1,2299582664692
1,13314445317114
1,28125861834844
1,0986641427775
1,25868410551778
1,07423393655039
1,21232926640833
1,20020770590225
1,17321386900081
1,11626372537044
1,21696879398453
1,08695224438773
1,22204584788487
1,08883346295748
1,24693971466338
1,09299521091829
1,2818652468659
1,11655381336274
1,23245394016546
1,1655015501482
1,19086059629624
1,10507704194497
1,15652755661366
1,10782512628065
1,19180361243475
1,13761877005004
1,25287856870484
1,08167514063956
1,26821627370245
1,17147306550371
1,23245949976541
1,16246794447843
1,21066252657956
1,19378661344427
1,26925499687874
1,18278352870094
1,24907747180989
1,14278271704418
1,14897439402086
1,15559418231106
1,23187307669059
1,13134728885646
1,15165615993939
1,10451036074789
1,23726799207854
1,05920236093631
1,27303638496457
1,12961101662617
1,19270257517273
1,13116972764677
1,21400763960069
1,13398582886038
1,21164285075443
1,14637621874826
1,20805460115873
1,15585067179324
1,15464716720561
1,12201113973101
1,18063194191104
1,11861346764182
1,19295745216429
1,09106151890595
1,1989556030602
1,14856834745764
1,1847464043383
1,14955676002107
1,18799558723739
1,0853232411606
1,16112368505816
1,12227775712747
1,19280713318714
1,09299070079502
1,18095129033002
1,08623763029355
1,20457783640452
1,06405485758713
1,14079073831435
1,1388291110418
1,22189223021736
1,11031105293142
1,12671850904833
1,1021347906107
1,14694186906156
1,13143713797616
1,13278863841608
1,10606628518602
1,10205963526502
1,10541983862153
1,12180925378447
1,10450038604936
1,1050808893004
1,11604104690947
1,13033277303868
1,10830151276049
1,09950828442881
1,06411324392124
1,17137531277343
1,09424741519383
1,1241154129766
1,05271557608585
1,11115090697771
1,07400740963745
1,10883642888543
1,06849312426888
1,10724430242497
1,06028466145025
1,09179675632768
1,09321780342244
1,08483489572164
1,02282935428
1,10478774819831
1,02186704529087
1,06565282254068
1,08588384116082
1,10052500444538
1,01669043229554
1,13365429398081
1,04124149830456
1,057502251782
1,04591031169057
1,04882300003217
1,01705120475751
1,03874487529671
1,00486803402503
1,01684446271592
1,02486520979419
1,05414951847059
0,996287544244578
1,04165088194575
0,974305104415174
1,03037321264238
0,991319675210695
1,03807059725358
0,999543674026619
1,01922107868716
0,998317507002475
1,01496963779016
0,961592508081638
1,00722669728859
1,01021053552826
1,01363423000866
0,944614224054287
1,00824418303579
0,958317667261989
0,980845579679611
0,926674766711858
0,96427351669358
0,912172925580108
0,958525501608323
0,936839246151795
0,967634036816694
0,91290703847604
0,955066505712841
0,90057860369709
0,96027954280072
0,962597779262485
0,917062406666049
0,90388728072087
0,934498379594683
0,922015512967038
0,910717187889335
0,893086634378379
0,911409918464545
0,858549767241302
0,900739154126928
0,869293428718415
0,908363393041338
0,855126585694954
0,925112748154788
0,868474092048574
0,890687725455027
0,850258791157111
0,872689839888403
0,848831365661545
0,873714952475329
0,844818319521817
0,902604320032962
0,851465589196206
0,855500118500756
0,825229766998191
0,860227733492395
0,841755083480058
0,82825946626323
0,820192466028157
0,837446541826831
0,809849702118627
0,824155978295466
0,796053342251825
0,82769506246008
0,782671807447702
0,822656413971314
0,789187415620872
0,80307496953702
0,776237307371871
0,79990918014858
0,76108215654813
0,793281616389147
0,758147801326543
0,790307542706197
0,764017538749703
0,778943656233147
0,730460458947913
0,7604415405453
0,748057432975323
0,768713375883575
0,745129648821222
0,74568768652289
0,750006579904388
0,75247806447545
0,728007977783491
0,743998337811346
0,724301914013168
0,725959532074722
0,722656464275479
0,733523427482933
0,690347655147461
0,698452655552347
0,698639778100394
0,726368467005219
0,684108494716549
0,702621171582768
0,693747365602272
0,70232999137881
0,673983061538149
0,695097924311434
0,669731755775081
0,69478938482588
0,670988989062595
0,674261022178208
0,66976289613481
0,686649002346994
0,662687933323799
0,660638542518048
0,654908769853603
0,667144641727025
0,637821418492209
0,668962475559614
0,650676042083828
0,653802033380084
0,633149807379379
0,65716090421666
0,63440766009748
0,639653950654499
0,617745479440963
0,630456910443
0,616988257377086
0,631731895282753
0,612163471960296
0,618349349516526
0,615702591158468
0,616199668851106
0,609590141808972
0,612247855057548
0,591784681569987
0,607982056537944
0,585080593337187
0,605147514745171
0,58960717911153
0,609010668093587
0,583925160178945
0,587955509938243
0,574182025347289
0,587274352634847
0,556682506887283
0,576521065574779
0,566314440962468
0,57188562991735
0,561280565676073
0,562028560690677
0,545672055694545
0,569282012971429
0,541966207729205
0,556901254767095
0,538747717945682
0,555224721372211
0,547606316197778
0,542847188892333
0,530749020824608
0,533466427027161
0,52906515450595
0,537817608029839
0,526685340899026
0,537842571401042
0,51253264857659
0,526995108527665
0,504869456840245
0,527463787626979
0,502863224454645
0,507592374931605
0,49379259644851
0,519456595555766
0,499350290269875
0,503960283235594
0,495725141437561
0,498865771987086
0,486088299966199
0,500875285661198
0,489071125090335
0,49302769997936
0,471702074665749
0,483778085380718
0,475674027863533
0,484520407997552
0,472316338556351
0,477432294523252
0,46894944810939
0,474323805612679
0,464624417059094
0,466664728125002
0,455340984612715
0,455359035219374
0,449379065921479
0,453991021682636
0,449613713296102
0,458652960760772
0,442391704558724
0,443005289945006
0,447694727668498
0,448727301075918
0,441026434688914
0,439657619936049
0,430799738801557
0,437549790282751
0,420836903880714
0,437977562292904
0,420782571320513
0,428947476727656
0,43328492056679
0,427891435975614
0,420556899206104
0,423745633806464
0,424659629545679
0,415811810684143
0,413575074559485
0,426718935396685
0,400196491214395
0,420648506726389
0,404316982230541
0,418451108030374
0,402895884747942
0,407898760817045
0,406951257997978
0,408684107831719
0,394673060854163
0,415406261594314
0,399169702813878
0,404136340000872
0,397129871075221
0,402753458499382
0,393345261364998
0,410043898299628
0,397993678137223
0,404799944044311
0,390269561076985
0,401774074625912
0,397649140094157
0,403330531709947
0,39190076146118
0,402417029686549
0,397405157296304
0,407057002852068
0,391224174468237
0,406069211303851
0,393691607491402
0,406267484629464
0,396922687274749
0,412398576790356
0,401689346658065
0,415629053693762
0,404469704197388
0,413005314397992
0,406937045128124
0,418404330775492
0,398641725299196
0,416851228761699
0,41118324782385
0,423038094969551
0,410201309596094
0,415477169880925
0,414346564697037
0,411072909126412
0,416870069154025
0,416163365701374
0,41263456706794
0,42116170218223
0,416699121981871
0,42553078668062
0,417118261820115
0,435268417850617
0,418130664463531
0,432304914792771
0,418211972721668
0,434832876803034
0,425825241232063
0,441510364887684
0,433733157666026
0,439536386656153
0,441280187901415
0,441882905355406
0,432950456769732
0,457889360086124
0,444885260458712
0,458102329062975
0,443888070350272
0,46088531893358
0,450267205216528
0,460355481507909
0,453860051252073
0,46037964770511
0,451804339544485
0,462934976228939
0,462857793615148
0,46075902236923
0,467800080832393
0,474635250613768
0,455749364850899
0,474688236192542
0,463252880192978
0,476947526203087
0,47300330077599
0,473184935449284
0,466519030426132
0,47183808896633
0,45870400872317
0,470634350688703
0,464697112760107
0,479804113586608
0,458705394342574
0,474530315050035
0,458711457896768
0,466227001231216
0,447890745721748
0,463510658709624
0,458521498053589
0,464071188305065
0,458079948028709
0,471227252800574
0,453151445323429
0,460239131307143
0,45379464518433
0,469814694763011
0,452750131286457
0,460175231345194
0,451136296101381
0,474212789612479
0,450732018105037
0,462794081798249
0,44348216600934
0,463932516450438
0,453969934208288
0,464412856745098
0,455777652164797
0,466106071683529
0,451840023510991
0,46112749460472
0,449860058421824
0,468710634714008
0,451308845942505
0,460828669604048
0,449326170655371
0,462334521514991
0,461127394803486
0,470653683978169
0,45344919233336
0,461150757904269
0,454394261027869
0,466449669559474
0,456119823880968
0,474192067104402
0,45263908039505
0,454174386414624
0,455287177248103
0,453312196688725
0,441315996582572
0,450754680127265
0,446423894743826
0,452054275179964
0,452245616229462
0,450288314415157
0,432963352525478
0,443513679599867
0,431200933010138
0,440583533314175
0,433509510364415
0,438323740684733
0,422436694357618
0,427798121361528
0,420448381401735
0,427868659637745
0,418272827053252
0,420376936356803
0,415385838541005
0,414539183202699
0,403314994424586
0,412829497451858
0,397170407441477
0,407795360486437
0,390118779490752
0,404154609202909
0,390857530469859
0,398521134667869
0,383538909421254
0,3951121873839
0,382589867981067
0,382563274850578
0,383559608156256
0,3832645626327
0,373292495272158
0,377552699566284
0,370061808114913
0,377699438338933
0,367460316898626
0,372190774777431
0,360167234878541
0,368510748956257
0,358076299591718
0,363002764614001
0,349795460789859
0,363822355704345
0,355786219807032
0,355840175362027
0,345647321010608
0,353188527302019
0,341834713596393
0,354763607996882
0,347317388239223
0,353872928636417
0,339011289646563
0,343047632006337
0,333311602689254
0,338947235889668
0,33458176175707
0,339638483705947
0,331651273293428
0,338513928478592
0,325638815065236
0,3283300125356
0,322053409998633
0,328474535911231
0,321206541329626
0,328843820920645
0,3218160070436
0,329562417457708
0,319884392720001
0,324591840839367
0,321357815863922
0,324607819530492
0,309623970367042
0,317370038093219
0,312595622636381
0,316612580956926
0,307148307552328
0,31477793247352
0,306057301033284
0,313003883633603
0,302289121411344
0,311852144536722
0,303624758851689
0,30708189348278
0,302058790360097
0,30787504373128
0,293897682186941
0,307902979300316
0,301498978994241
0,29901387821805
0,29642243471223
0,302449046048801
0,293173589240828
0,295309739786427
0,289607008791351
0,299419425113095
0,288738733084015
0,295576143997472
0,288060259368768
0,297666105208033
0,288652531600334
0,291424781897356
0,286821247895981
0,290666496661412
0,284953603733561
0,293545942181104
0,28247584215608
0,286508058097885
0,282542900690293
0,282612506093139
0,275012908289641
0,288263565846424
0,277191267281643
0,284491212980546
0,279644795160537
0,283163567252264
0,274928105999517
0,279076300775764
0,277252212094135
0,283590438877002
0,276595784733711
0,278968051557948
0,270584552164202
0,279273868391321
0,269600423190493
0,275212502509222
0,273366620039404
0,275449946257226
0,273274535741421
0,277270759320422
0,269131906642948
0,271149020252119
0,26807787224333
0,271125935011018
0,269739204828178
0,264915982054175
0,262967392432991
0,266985999870606
0,266119071187703
0,270835799885846
0,260541647494233
0,265426229563877
0,258359295945993
0,265165675484322
0,263343367425638
0,269016268218622
0,258275124736687
0,264320992688984
0,258247815775183
0,263377392760579
0,259962091658403
0,267656135882592
0,25394881854908
0,261459490525145
0,259199087469984
0,258369566841411
0,255335636729659
0,260838542958606
0,253734748189911
0,258702979978369
0,256189378551413
0,259716521593217
0,256121930339824
0,258435607634111
0,254511208601711
0,255464703267995
0,251481264701406
0,257402125786642
0,253724906260357
0,252365621741202
0,247808709340293
0,255922513509412
0,250989521641019
0,253880437471885
0,251596844434411
0,257646417630473
0,244288111682894
0,252329157865619
0,2482983914328
0,249382138141789
0,241394495917936
0,25156062758389
0,242730106964104
0,247543519180505
0,246177944687019
0,246201340658593
0,242735665720637
0,248321514694005
0,239798506159054
0,247297630701874
0,240802627808317
0,244782313934206
0,235992069756631
0,245702459473514
0,238424568619629
0,243658399433546
0,231159961080532
0,240694816763957
0,236934589453376
0,237435584301216
0,230003197672667
0,237202637244254
0,23703582576325
0,235171752711337
0,231009600039549
0,23627052147143
0,227732584902828
0,230234591271
0,229350099520447
0,229935267560684
0,22685318311913
0,231556604123014
0,227654144375629
0,230140598575696
0,223007196193545
0,228714084958643
0,222783070233761
0,229314511762405
0,228535921329759
0,228180207722575
0,222374338275739
0,223096167571727
0,221704024711058
0,226683857917558
0,216917971467411
0,22264107799389
0,219278374462273
0,224651525322518
0,217946648277459
0,220097528011053
0,215628495509184
0,221218738409773
0,213652702376647
0,216860018859604
0,211679573533388
0,218199784889218
0,217104487395843
0,217147607593077
0,209610846858639
0,213239928426708
0,210130265407985
0,213778533238531
0,206308411235029
0,211810069667996
0,208475902854028
0,20854701715674
0,205019249800858
0,209729683458165
0,203099291089878
0,206710351185636
0,198410756158518
0,200272070425651
0,19938273337314
0,202175777836042
0,199540016943719
0,202183988046457
0,195199649932681
0,201897817567164
0,195755189325692
0,195944461822628
0,193413197133168
0,199414553584491
0,190234936995437
0,192143926630303
0,191822111712335
0,193240894766479
0,188120848361412
0,192369909610387
0,18841309262518
0,192709551549945
0,187381822899904
0,18772131482483
0,183512932841832
0,191720456997629
0,187503797287984
0,188726550653527
0,185698810539537
0,187813065067734
0,183828880143314
0,185549747569235
0,179429060210727
0,186304216354802
0,182734215110876
0,188897232022579
0,181096599353866
0,183076053403539
0,177712197345139
0,183377130316977
0,178046491374227
0,179108906917895
0,180837512396446
0,183793317140136
0,17456512662936
0,174368754726917
0,176927096951655
0,180192560694704
0,174893048399542
0,176614643196736
0,174488411436953
0,179299543989677
0,173874930653729
0,177258863924824
0,173337069250794
0,172486541410583
0,169114742909071
0,174091373632837
0,171070416144553
0,176125138452572
0,173677350151653
0,17614992783229
0,168886016524385
0,170901778989515
0,168064684284202
0,170947501460623
0,163530212342564
0,167600056900207
0,164997464560539
0,168524192179865
0,163570041328982
0,1666884927239
0,163540841572136
0,162981903778021
0,166713434882031
0,169257186834894
0,157886235888111
0,162959307166629
0,164710079606132
0,165197971600286
0,162424479484087
0,162256309921258
0,159776661196974
0,167608794784335
0,16190096776419
0,163879384010046
0,162306531538562
0,162947350653066
0,158552365893757
0,161419432145096
0,158079011588526
0,160695837588399
0,160380418142843
0,163104920048508
0,158938840554341
0,161156338705128
0,156041156451113
0,159455546188325
0,158504562558965
0,162026595085842
0,156125502870511
0,157879730310472
0,157697572830929
0,159341903553579
0,154023392772344
0,159184227445902
0,15569437557731
0,159023102365446
0,156422751357778
0,157705929659362
0,149533330196764
0,15809372689386
0,15465759691547
0,159168020380235
0,152328162806453
0,154520612742056
0,15331195328182
0,155857557810215
0,151786014958914
0,156678984360473
0,151852584780675
0,155248037743268
0,148716527264797
0,15414328088791
0,148224551698124
0,153201804233486
0,149731832725812
0,152211393945177
0,145121569940221
0,149980928143992
0,146674371830965
0,150103548348839
0,145766319034931
0,150241148040083
0,146597932031319
0,147833371021413
0,145744708284326
0,151047345366125
0,144096209979586
0,145661688512694
0,142804016946414
0,143275075665877
0,141343953923294
0,147923147894381
0,144197412322052
0,147336400732692
0,14198106408347
0,145049598396198
0,141383236816563
0,147756829675824
0,142224301257611
0,14389017548093
0,141863494700586
0,145300350118812
0,143779880337121
0,144350502948042
0,139573829412171
0,140837688751148
0,138111679178964
0,142505644247239
0,138671891764631
0,14023807422359
0,138321039965148
0,14340222714408
0,138193553671508
0,14037702952742
0,136227984485221
0,14012462873155
0,140043916448327
0,140702172172631
0,136573044679433
0,137515145416756
0,132193407610953
0,139373395854476
0,134988628280001
0,138070749665545
0,132698606467055
0,138422203075184
0,133974319621688
0,134798665932013
0,13430469350871
0,13660828118685
0,133580529947113
0,133645688824069
0,128787667180803
0,134518213167345
0,12946771209808
0,130638814328645
0,128417560763018
0,134084784025699
0,128304022411097
0,132032807479883
0,129888023829762
0,130875698233411
0,123596846666261
0,127998975617206
0,127226993972392
0,127690341402753
0,124175454671528
0,127603649531471
0,121691919402165
0,126222062685346
0,122461580065057
0,125891092240399
0,123445457047643
0,125185279476141
0,124000157043038
0,127867780626809
0,122313126052473
0,123055680232789
0,120498415876652
0,125813921627422
0,118033212815245
0,122464618502169
0,118955769056435
0,123051884596444
0,118514718644155
0,122360005289961
0,118531173124868
0,122021461611888
0,119142122149179
0,121960291620375
0,116695679994108
0,122636936438361
0,118026363974606
0,12091559929588
0,117923787731069
0,118954063059513
0,116159751286112
0,121622674671661
0,115861076999859
0,118046988018546
0,1137148047187
0,119352798834288
0,11351165101253
0,115951424725354
0,115046926645485
0,1177033234744
0,111198204288879
0,115470295297301
0,112395044447216
0,116517070793369
0,112682413291414
0,116447700578575
0,111900740634237
0,114099520430131
0,108951261037352
0,112445946181179
0,108891115114295
0,113157329181159
0,110222407230054
0,112351069579134
0,107401970061369
0,112601228993853
0,105532637260572
0,108301473492826
0,107707620947259
0,111089219684139
0,107481363431509
0,10956292871328
0,104100137132152
0,108750889219841
0,104635527244699
0,10878272883566
0,104573223542939
0,107222786739531
0,105643709556619
0,108957105030715
0,105642153813969
0,108036170531604
0,1046862705325
0,110816342459621
0,104928206295356
0,108176942757231
0,104494377844531
0,106018153367835
0,104739127049588
0,107624358353717
0,104344943800829
0,108424641543583
0,104362636489392
0,110618311835196
0,10519299374035
0,109817545961593
0,103337077907323
0,106507477432686
0,102684505726022
0,106579574728107
0,101802027188815
0,109090572435837
0,103655462166694
0,108202578042848
0,103691275849529
0,106334367179941
0,0961050638522585
0,0974473793949721
0,0936592272495612
0,10578989311371
0,102253460209101
0,105178166546384
0,0883220175370396
0,0985590133634441
0,0972323891183845
0,105888709492499
0,0924483570683798
0,104660866037442
0,0922818876826636
0,100681654650125
0,10158071652455
0,106512532831781
0,0903699929963527
0,10414512841405
0,0981178872342071
0,110385978089211
0,0948430477994556
0,108897858288927
0,0990528216185045
0,106039691523182
0,0892723271656831
0,105623665898314
0,0884245398505688
0,103506593082386
0,0922519727713396
0,105815417944826
0,0883337202368818
0,107933160716237
0,0903679176938189
0,107279599978345
0,0919059521105809
0,111562375473439
0,0863846777282462
0,106725437866935
0,0839378941243068
0,102343616987347
0,0821819507980868
0,108472676773636
0,0949825989604357
0,114447585012507
0,0842800266477483
0,10562080601846
0,087710950467091
0,107349666402204
0,0950895544173594
0,107858909795051
0,0885006393539433
0,10233694564354
0,101279132191797
0,100673425334969
0,0991729270915184
0,0924761884025981
0,1118153203506
0,0880265751138656
0,110997556242216
0,0870811158084172
0,113564948770998
0,086244404669566
0,11748116393482
0,0904017587663612
0,105405219781243
0,0935370807569005
0,105199969733829
0,0988710204399263
0,0989869117949697
0,100084922539963
0,0972938576897561
0,100501933334581
0,0970957969979154
0,0976657051998329
0,0990544469602288
0,097206945854558
0,0989599830265479
0,0941611738046928
0,0996344884153237
0,0973225331038252
0,0997663872433006
0,0958827837196331
0,0990970299955641
0,0981159461880405
0,0956900331680003
0,0946619360578178
0,0988964140066814
0,0983710079710069
0,0993745653373578
0,0972939825920135
0,0977521465073563
0,0984443023279733
0,0981411967656891
0,0966527261372146
0,0944720272127104
0,0958266270961811
0,0982635303421523
0,0990080976999611
0,0982364716894213
0,0968387333420694
0,0970349580229671
0,097925826080015
0,0977999602562603
0,0984385814447547
0,0991507432260818
0,0987757212109001
0,0972974726595223
0,0995864360639594
0,0995613761987156
0,0977752379332143
0,101115394219225
0,0997100693517867
0,0978425583027319
0,0978498816849373
0,0984248881956639
0,0986114047348613
0,0997730239991004
0,100369761900853
0,101766150783323
0,0993479549677375
0,0993275022513917
0,10040762178752
0,0975928678601502
0,100700593445553
0,101965307762961
0,0998410985366781
0,0999646912156421
0,099699913767473
0,0987306455010383
0,0998194770331144
0,0995353917909566
0,0994026677023124
0,0998560442740595
0,099350538220515
0,0983242048365882
0,100777428356291
0,10077440550887
0,101197894276874
0,0994142814670627
0,100607989862963
0,0987512907718369
0,100436097097184
0,0994433378845138
0,100527100215977
0,0997468457326992
0,100787178381895
0,101665974796001
0,101695777136667
0,0997248457584348
0,0997166246067264
0,101895508990387
0,102463876833994
0,100719302564844
0,10342317373525
0,101816694234423
0,101147648371644
0,100060069464753
0,10211441624051
0,101946430803961
0,103473550304866
0,101159238003007
0,101964989319523
0,102244288635508
0,103694773215413
0,103307742742681
0,106882756172155
0,102798336410164
0,100630585246257
0,104624995014395
0,105067354297491
0,103305205428642
0,105254768522991
0,102232473446054
0,103428248608444
0,103790339511758
0,105552755434672
0,104836991009632
0,105431463879881
0,105171002306624
0,10598352119074
0,103523642657032
0,105431349822997
0,104042894578495
0,105688790856965
0,106259408579898
0,106076583233967
0,103323567739636
0,106937562036844
0,105231153198124
0,106356433726344
0,10631064907478
0,106533121164704
0,1063431727144
0,106520317644249
0,10498210221041
0,10652941163799
0,10563749590104
0,107195843075486
0,106995223742263
0,10742321727292
0,105602675582374
0,10566605791386
0,104077524307823
0,107841416195795
0,106579535783943
0,107016545100555
0,106560113905264
0,109154922678438
0,107498959962994
0,106833317839254
0,106415378794799
0,109305955802057
0,109102867674046
0,108522409328207
0,106349378878691
0,108110992614048
0,107961860855583
0,109377831715361
0,108227261287867
0,110007336899275
0,110659177503842
0,110383717676499
0,108614560521274
0,109841990823772
0,109775151883825
0,11003628409562
0,108443168293061
0,112695991475606
0,111195017800285
0,111691285143858
0,110034631246478
0,111434757833663
0,110696710011744
0,11118395031437
0,110727349370134
0,113422302790279
0,111643581155076
0,110703074839937
0,112501090616393
0,111074908470933
0,108112331052872
0,111442564875041
0,110611431993217
0,112537449251131
0,107322063184776
0,109158198755995
0,111864873209241
0,112468964892274
0,110713682502291
0,109487479133471
0,107035644818778
0,108998125607201
0,10980928670517
0,111399985899741
0,108873578124488
0,110173794534126
0,109178713571379
0,107456354786035
0,106891090438456
0,108873155015354
0,107297687598342
0,10866461440526
0,107560932581022
0,108641228597161
0,108689031957458
0,108449297129595
0,106294165777141
0,108334987135916
0,1067495438563
0,107583283820688
0,10935045662737
0,106796172842594
0,105109091928784
0,105823633395946
0,105947297539443
0,108043881291574
0,106756095377799
0,105639485644751
0,105685640729014
0,108449791086512
0,104026252071422
0,107554327141589
0,107371350421489
0,106998390453505
0,10517188241556
0,10495351721429
0,106816152279175
0,106571275637211
0,103386579418071
0,106371212780227
0,105651471153901
0,105683716545282
0,107634670574681
0,108244966150778
0,105425823050708
0,10541671351492
0,104459437181654
0,1044093316351
0,104818091890144
0,104783559988799
0,102460841868771
0,104147065749882
0,103393234905419
0,105070118668449
0,103019799067581
0,104775340280069
0,102711586635828
0,104894619688884
0,103506263643716
0,103225087574065
0,10461436856128
0,104087165160285
0,10324440546924
0,103245701811907
0,10297665198066
0,10264243081998
0,102897069721061
0,103308098454223
0,10102081390483
0,10318661639439
0,102260705454843
0,101789773067943
0,101065729141762
0,102262390583084
0,0998002927339801
0,100334964009478
0,100451353298479
0,101201782387754
0,100278795434382
0,103145578162065
0,0998978164660525
0,102279016992863
0,101722738991418
0,101924851348563
0,0991630806154781
0,100259844337
0,0977961772885691
0,100199168004516
0,099670280714872
0,0982341337750965
0,097367941148361
0,101421935565465
0,0994014810815572
0,097975828453184
0,0973975453831228
0,0985249282955924
0,0970887831602008
0,0977739790426005
0,0981568266329834
0,099596760850994
0,0988214099289614
0,100540071965784
0,0989858697637017
0,0968062003758045
0,0971703847338769
0,0976865746848823
0,0953641797265003
0,0978628927578604
0,0944617053497521
0,0940559362071427
0,0939796542107851
0,097506448263369
0,0973453501532523
0,0964019501972299
0,0948296107437236
0,0953854883259857
0,0934064452578111
0,0922914411957459
0,0944395915292218
0,094388134672732
0,0925073299398887
0,0959436818837853
0,0920982131123414
0,0905646034449059
0,0912332989040787
0,092867700766502
0,0898245975743698
0,0907062427432511
0,0914817408616449
0,0929270589310699
0,0949244891518126
0,0921199889199356
0,0876047237331547
0,0903273633317887
0,0892748080544502
0,0901316795758013
0,0888593866033577
0,0897719296909732
0,0875025864708608
0,0879704273250153
0,0863986857671817
0,085253722179056
0,0871381264513853
0,087475022701056
0,0840940925656222
0,0870953873570523
0,0852494522723407
0,086540919059504
0,0851905472307809
0,0850144151471194
0,0833139695613285
0,0856726470579336
0,0852827062676989
0,085983569562622
0,0822278410061567
0,0841730275642767
0,0876310588368855
0,091650210212508
0,0862307034006884
0,0867936457630513
0,0867868422453277
0,0859965285415001
0,0840055985188559
0,0853091362705137
0,0839934130778811
0,0845227015283106
0,082724808930292
0,0828377653206877
0,082819024139547
0,0821755267626511
0,0819401746851718
0,0820370956197867
0,0810391514859136
0,0845951947460275
0,0812453580647399
0,0819958375049207
0,0814240902513776
0,0807434086351291
0,0811790955814026
0,0824617420464284
0,0790037811441972
0,0798742565368594
0,0792945808973717
0,0843623261283983
0,085543487485205
0,083180806379835
0,0785263664299737
0,0805715522875362
0,0810488286641405
0,0801188512862642
0,0784051042063905
0,0796872081125925
0,0772680146910745
0,0784437134024495
0,0801912780734392
0,0793157670264529
0,0778217696454725
0,078965683420673
0,0789174071258712
0,079702684178054
0,0770020683678712
0,0770336041460804
0,0775623488424046
0,0769955417454777
0,0737471071741799
0,0774937066508057
0,0793025341870576
0,0801682070068501
0,0753941589481859
0,0795842892947607
0,0879633478322658
0,0810559805259107
0,0765999278010727
0,0784752322012199
0,075416253796759
0,0764377210369374
0,0742452748068201
0,0751955095188236
0,0743785884801704
0,0752922003882843
0,0742688208987427
0,0760856526920423
0,0750340305145519
0,0759670852583511
0,0740879728151277
0,0746328534010157
0,0732223199437475
0,0733177807604753
0,0747612560949146
0,0753621859339359
0,0741153751890749
0,0857441250579085
0,0822460652409177
0,077210715643461
0,0724396911468068
0,0712302265527284
0,088446415405525
0,0856948578787111
0,0715423846504613
0,0782699824631772
0,0753900150928185
0,075543538606504
0,0746724452014165
0,0749409248991559
0,0748429292631988
0,0800799585854318
0,0765039087816825
0,0754746081521698
0,075077018194269
0,0722462769702436
0,071766351069648
0,0732421985731127
0,0706829044630946
0,0729212583276364
0,0729002021224926
0,0726074258733115
0,0726243273610124
0,072269368520992
0,0716744788997643
0,0711171817442487
0,0742834618063255
0,0780667877212182
0,0707465326905938
0,0727510046154528
0,0736295359782067
0,0711972722459017
0,0790583147863286
0,0865104467169195
0,0738646811873293
0,0729815297457892
0,0730154133288602
0,0725794301315209
0,0713253294797957
0,0700152155705345
0,0716709017833159
0,0701143355297671
0,0710494006804703
0,0729208719783502
0,0727367977354812
0,072819148095485
0,0726208426616317
0,0720635634457384
0,0702379474000164
0,0715235498061249
0,0707498635268697
0,0722533601128819
0,0745651009544568
0,0729802827382673
0,0838467360098982
0,0894993182482813
0,0800093214556885
0,0827045904944509
0,0759160261743219
0,0759582875095215
0,0723968241429534
0,0737054871157293
0,0731862011761185
0,0741498722750484
0,0739336980488694
0,0712778395932909
0,0737694605959749
0,0725020773952712
0,0715558695082742
0,0717542165343301
0,0720821854097859
0,070876841933684
0,0724470868967776
0,0726329816284714
0,0722087803765172
0,0706403329651028
0,0733009260182739
0,0756106216523073
0,0794939249642808
0,072687773588428
0,0695482841852654
0,0848812224902464
0,0940658438704536
0,0799336287841736
0,0781302266177661
0,0753202420472519
0,0723834858991497
0,0733734004449105
0,0752326556070573
0,0800573320982135
0,0725707695043646
0,0729816994070901
0,071957042450856
0,0762431113097516
0,0753471874731637
0,0695434437765757
0,080306317919902
0,101612875594303
0,0853564570507843
0,076862302687982
0,0713368901648676
0,0780699237010184
0,0969116944770828
0,0828167478558247
0,0747671139779368
0,0819849932188369
0,0741931968128227
0,0755093114159122
0,075229908986483
0,079513016978537
0,0810100513663567
0,0779117091846026
0,07609591758279
0,076447114911367
0,0760919657394379
0,080205324537889
0,0794132751044743
0,0819464319470635
0,0834261316175845
0,0797510606116742
0,0782380741425014
0,0826545340467635
0,0784978528237909
0,0810692169585818
0,0807746417292245
0,079630021087523
0,0851285815627975
0,0871692795639349
0,085444770775632
0,0913486062911675
0,0904040566771794
0,0811482457215107
0,0798490719290371
0,0900553872846721
0,0873863526557393
0,077085342504091
0,083125334105377
0,1017406195035
0,0967689066993282
0,0884789145787537
0,0886336896221784
0,0796265373998869
0,086421685072583
0,0792847570064908
0,0841084751142008
0,087517108019014
0,09409107173709
0,0810122386503968
0,0837765746194327
0,0837694210301401
0,0931593592678916
0,088262311532723
0,0851045602382873
0,0849877487162951
0,0836339195090399
0,0944828121143088
0,0908175006135181
0,0856149263204426
0,105443708379081
0,109412516338137
0,10294258742223
0,091771963569564
0,0918321830068429
0,104789474743581
0,0983320704995033
0,0896827351732323
0,0901559532226873
0,0915484846879863
0,0864781493527157
0,0917424386808006
0,119461440610427
0,103465171288787
0,0901923809339011
0,0956723241484055
0,0986742590453944
0,110529528471962
0,108759584557109
0,0935514376182426
0,0988886117858294
0,0937530394906903
0,0953108128420919
0,114237163798696
0,121634584228771
0,110550165245325
0,117904625233036
0,118711113096787
0,112273622297502
0,114477654125144
0,104129043894844
0,114193417641693
0,117568088680558
0,113310405969143
0,101698612970335
0,118398058054246
0,122792069378402
0,118884724973063
0,112594604154444
0,113885006629929
0,100206843350334
0,139501525434522
0,170001517039046
0,145730067698962
0,120825754679493
0,124280678069061
0,136358366578604
0,13232037037741
0,121448853378195
0,12644122267378
0,126093617762581
0,126860945037606
0,129747229373869
0,139124374386119
0,134251789561786
0,134078639031886
0,130948355507697
0,132723446532437
0,147898360302492
0,187516978907563
0,162336224672501
0,162386408222829
0,151713838295481
0,168305228008678
0,154464970520125
0,154498871966059
0,151740312032761
0,156936005458728
0,16225212141999
0,160303517400506
0,161767067383405
0,175438512603855
0,173733237889754
0,185569955031726
0,187800490269415
0,185302721997018
0,166117200502551
0,194799059895186
0,255950631810307
0,238557448221829
0,199316559196874
0,205306600689164
0,209687408698245
0,258264194371413
0,23690593043744
0,224990685589256
0,229839833986748
0,233964413651554
0,244696775938081
0,258588875865894
0,260719056369773
0,275057857861335
0,270117936329615
0,264317964291921
0,271905563004855
0,348586108439357
0,349017241923037
0,320749976339855
0,311632011431129
0,327247605148554
0,335900771711097
0,329731913317381
0,335767209505197
0,33022627552028
0,347907824547934
0,387164960807646
0,383302678321911
0,363074214347926
0,390652270832898
0,390239465374745
0,402153790573578
0,407456588698833
0,448682947788306
0,425246451089632
0,426313350214483
0,434412115563156
0,441014048176911
0,449394001743396
0,466762632367483
0,485663376895502
0,474335503273315
0,475711504005556
0,482923864145056
0,492414932515405
0,502220236941151
0,500460262023207
0,506052541635472
0,521679609062487
0,559200314978342
0,665616082322691
0,581999033974467
0,536493426877026
0,530869123840191
0,531781264038458
0,551766806598037
0,570645779824948
0,573505048234028
0,585079105695161
0,551100878730897
0,54289300239358
0,559150007467007
0,556980391088541
0,558232102776998
0,547192577323992
0,56631611216673
0,579647201309348
0,566545862532121
0,56488803668682
0,640681970857921
0,577766393522253
0,549924183021197
0,558736848661704
0,547154228488026
0,556913578805996
0,546935116069802
0,564287848749562
0,564633631755277
0,559845028361029
0,523408434800015
0,527913375516999
0,537844472343005
0,556383726743356
0,52001645794388
0,501046087157212
0,499291850455033
0,489677752992311
0,470857409022444
0,479252514194063
0,514348650031646
0,485969305038388
0,45442273434495
0,460896302600745
0,44583968335359
0,451621051142994
0,435331294422246
0,442018038083845
0,429212043853947
0,429130014360295
0,419630274494368
0,418228177720236
0,410327678354061
0,415225603417734
0,413169632819395
0,410736367480969
0,406142275216858
0,407989625319687
0,39478256763969
0,399181963692202
0,393328258192282
0,395437487158636
0,399101811675323
0,400959978955762
0,39091839557793
0,389962619267363
0,386515458355425
0,386681055679242
0,386815783406943
0,391410858007462
0,384071825001858
0,388171302529315
0,38719211904829
0,387149063347966
0,385293724207246
0,385572840777553
0,387046108135991
0,387085979437126
0,386185086155415
0,381961793380565
0,385850822814316
0,376218012987188
0,386946764606268
0,399953759681777
0,412244681164151
0,392251555576794
0,37780795427774
0,388380101124825
0,373864524679031
0,379493333474218
0,400595507438171
0,417761056151201
0,381261500768283
0,38292949716483
0,375256312203623
0,387351882745748
0,383792435522652
0,385732871893295
0,369231930728537
0,373316370896475
0,362646472301618
0,43735889869069
0,441170040888738
0,463022103559804
0,408045799900237
0,366502012015688
0,394340534358495
0,400545177396096
0,386418697757086
0,361421634697802
0,37837581410891
0,380343102575506
0,387622873960356
0,375098245293019
0,367861995134787
0,361318601767432
0,358727783658469
0,387597593286808
0,37154185301549
0,374285905434547
0,393100267484999
0,382020709733749
0,377413772024012
0,446338637116868
0,380562513758452
0,352020352486827
0,343551521262483
0,339049616720578
0,356544868597741
0,362478903339068
0,361399939359329
0,344024271397588
0,329963952980095
0,328228486670066
0,329068708229574
0,354286008055358
0,319949866010938
0,333103822717413
0,327579654343926
0,331332514291939
0,303381867460062
0,333389695475402
0,335372708620986
0,360849540690706
0,315505580922805
0,298517270302182
0,322081433778475
0,325267075409468
0,316914800707103
0,306497493609921
0,288119751041001
0,294765225936636
0,299075893515171
0,291768379753997
0,283056390396443
0,291413615124914
0,298423834756285
0,299308846933951
0,333603677646143
0,320038649253941
0,279686722706936
0,263922845959222
0,257316550920997
0,272900420768544
0,254452912934752
0,257439024033999
0,261038511639385
0,264979450974198
0,267029423255693
0,267589515009786
0,270197761369066
0,253516324591516
0,255816504939231
0,253959375989765
0,262719669920829
0,283770346193869
0,296606174136316
0,272525441397516
0,264990766576427
0,270356851022664
0,280085508318563
0,265327318016657
0,273096641906101
0,26844681683731
0,27764623224536
0,274859912638753
0,287553438100367
0,284270716669696
0,289628584898544
0,286035395702419
0,323874290880127
0,312349780881947
0,320106554650465
0,306479684337248
0,36301527192057
0,34291820078562
0,350290330677094
0,337907957292007
0,337900358112755
0,344279601283548
0,350271104395159
0,348367866229972
0,363273239449365
0,368342398936581
0,380330633597533
0,362465074806462
0,383475652539909
0,369141360815442
0,39180764071703
0,38629404568349
0,408820839267392
0,416250718663474
0,428497780307601
0,417631508698451
0,397241317855032
0,402338241728113
0,395583821445254
0,400911170688008
0,400899097265783
0,397073878449589
0,407594800671116
0,421979966147815
0,419346104901139
0,404338187924804
0,408081921672743
0,407875912551942
0,412035072890218
0,411854050841783
0,414666808123087
0,418312390508288
0,420471104858869
0,411216052821435
0,430720938041941
0,456804819195039
0,458834507316202
0,425757512605162
0,435351405424407
0,439777610644056
0,440188844741366
0,443882030847594
0,447988999753735
0,453285141365957
0,452189151411934
0,45096819132315
0,459806076540991
0,450669761539399
0,472689271110309
0,466771236570773
0,474050104672213
0,460096380451533
0,465223047319597
0,475437590697639
0,507802991112711
0,497619478077168
0,476741754143743
0,492110156759863
0,478422227748299
0,488429572601559
0,476153393166325
0,486065385927033
0,482479135408583
0,487984153132588
0,478779738229639
0,489310525845152
0,489913797338467
0,486501996792963
0,494874762808725
0,501890074299586
0,495274584178945
0,484575735991279
0,489632563730757
0,479653000808807
0,482212885360978
0,495309647753222
0,503276292097296
0,497235045191916
0,480378515379105
0,487024309349941
0,506135867450012
0,500583622848706
0,485879332889595
0,480816973067691
0,48865078788667
0,483244118463159
0,479754570702359
0,487676961951292
0,490718807088238
0,503304058654587
0,486447319522961
0,497813062125472
0,495251261556591
0,498937822915155
0,488936823415153
0,503484675788433
0,504376113523936
0,514292398911366
0,51230617579662
0,515186256596835
0,506487262131819
0,512178443219529
0,518094185560206
0,522120661630774
0,505823492165743
0,510085787878057
0,507505354617334
0,512265728798235
0,507426345733523
0,502908697830907
0,491258431444259
0,499338267826305
0,484033392583418
0,499136977902912
0,500755519542788
0,500585682976401
0,481853541931986
0,484083925870921
0,467325901679242
0,46928171900106
0,466428343133628
0,465515551661289
0,466736772125463
0,465456889651273
0,460063038552891
0,460016877829039
0,454222749454098
0,451648779062876
0,455453517720766
0,45643167153048
0,449495139632696
0,448237158050159
0,440919241095189
0,448224127793332
0,441287345705328
0,449488588684782
0,447140867322816
0,45271777933227
0,453840984378053
0,464000563491541
0,45445068657581
0,450124604531082
0,449784895408639
0,448447356898575
0,450617815691294
0,441443007513979
0,445795435372832
0,441508445176724
0,444959975392673
0,447739291117082
0,442106046275107
0,439183694348038
0,447815846105793
0,444670698395556
0,44279986362126
0,439725638495742
0,441877889241927
0,440333968162034
0,438690793543199
0,438994822989654
0,446894260657579
0,450357979413107
0,441120006676265
0,446179287475459
0,442619600411201
0,444109203269784
0,440345919307938
0,446478480405112
0,448527862829851
0,443854072240236
0,442010581205996
0,439189669419314
0,43948286276084
0,443167519326457
0,437618404684559
0,437536659762922
0,440166992993887
0,438171333647965
0,438096781629242
0,434962395283087
0,430235730040457
0,42722858309812
0,424100329028759
0,42015483312277
0,417899835712996
0,415502387449875
0,413129008610568
0,409772238504441
0,402822479389449
0,404513546040805
0,398649278331547
0,396394585438774
0,397586416477848
0,396043989370619
0,395445547825642
0,394629679264785
0,391585867273982
0,388545430529643
0,386389169788901
0,389980045908844
0,386860414727018
0,38969032610498
0,38922229220279
0,386210153247192
0,384371900286234
0,388654987434208
0,387775526834515
0,389153743848447
0,387107994584431
0,390821291173681
0,386107521359902
0,390972566078247
0,394936563469029
0,398696207615344
0,394143112441139
0,398474579312283
0,399449048334184
0,402906912100422
0,401079038843132
0,403243473406293
0,405330342409801
0,402138091002371
0,401430990260699
0,408157814235723
0,40914846749743
0,407808605396101
0,408114002559568
0,405865776703029
0,408532829508078
0,408536945619303
0,410103658209202
0,408869269980861
0,406340167813127
0,404975548828062
0,402011270220104
0,403967403395784
0,404016146724789
0,402280750495725
0,398941503719989
0,40008509753186
0,399263610378054
0,397886578284711
0,398238667943277
0,395274547783798
0,39075190603088
0,38989531003257
0,390463410376879
0,389439821273388
0,387509245499208
0,389622085574416
0,389949438090015
0,384941867719843
0,385316073120968
0,386707503073738
0,383485161925107
0,380625997749259
0,379350394930595
0,379282979799784
0,377949483577838
0,377174809509885
0,376522634084178
0,377552310912316
0,374165484207701
0,371603118822841
0,371125504964279
0,370805197835904
0,367409956651582
0,365971053253515
0,364286877059337
0,362719360228645
0,361425852686054
0,357885823337405
0,354248314928833
0,351144282174741
0,350264180940792
0,347442268390652
0,343194073507748
0,343383906847871
0,337952300931229
0,335407865182414
0,333071399282765
0,3323545266865
0,33063151700757
0,327590266877885
0,329438061069316
0,329012714015865
0,326007671227757
0,325156665785807
0,324727063520574
0,323241003450261
0,324099070715083
0,320586948858083
0,315980058095682
0,313964200414163
0,312936675348705
0,310592282568479
0,30706294070516
0,304550170532505
0,300938838306706
0,297225483876649
0,294016097689697
0,29059426721334
0,290164029913922
0,288439582947377
0,288279843466993
0,290918551396278
0,29003702561348
0,294370865414818
0,297355345829409
0,301013341790696
0,307781013476992
0,31133386801505
0,320700984623591
0,330949124631793
0,340652835295438
0,352201379370893
0,360628400827291
0,378524435495274
0,388527895237859
0,401715143624367
0,413359859612713
0,423763173966354
0,436130723059912
0,453082735608435
0,464876127537522
0,476084937664387
0,491194568653327
0,504753081493179
0,51548901894702
0,526241542850187
0,539099535721768
0,548372776447579
0,559921882759886
0,571209187736113
0,573039971951641
0,585872747872537
0,594315728976456
0,59183137853811
0,600271544691884
0,604887196710282
0,607596754341789
0,609659176691599
0,610687363375952
0,614284277177371
0,614958882519791
0,614010556515518
0,612198109431329
0,606009702516051
0,607719874428224
0,611449929437587
0,611099266245548
0,608086159570959
0,611248502468483
0,611928917719757
0,609714375049529
0,619113299780952
0,616154026127575
0,619705455429201
0,628015752699863
0,633613779614682
0,635967013119044
0,641091710289411
0,645580510422506
0,652880921978627
0,663592268588309
0,67038575148931
0,671942980510372
0,685340498891185
0,696689789158578
0,705016213900851
0,715834842355837
0,722657766739575
0,732428080384834
0,744050844273837
0,755993233099502
0,763563635027704
0,76375496945226
0,776169167675533
0,775210239026052
0,787535878358207
0,784411070050916
0,78444985199105
0,783468355710323
0,779597254108246
0,777331452376558
0,768534877727408
0,764938868891558
0,761951549193503
0,759175632452587
0,755980070423197
0,759032950303708
0,764359406060551
0,767657812028207
0,776825218995355
0,787710082166321
0,802992428287546
0,803214448997536
0,811957423549524
0,828302323016381
0,847648289508472
0,841935190453013
0,865317451525021
0,880147908822214
0,888518156198562
0,908468016953979
0,917958001345189
0,912318908013298
0,93509590434838
0,939487518328091
0,961692593511916
0,977844318470718
0,984369816813152
1,00077087536059
1,02516740957086
1,03509668987926
1,07271390655068
1,08025021802017
1,11076071703061
1,12111678096411
1,138651345862
1,13513681748637
1,1564785999067
1,16760088267947
1,20101032062063
1,19743189364497
1,2105600707303
1,22950983677525
1,23407932009046
1,24956569336306
1,2521806623756
1,27033277692792
1,2742964583837
1,23764423990694
1,26545245635395
1,24552723003558
1,254537955668
1,22918789758797
1,24086067851812
1,22839918917362
1,22850711911718
1,21194149783533
1,21967483720029
1,23217581581172
1,2273742901548
1,21165636590711
1,23408134802138
1,25151301395299
1,24739458800313
1,2510121533477
1,29210753940742
1,27523662357509
1,28648573028551
1,28765421868252
1,30282172428826
1,330196361915
1,39495231120213
1,36167254746366
1,3836006279084
1,40496466957221
1,42294430535414
1,3988067458089
1,38959345478346
1,39978805370597
1,40750769156658
1,38696888683574
1,42077362742048
1,42089335100641
1,42030942827265
1,39662577680281
1,40999559775375
1,41158096206615
1,50133318725024
1,44692333795121
1,43684973640137
1,42038836220163
1,45536966967748
1,4649932355245
1,4829475079688
1,44384033600835
1,44873476590157
1,45178197831962
1,49650140005731
1,45041784008418
1,44615721948792
1,45084961066478
1,47565678257848
1,43433361116061
1,4093084962068
1,40807905850418
1,41406169428961
1,35383380548905
1,33982581841087
1,29984497948568
1,2641964326241
1,21071954607566
1,1992965062478
1,16674401797514
1,14265466827306
1,10118122146008
1,06974749417423
1,05004448780054
1,0370327028752
1,03137287665995
1,02323540257485
1,00250015727146
1,00727006440427
0,981208731370168
0,98341098195012
0,973269436860677
1,00096460961527
0,972992536084266
0,968702069572352
0,950910568421073
0,940461300019592
0,926974451682413
0,925581451633904
0,910928317419786
0,915192843564388
0,882583525961974
0,870539076626614
0,851917010061686
0,848439340913807
0,823595108224845
0,800544020924486
0,771625981673753
0,772154258688419
0,7341827418724
0,713783872496642
0,702165580749137
0,672642807072381
0,640244610311074
0,622003359211997
0,599875005365318
0,580558258748088
0,552752273753373
0,551608739937276
0,529439402583749
0,518000204350181
0,505178540485253
0,495771839818932
0,481017559398784
0,466484185307847
0,463558221953854
0,45160682989306
0,447271880193321
0,446319122845999
0,436033421953199
0,435914650121454
0,428986735342574
0,428663209971442
0,427989984262945
0,429273552441378
0,421797550862187
0,422844788604999
0,422104207405858
0,428609548063306
0,42907387922137
0,423928729147449
0,426382617521134
0,436637612692911
0,423994892722584
0,428847609458867
0,429462083542744
0,426394435288535
0,425304157838167
0,429552844861035
0,42079208600526
0,416596981756103
0,416107979233445
0,413061957035682
0,414175937056954
0,409662796825416
0,410414696766901
0,407822767731402
0,405757879984709
0,405696456965605
0,399073043933034
0,398865119796959
0,40254111119481
0,406700112118534
0,401792122544787
0,409483498779747
0,412866264908168
0,419141527375294
0,414059684223997
0,419722376258377
0,419519592929951
0,419147491481999
0,420314749543586
0,418541972743207
0,423958700242291
0,427099839270914
0,426187947929572
0,428003264686805
0,429319189064584
0,431194650274892
0,428271169739905
0,427122672832125
0,428883433038174
0,431109283217474
0,433537066449072
0,430636768592436
0,428593071427588
0,43922645970456
0,435613640775033
0,448830692967575
0,439718805681366
0,449080317845987
0,460446843268564
0,470884241281693
0,4790863186541
0,499572112597347
0,495734605038116
0,511027992167863
0,527738018693727
0,532199673667787
0,53513077835934
0,552278344017425
0,551445952860022
0,559779306932857
0,549779089216876
0,549203255287813
0,53754021432981
0,535665869122034
0,540249355953033
0,532509293540655
0,522834279618585
0,517522803439486
0,517988909383669
0,524665443729412
0,512353044870946
0,518714950100721
0,51650048011539
0,520362221816161
0,514211871128965
0,528760000720149
0,520353358348287
0,526918963834301
0,516923813751562
0,526603309038232
0,519386885432766
0,522830607885838
0,510919337875097
0,503819458478788
0,504409441790233
0,510533160264032
0,49663957214114
0,507943085177946
0,503733249809416
0,499200213206568
0,496618833502399
0,505000690333562
0,491813095245558
0,495901214424516
0,496402434495833
0,503622879310055
0,503082326036861
0,50006542798724
0,490581404599145
0,509128575585264
0,494411624359159
0,497514724907856
0,484148538000301
0,498607377622534
0,484231413013339
0,501938072311986
0,496777015153425
0,493155660231803
0,478794025866009
0,50133422062406
0,489054921550696
0,490445423963265
0,482050232182187
0,505045686892395
0,486742212418912
0,491224903865993
0,484817529055737
0,502625463373678
0,486233485167488
0,489473193338234
0,48578058125094
0,489998779956045
0,489568311527848
0,502758037491562
0,486686102787495
0,493042922511233
0,493592280717165
0,504318055998665
0,489242307424988
0,499414300228084
0,497037224238498
0,505697165781357
0,479283654332044
0,503452682432882
0,501409436941951
0,498283286849689
0,508157812929597
0,517343427278978
0,517204814418162
0,521696269023834
0,496360545401777
0,531935848024658
0,52408130638114
0,529681655060688
0,517968516427961
0,522598926100959
0,510322791968026
0,539883732841037
0,520011557107574
0,532844741961289
0,528139752416826
0,563483626753105
0,536975116785912
0,558879902086486
0,562193995298545
0,578964286599696
0,561504302589408
0,571124782758637
0,577633850830456
0,58950015214565
0,588947910714016
0,588519083717914
0,608392452206217
0,625299416572176
0,634473670535748
0,639088766789522
0,65257801462247
0,681267721629393
0,68804365878843
0,725770350061693
0,669773667608656
0,724462125862403
0,723490223045895
0,735996299931927
0,735828080277103
0,744031281569722
0,73519159613027
0,731440402232538
0,709621863783775
0,748965028871752
0,69729141940018
0,756027448021324
0,746499537445906
0,730745423574952
0,718229610626821
0,811559755649082
0,742070951351169
0,744307602496556
0,710420187100463
0,78918075520899
0,752044138613836
0,766198597793419
0,688326928463864
0,762384402800391
0,709108220823728
0,742480322804514
0,72420073862363
0,741421807973352
0,76169217595447
0,741620354426846
0,687355788679206
0,738804612126127
0,775196340169124
0,813325430363211
0,747662323575991
0,729323056936682
0,690606279831901
0,772390306950109
0,700785254755546
0,771803109047453
0,713593239851511
0,744782364561858
0,710343757201859
0,722135334582036
0,723280994146733
0,794364263010191
0,726103818656738
0,741984253300239
0,719859853535055
0,825987386070335
0,795906239969451
0,79649531414349
0,78300878354754
0,78936516452874
0,713581566712807
0,775433069043292
0,724946952094911
0,802375805192638
0,707960634984342
0,761290421656164
0,688333708945819
0,812743961935567
0,736188804678622
0,822436480969572
0,755779590532484
0,824749123482808
0,698508627397528
0,855408879955364
0,73190959037501
0,886858716709466
0,81314698453477
0,825473972255399
0,740384388259916
0,803896752623025
0,763960728019157
0,856866358858711
0,788089958559378
0,811243040992862
0,758292727502474
0,905279242224418
0,919507565476735
1,13314706664368
0,938486917278843
0,922808679846366
0,818350333906908
1,12277287171111
0,852196117817673
0,955802517299382
0,878382530925144
1,16651776083061
1,00472900866633
0,985659159293673
0,928237980677891
1,01357441719784
0,853666259735409
0,942635574693097
0,84593910803088
1,1388973713199
0,923096636737122
1,24934465221136
1,02618527092074
0,958289405481933
0,939539230439836
1,11867290195051
0,912822207112259
1,11665486905649
0,846088623988456
1,09192661502543
0,866813218776514
1,01456590909919
0,712641167720761
1,11800772110986
0,898232903118677
0,841871143668072
0,93717143769792
2,10953787272415
1,11810949545863
0,955898614123776
0,785525878022054
1,2224542774097
0,911939129982632
0,959974357172822
1,01114866900932
1,02656849436048
0,746492071466638
2,81823350379029
0,931171866747691
1,99993297852726
0,756694952687265
1,43974663411093
0,465987514411622
1,14813824835291
1,1321087020158
0,832707848487655
0,974748837971456
0,972811461180734
1,17284674918826
0,92448389452577
1,13269307985209
0,686928766973946
1,0705898204542
1,4828519647706
0,799875158084226
0,945781791644328
0,56582671463578
2,34839509809291
0,733035626935395
5
0,879038775342176
5
