3596
4000,36533379555
650,420452594757
1
2
2
0,0278702194557798
0,00903583620604923
0,0279130853025333
0,0165433022977858
0,0270150931886224
0,0123184032299795
0,0276295656908724
0,0114159791290682
0,0292007994163579
0,0139739136327387
0,0284570052224903
0,00528661729848088
0,0246376016852348
0,0150073605901923
0,0238377515988286
0,0114184589038475
0,0211260442801115
0,00674747608403248
0,0184363188693783
0,0105417442444774
0,0302928652967313
0,00658562287976716
0,0329966034394585
0,0215926769407995
0,0280590678258916
0,0169196916218203
0,0229387217923391
0,0159438040520359
0,0287640880466192
0,0126461720642799
0,0219201850571456
0,0162783162948495
0,0270387632016725
0,012180554592789
0,0231365661769358
0,0104226426721219
0,0234411487884561
0,0118043208149644
0,0203753948638536
0,0084073977164183
0,0252825059824505
0,00698307295088294
0,0334307351952049
0,0143190500363635
0,0242865741495261
0,00707725498669315
0,0219986449883612
0,0128654075115994
0,0311012138056922
0,015754667943391
0,0330364595153947
0,00720928385559946
0,0289772717103333
0,0212066974753804
0,021610181751178
0,0141380099424411
0,0298679852769345
0,0026427350724387
0,0235542279606106
0,00757084964183919
0,0279963060230025
0,0213097024200864
0,019996467792385
0,0197422853410918
0,0114310645693531
0,0208640336450716
0,0234367413557441
0,0185116899895651
0,0188888392946727
0,0232741817751076
0,0224818747439602
0,0114071777867694
0,0254552036750992
0,0114032068889891
0,0250146418870623
0,0177161758256182
0,0194552594056288
0,0199258592232688
0,0128135425823184
0,0101416336634765
0,029544141117706
0,0157591220596989
0,0244824833589652
0,0147052106948567
0,014866011017595
0,0233975415713645
0,0170499414952103
0,001016720825237
0,0332618274939102
0,0158003584136997
0,0215664298634086
0,0181892471504218
0,0249709342304781
0,0134646975823961
0,0225464860956022
0,0144926604908862
0,0190264582921941
0,0106411035978618
0,0162456668321303
0,0133802098731798
0,020632878234183
-0,00754954374710407
0,06356184694471
-0,010781530192438
0,0532550948448141
0,0115469856216615
0,00794885797816975
0,0331728032212613
0,0221456883150646
0,0199342896525007
0,0168818479226493
0,0168623148330564
0,0226852847991185
0,0238560986888908
0,00616790387794005
0,0151368401065704
0,0306703485901789
0,00912539147139774
0,024977810682918
0,0245110369594352
0,0104544522505704
0,0144249986854503
0,0514324492758857
0,00824239665437251
0,0307800093739231
0,0134748429872732
0,0182945420397553
0,0167047231480442
0,040197561920473
0,012247562005613
0,025875598359976
0,0101445232081156
0,0282257104868147
-0,00616877020963733
0,0463492082818315
0,0163609465047678
0,0277189793318852
-0,000728377091641986
0,0234785653966464
0,036056155318217
0,0256828638326604
0,0129996918140873
0,0162252085243978
0,00202157332877964
0,0526732625541442
0,0203870849488966
0,0182473145466398
0,0184915915411332
0,0340254224491171
0,0122048263743615
0,0299563160012967
0,00456803093858174
0,0275032163776966
0,0147462717785844
-0,00486858728553082
0,00190204811388808
0,050259340673759
-0,0271062584403148
0,0733406961107427
0,00100326678894712
0,0449404625123866
0,00604679035582109
0,0326069508748144
0,00432119856383222
0,0298852771628445
-0,00092525360675333
0,02422789139844
0,0309893737246908
0,0163267472569288
0,007985007540938
0,030518752983481
0,0265004684927532
-0,0107567219188382
0,0407782830666161
0,0288682390243076
0,00360667158659325
0,0514283178744062
0,0125817631103566
0,0169492895907833
0,00552863238730871
0,0420858980873501
0,00649525401834441
0,0270286163184701
0,000475915289108014
0,0236804587817359
0,0223963794333038
0,0229191193432462
0,0124466051415471
0,0328205062532974
-6,53396785879541E-05
0,0379124659898961
0,0152029230815684
0,0495619230990867
0,00566632305452711
0,0365617797718207
-0,0143335643800675
0,0466899839702617
0,0237110000925716
0,0225553919673358
0,00944614496689351
0,017329696316014
0,00842826800508211
0,021051823567001
0,0127900075497113
0,0256682023688068
-0,0167910155146858
0,0501916494214129
0,0124712736883989
0,0271383947250308
0,00547464536812373
0,0271899108684123
-0,00618137770556603
0,0560263994573174
0,0184678009515626
0,0258408241085762
0,0136341387327692
0,0104881904550605
0,0115264342747926
0,0362679678032733
0,00843124328915471
0,0254446243111713
0,0109955429155678
0,0278841212826208
0,00891099682819113
0,0233825291446549
0,0159042908503365
0,0317230701872743
0,0109011186010716
0,0180648439667901
0,0113102443410255
0,0260195449718962
0,0172409471083693
0,0236023449260869
0,0145649351851855
0,0144952837576717
0,0131959476959141
0,0297647714177238
0,00936741483638852
0,0267165007285955
0,00980822507304664
0,0292299856197739
0,0142772645060021
0,0259747776218166
0,00942266968184664
0,026949042536926
-0,0061831355126178
0,0554557105202727
0,00389706633923189
0,0386856271164809
-0,00446096172634018
0,0408821112426329
0,011368006927938
0,0231054740658547
0,00926286179556951
0,0324144379331858
0,00762539209953322
0,0145008923185984
0,0204435936586904
0,028520777200606
0,00312014784091812
0,0350315351796298
0,0143432223216862
0,0249758129892594
0,00887988095559689
-0,00717979543272052
0,0454873487193082
0,0255161429168681
-0,0171708161156762
0,054374943175741
0,00902039783807821
0,0355630174223965
0,0130377511367
-0,0159799479200425
0,0452722583137315
0,0498722354846677
0,0161223755491193
0,0208483859244605
0,022362614850519
0,0178223594788104
0,014387398455574
0,0212131873557488
0,0102831255482378
0,0335924496406862
0,0185993676421057
0,0692560161336335
-0,0190935990542619
0,0509285622907115
0,027743856734776
0,0250144187068885
0,0134634232368705
0,0240020692487199
0,00114783394550072
0,0290716432206887
0,0130623104961928
0,032167633933427
0,0185539777293398
0,0158901391176427
0,0329440032311442
0,0239620210745426
0,0160463145070567
0,0230229345248438
0,0267148034136922
0,0186076602719425
0,0178898157876211
0,0172294389235342
0,0185222942338794
0,0207394380796934
-0,00281131499635474
0,0526003585405371
0,0168526758017898
0,020339476780166
0,0295831221392834
0,0218010342597836
0,017817151188423
0,0211836531569513
0,0176051355168935
0,0235781889635341
0,0168141150290429
0,00767059972906152
0,0243945925608281
0,0188401974121901
0,0182525651608242
0,0285192622510823
0,0106871053554119
0,0206760561606477
0,0193981943027161
0,0277382419248576
0,0170619104489441
0,0270914746042633
0,0112992468830298
0,0292343808682299
0,0310397847661639
-0,00151556168318329
0,0264214435593483
0,0446298840834389
0,0269173612955296
0,0269099159157919
0,011543233558885
0,0273229065964889
0,0131971445515265
0,030350811847732
0,0109079031058013
0,0205212823161018
0,0273839787202722
0,0304156815623246
0,00869400513178221
0,0165283009014087
0,020985685314967
0,0684685379846598
0,0200932750655042
0,0403106895559244
-0,00898220667578804
0,0506655438595759
0,0250123129175236
0,0273726728139524
0,0383246195198707
0,0254338364552087
0,0321798028096737
0,0200275513183768
0,032423994190121
0,0296027535848407
0,0333315162064461
0,0282304968467925
0,0318702158878239
0,0317271731745628
0,0316938569594133
0,0312816084039369
0,0234026988957131
0,0649141603227701
0,0400340860756553
0,0414144725241808
0,0407996582018377
0,0237589712363294
0,039766740864318
0,0336338659956708
0,046700216725468
0,0531331525746049
0,0239269193133048
0,0777678343520829
0,030768343754327
0,0601745379582308
0,0260457352466812
0,0492254191053764
0,034222710919887
0,0475369021142596
0,0378151742389573
0,0534238869423257
0,0335975073983457
0,0461321735344082
0,0329353055892737
0,0521473269279731
0,0276421841444465
0,0790057834014298
0,042405929084007
0,0660835499988541
0,0286809395646747
0,0600183724031831
0,0531722263023137
0,0888417168426139
0,0473291880361596
0,0677324022362357
0,0466373789132908
0,0577862746193216
0,0573215831415691
0,05689292971735
0,0564522507735134
0,0475700168779114
0,0653131458212331
0,0746992938519634
0,0564229893174411
0,0827122796220095
0,047383916867525
0,0880038071768948
0,0567471784930476
0,0689145812974442
0,0730025733741423
0,087111691182449
0,0483222501157304
0,0871974842872115
0,0708370099243794
0,0785438404615783
0,0877772299498293
0,0733922147782819
0,0757316271871665
0,085097191228867
0,0896514526860123
0,0860486013569452
0,0771876873192007
0,0928766804873025
0,0849503067757552
0,0951477112823833
0,0910327793696887
0,0979890345813529
0,0857490666554966
0,107158643718192
0,0792396871344371
0,117900862439535
0,0858952692996146
0,112413442953753
0,074357566675015
0,126174653502069
0,106273562257504
0,114467216463639
0,112157765659649
0,105479151628434
0,106506054180089
0,107786555500736
0,112975994045581
0,107062916594421
0,106130023651339
0,132849227672016
0,111250322425195
0,124528155156157
0,122487954332813
0,129637776904143
0,118545268703701
0,139277086701659
0,120428463806841
0,136176614435773
0,118648603482208
0,149454680764423
0,116873672697963
0,147442276486049
0,140333001455779
0,176265739316797
0,157574273574915
0,148282322037903
0,151577114341633
0,153041440570335
0,151763902661855
0,16186407911407
0,146897401667212
0,166721417413333
0,159329524460683
0,167705792759399
0,171982344480745
0,17694797818876
0,15501371101007
0,168960149278011
0,159468439246235
0,183600149810324
0,157738667381765
0,185380751961775
0,166346313297532
0,186229591283022
0,178704451070323
0,194194544940057
0,185003579485951
0,193672497822823
0,196230634744564
0,208561371530944
0,190747235896919
0,2055233440529
0,191120352825054
0,212907874135006
0,203542387350957
0,210456477809989
0,206082098345336
0,2238351773116
0,198725715650971
0,21698230195847
0,209364948168855
0,229018354239883
0,201875921841297
0,238681519407378
0,221767107390074
0,229123460132346
0,233168503274481
0,234913421287566
0,229601228690642
0,243288126407687
0,21913002075693
0,268119498221097
0,245419029371789
0,258803794295395
0,246560698302468
0,263217095330176
0,236338974489464
0,260561787561746
0,247596994662533
0,267262502682097
0,24985606111579
0,279477372790651
0,27088813113882
0,277672626378921
0,262715458035405
0,288007695001035
0,265488721175295
0,296926495601464
0,271683982898054
0,294604609362226
0,280655039255198
0,299098811827832
0,28666913800719
0,304177466020432
0,278611272941762
0,30421530035161
0,28418936710049
0,311171441322374
0,287152246462614
0,312928890204262
0,310119276078615
0,329273561541394
0,297717552832759
0,317611161402042
0,318772757279439
0,332392064743878
0,311955273262748
0,344240963208227
0,32184961271546
0,333339129599177
0,321784585645903
0,343902458996026
0,332592994630973
0,342059929983834
0,336826487028812
0,353723528200974
0,333780809836207
0,350630836159261
0,344195792951787
0,359964770475541
0,351736860596603
0,367832367818145
0,337293670571501
0,372849379860412
0,360320075621845
0,37365342057529
0,351844069947893
0,376168780198693
0,351900200142429
0,397105660796791
0,36494643356411
0,399429812726243
0,376981172507745
0,395270714777471
0,385310534303596
0,39849186532416
0,367979530096973
0,402770675180448
0,380870730920524
0,408754460676552
0,374334050243533
0,421611438667418
0,400605600819016
0,420722480991407
0,398640095597726
0,432157137433373
0,392311725250549
0,4361378407935
0,39158743343293
0,435218941745201
0,404059654168617
0,444327065796385
0,41074964586237
0,44501693154909
0,411308968635125
0,431368610613762
0,433993104467196
0,451815608594359
0,419628128042229
0,448915046774665
0,416417945309736
0,438999044084794
0,438603107287679
0,452551064725238
0,430035729237863
0,471125982930291
0,455365237407271
0,475202389943241
0,456145372057389
0,4738700634674
0,439833577952105
0,46820782952266
0,46774137248313
0,487210862886934
0,454946683544108
0,479048530241784
0,46286930581879
0,490104260465824
0,455812139769944
0,462280654097106
0,457350721298186
0,504382336191751
0,457302663708575
0,49214850289937
0,462789438837692
0,49634754811637
0,475940369420559
0,475311492216148
0,457132144397118
0,506417556297625
0,498929723687127
0,49485195004667
0,476965269611171
0,518761712750761
0,477171898429011
0,499762360072558
0,480462287315816
0,51461278833761
0,486604096997575
0,49962900968696
0,47923272778759
0,497621327537774
0,493675251654673
0,527068476602493
0,505140828498671
0,518212936705569
0,499235916076259
0,508290690252906
0,509264233545626
0,537120491850525
0,502650933871819
0,517148991654081
0,509647034284906
0,529058882348515
0,5023984877943
0,537227506570074
0,498986211121774
0,53739094795119
0,488187189960605
0,538198523576202
0,529454082022148
0,531003553461549
0,505206689666773
0,522538711607328
0,52265680977303
0,542168487702709
0,497955994051553
0,53094200558303
0,513867189463544
0,538210688786178
0,506146192413935
0,539285267084091
0,51385617608373
0,542545813005459
0,505173637266399
0,523836463095943
0,51851841647346
0,533606726924636
0,537654198950901
0,54579434180596
0,525193764366337
0,542593966967253
0,533389644807839
0,541410819611488
0,531202630435637
0,547692075313514
0,530942816278793
0,534918837009283
0,51000356397762
0,539600957933316
0,534531753112939
0,55485386794738
0,520930031289692
0,545859328409774
0,51915768644749
0,533151071025733
0,510043963977935
0,546786392613606
0,533307504413517
0,54357552868751
0,523864750320598
0,543220760777041
0,511533255831848
0,53263708025447
0,519941640220289
0,536507254315054
0,511932872745214
0,53891621628899
0,519360860025532
0,550873989116057
0,520675997549658
0,537140339740492
0,529216103828951
0,529818955186091
0,506667464111823
0,526723513311539
0,520957262555795
0,556986689074186
0,526916977320179
0,528529398872988
0,50530752444678
0,538583687975838
0,516515020964257
0,544669710174282
0,518541453577483
0,544436485045626
0,512906866141662
0,536841899956534
0,516397014840147
0,541446331690713
0,510454145751529
0,535426191639803
0,509949660859663
0,531683375745064
0,504517969547223
0,527445769652111
0,510187728592397
0,526422749531414
0,495485280398184
0,521768292992522
0,504420211611015
0,516327734471461
0,505597409733497
0,524894367325988
0,506062533527962
0,514764704151918
0,506569007393211
0,541658938918325
0,505578374665057
0,524409599810716
0,493336074784671
0,501361121662102
0,482077609006303
0,511176874971759
0,509942318159963
0,517215206858538
0,487910449042148
0,514867561317726
0,500283068524257
0,499998573152718
0,478295624406011
0,504429834503055
0,502513298947458
0,502620449889833
0,497536537036838
0,508332244841092
0,482944844196448
0,512792433836795
0,471851435265623
0,496259088351132
0,483384589978853
0,499430101127245
0,490034254963914
0,495393436936084
0,465764694934432
0,491452661864835
0,480818180481603
0,5011077812804
0,478641014549318
0,49391102698441
0,466791624793588
0,476439849559417
0,467939773637262
0,491265873972997
0,47016799074935
0,470157060384072
0,467744711812884
0,477923696357046
0,462409906835923
0,475506669564731
0,468628368548923
0,482596225228083
0,45534637861341
0,490364183894555
0,452644096906541
0,46021102951868
0,450927190667904
0,463627703102157
0,44887126950945
0,466821176638277
0,453355477878756
0,461215218775752
0,441759398715845
0,450795921177042
0,432945528631589
0,446682850104335
0,435172205700383
0,453162730346295
0,433914431465675
0,458567104803366
0,422792918114063
0,453963576087458
0,427379385603949
0,442289063348292
0,416958620382074
0,446628308293624
0,412918307860556
0,427844836276809
0,414017032411803
0,424372462655466
0,403855049306172
0,429628396878523
0,408001148277348
0,427717706444419
0,410163271212625
0,421813288670665
0,40764009413415
0,412950309295018
0,401755988367861
0,417061787584836
0,403479736240302
0,410193915271627
0,389087988771432
0,407540970212022
0,400124536980111
0,403080881662428
0,392366285602597
0,38593049979637
0,389945678182329
0,399326064272583
0,390038538499198
0,394099249582154
0,378832983661297
0,393876213288773
0,380594063274981
0,383989050609872
0,373489045592242
0,388077477530211
0,360620243696297
0,377798914650353
0,371029124580258
0,377225921235353
0,355853281648118
0,374989992732132
0,359526901833562
0,365901489464043
0,358254531608794
0,370577656933359
0,352288029380511
0,364555407236211
0,353321539085894
0,35182096783664
0,346445122414524
0,362727302336007
0,345510524799847
0,355297324283182
0,339285460754258
0,343341298613114
0,342885677981634
0,345181845278875
0,329701706306817
0,336547627978428
0,322181932429965
0,329982513039968
0,330881125132435
0,333231262038318
0,318495500277499
0,330650558376281
0,313312168218098
0,329488356275162
0,317385759899516
0,320749133958934
0,306932067288699
0,323162184935061
0,304009557989651
0,318241340037246
0,304055621616577
0,309348647057459
0,306173473437312
0,305509081774164
0,295687038916736
0,311827866136171
0,290665335657217
0,299648023940655
0,294816419519118
0,301846369069407
0,286619603855739
0,297194719553768
0,281496717283887
0,295046829884878
0,275752443947188
0,285540765341356
0,278417627513342
0,279343083741509
0,268715053906746
0,27698827950147
0,268675787660318
0,274650401356988
0,263281796831908
0,272351548054013
0,2647653032015
0,275530245957801
0,261442813117853
0,265205293908275
0,257815219582081
0,264853529807113
0,254689171122571
0,264945425702561
0,251299013310402
0,25974623349377
0,250025664419722
0,254419905666117
0,242522515502865
0,25706166852102
0,240943158146352
0,251490028556505
0,241098532391222
0,24530310287191
0,232898203773675
0,242315115815229
0,23390542567898
0,239497393672985
0,225409176891477
0,237606782246254
0,22795748334499
0,239136633619795
0,228730972221138
0,227608537909842
0,224339994775816
0,231786623820344
0,216131565839637
0,220791387224706
0,220941509386165
0,221590993248143
0,212908274710561
0,21954184057799
0,208255712543581
0,220168174780504
0,214900822729184
0,209868032129341
0,205991795468183
0,211350290351644
0,204303581563213
0,20770113228515
0,19942825271401
0,2057402075561
0,200569930404822
0,208402661886002
0,203845738453094
0,200801745747034
0,19923955676612
0,2044344274691
0,19430251801598
0,199024008512356
0,190405699361804
0,194416113287841
0,184320348285333
0,195228720030111
0,185331980978172
0,194704809621575
0,185915552015247
0,189996036790322
0,186363177124003
0,184419863614288
0,181444884212339
0,183847019790452
0,176609379456649
0,18702226791128
0,174934169458326
0,179542345820362
0,171121310503214
0,183735123615357
0,175891166166418
0,183651482648378
0,169396740683487
0,174815506635727
0,167979677143768
0,16891142504906
0,163040987406934
0,175826205242023
0,165014644853235
0,16908693195999
0,159616941899364
0,165643038237402
0,159575869297138
0,164650192738544
0,151950494973765
0,163914598424356
0,15189499300621
0,15777344178626
0,152571628246704
0,159992118122665
0,150122919740628
0,152370925314981
0,148878298628626
0,150618305258019
0,147604674982912
0,153308680381565
0,143842545840061
0,152387577525228
0,144366863704925
0,14978656593053
0,144016634812672
0,145889490026434
0,141242733755407
0,142504039732684
0,139901967031964
0,143926411809427
0,136688133721653
0,150271693018556
0,135524858702772
0,141271230294279
0,131878752620477
0,137588813708674
0,130474635451563
0,134518429766476
0,132868461042505
0,137229674306125
0,131773010514689
0,133161661603158
0,12406952347144
0,13300180661614
0,125792736103442
0,132244823433374
0,120563104006652
0,130322144730853
0,130123586819505
0,130503638799023
0,12007900857773
0,124859249712808
0,118991482045552
0,125417437349434
0,116089012295127
0,12650801858836
0,123552992407599
0,120332509982498
0,113671724210017
0,122746481191585
0,11260220639922
0,118557847437967
0,112920878308501
0,117375923617028
0,109567128050743
0,114373577241838
0,114512610147875
0,11536169279666
0,110412069488112
0,118624330971655
0,110868950009783
0,110809883960282
0,107939826502893
0,112267482168751
0,108763563213002
0,11470364827865
0,108089824295612
0,110319002878034
0,105108345402293
0,113536286588813
0,105196406097375
0,108671876369923
0,105003515198547
0,111702672598586
0,105702806746687
0,107439016294111
0,100293245680836
0,109053822177536
0,103299139567865
0,107121043167371
0,103270942808283
0,104727669197473
0,104986190928527
0,111068633058578
0,104839622907523
0,105906620985451
0,104046806156259
0,112473002390704
0,109347548012245
0,110149139711957
0,103160235838544
0,115803730497969
0,110671325005634
0,110397459430033
0,108790331777145
0,111428243965691
0,110459851860285
0,112941368625021
0,10942502155785
0,118106386408945
0,112412183756729
0,112869477678467
0,111166210938414
0,117239218249903
0,110230584593391
0,120087822443622
0,114491363269691
0,125016384948999
0,115207406409689
0,121276487286319
0,115229867233196
0,122953283949623
0,117420654641596
0,12503600927132
0,117783908769938
0,126337443959021
0,121564755774565
0,128016561742198
0,122946157775935
0,126167581260716
0,124241739492164
0,12803220789582
0,128721311949728
0,134081174175295
0,1314559222171
0,132964127886409
0,128426023105161
0,136522255485891
0,129735473166807
0,133264572801477
0,129904969996792
0,140532376548885
0,136155599240901
0,141098865135186
0,136590662059818
0,138696156970765
0,139508640169445
0,146780838908018
0,143796061887869
0,150534896239184
0,13911022165513
0,147747853160651
0,144855581126999
0,150267241921621
0,146377736617372
0,152742083973855
0,146315968440975
0,150593853574103
0,147429139871355
0,154725097308097
0,144776956612464
0,154119638794491
0,156848768583625
0,156060000412094
0,146106041641746
0,153540359748768
0,146219217121937
0,15497584113586
0,143719699491265
0,151375138883721
0,148700768454042
0,151808438864032
0,147545145363804
0,152941791908002
0,143146816695774
0,147515725288889
0,142862095123637
0,152656967463454
0,146360690010913
0,149490001568292
0,142568578047389
0,146989559140554
0,145128093028393
0,152863993731745
0,145897072736474
0,148337825802308
0,145420035436048
0,149803886050333
0,142715497878629
0,149434726604947
0,142720447104124
0,148897250846194
0,141961289628332
0,152306893601595
0,147299070986798
0,148050999830252
0,142770952830712
0,148376414748127
0,14198278371947
0,149666452379891
0,143782627093079
0,144553687981349
0,141762450090637
0,14939851148181
0,14854749388606
0,149703878421124
0,145724547943751
0,145909976989612
0,141976258604573
0,1443768521865
0,142548134404547
0,149183475001803
0,142552605181784
0,146255820135635
0,141921468695046
0,147724215370653
0,138557009640489
0,144237367637677
0,135951870092815
0,143984867795858
0,133703420752105
0,137671381523229
0,138458060347424
0,139393580294411
0,131840241713061
0,135846924722821
0,131123856639395
0,130142622843604
0,127924373145143
0,13299985369882
0,127134749566134
0,131399528479689
0,123232882505284
0,126015251698737
0,118910825359639
0,12463090799405
0,116202127898344
0,122009237999149
0,115446474850572
0,125065303332348
0,111963847627103
0,117139022776162
0,109481250165472
0,118253370372645
0,113388761564065
0,112733864354062
0,107725464632678
0,113186414574806
0,103263707283363
0,106838249251821
0,102870318818609
0,108530113471522
0,0990633386393718
0,107734744212246
0,102487597316498
0,103123738271842
0,097586032978692
0,103664221542463
0,0974222959538292
0,100995387021939
0,0955558322226215
0,099228169928924
0,0920338878694172
0,0979020993225475
0,0956089519061518
0,0941700711408525
0,0914480943247792
0,0938775694801723
0,0970371265412285
0,0926126356411324
0,086984641017726
0,0934304567912606
0,0865221687214986
0,0923096833970075
0,0885663201228125
0,0927137236168955
0,0914363663632503
0,0912440342352101
0,0866850477007721
0,0867284163863603
0,088376951329193
0,0932963541835588
0,0861027940852045
0,0844654549944091
0,0849999559094616
0,0895460811002359
0,0829934286909388
0,0862643552807034
0,083606600207687
0,0858184152210601
0,078386949009794
0,0860458035536745
0,0780920769847586
0,0794042980409004
0,0801204556252304
0,0820755148774021
0,077199199476489
0,0816367423308434
0,0796506060809147
0,0810923089561631
0,0792466882551797
0,0803916153893386
0,0766654649141578
0,0803389240993536
0,0770100493768517
0,0787101456512777
0,075128460711024
0,0800528121769088
0,0736035057112946
0,0781330251767275
0,0710977313151376
0,0755113107619077
0,0716367004255687
0,0767654073379505
0,0722755387420075
0,0753656800297066
0,0706632704234555
0,0753416818020503
0,0707129023479919
0,0772523450703965
0,0719953502548824
0,0711277466177695
0,0725619598600724
0,0776881621520999
0,069087978745381
0,0723780982761759
0,0685854397817581
0,0711097258355192
0,0678385271918269
0,0709933230876735
0,0635000536913615
0,0730835442292818
0,0686678632878385
0,0697842313682051
0,068689121338007
0,072490141644226
0,0703125220556609
0,0716098867463039
0,0662604478588899
0,0697417635778064
0,0677365424496665
0,0685600338115277
0,0670703513648905
0,0682031148611023
0,0665003519931564
0,0718507937361721
0,0650276298431109
0,0677609465067841
0,065915945658113
0,0659150689035144
0,0641742122935982
0,0661994329564355
0,065784575611968
0,0695138553289615
0,0654149753702029
0,0667643431917105
0,0646511766873514
0,0709498154732288
0,0636403552240185
0,0673525068938849
0,0619248987500488
0,0664175229724917
0,0653992724423175
0,0653401928538187
0,064581294644084
0,0677684452243208
0,0625256201993015
0,0669701374872261
0,062688997529774
0,0623358311791746
0,0629897156051499
0,0671012592148763
0,0618366662545912
0,0626749883974632
0,0632674482225688
0,0655035868337322
0,0632710714047828
0,0666514951369402
0,0632025125990868
0,0656628166845253
0,0607494016915455
0,0666702581200677
0,0609481288950572
0,0652103163162565
0,0622561663209384
0,0612565585141128
0,0593226006672652
0,0627379255891171
0,0629023097364274
0,0655176210284502
0,0602910229644604
0,0653034607470047
0,0614132605335768
0,0632394957102892
0,0606105016721248
0,0620692414290302
0,0613946506301317
0,0626935926488642
0,0622586606601198
0,060225187875354
0,0583622390713193
0,0621815073625269
0,0579640704052431
0,0612149529074333
0,0587334463282808
0,0629420265161384
0,0597403226065516
0,0600349717509631
0,0579162819358593
0,0632072777038623
0,0573609974000224
0,0552045190221884
0,056787399076937
0,0616591446047953
0,0530410220069844
0,0570494592394319
0,0576035215001593
0,0592216636133749
0,0568915414070209
0,0593554493348128
0,0553149538431292
0,0574083283811719
0,0568643533193317
0,0574650396591461
0,0509622476263406
0,0552336329659192
0,0511970519257753
0,0545189290133948
0,0554668758779979
0,0562297194884862
0,0511534608375112
0,0553695129715698
0,0546113877445053
0,0537973490445486
0,0522158556900704
0,0557471160448127
0,0491646030628212
0,0520652248074068
0,0503557214593714
0,0558720278604519
0,0528043533296938
0,0513051496810833
0,0500844287377616
0,0539607367213079
0,0524189211706606
0,050436619314607
0,0452867703073912
0,0518889918214388
0,0543692805944426
0,0510049762759254
0,0482372175938233
0,0511392877519081
0,0497961767247273
0,0522739302787377
0,0495704026628173
0,0513652584929398
0,0467095426641043
0,0524760550821325
0,0462195918232022
0,0471530528504948
0,0495786026526293
0,0506379754103418
0,0469336229786543
0,047467590136133
0,0501033944716424
0,0472895881270038
0,0445950737050768
0,0479824302221016
0,0419231424426241
0,0470591888576417
0,0459677574723252
0,0505154683920894
0,044430705354247
0,0446235959126741
0,0426805157796964
0,0458914101667214
0,041928807339266
0,0434501588534914
0,0433519033079074
0,0442473486844052
0,0408538434765846
0,0438959872999097
0,0428915077202423
0,045220726692243
0,0399718555003273
0,0447085680483512
0,039645335233767
0,0412732164150876
0,0409613176527184
0,0396147357779303
0,0396223653663427
0,042979408181458
0,041221614312753
0,0414222331801782
0,0381648087889379
0,0428708871961206
0,0385248366903783
0,0406965570305416
0,0403084151067474
0,0423483751075713
0,0397572689513491
0,0432189115543174
0,0383956040808543
0,0387519007442746
0,0398419172091429
0,0416706971252739
0,0393082623324897
0,0401998933763704
0,0395892579001383
0,0403709294560892
0,036596177675494
0,0389485958924304
0,0374136107615513
0,0396599785952908
0,0379842929738976
0,0392959954059367
0,0391491207833932
0,0406677790586911
0,0378050280647829
0,0380089360356067
0,0358024997921037
0,0391136602411393
0,0392602086541183
0,0400495021824107
0,0352159249190307
0,0381529445303149
0,0394416960391712
0,0406617406222644
0,0360845781476828
0,0367694412827931
0,0346435205346538
0,0379388525927788
0,03666380858827
0,0351546696253848
0,0361242213379213
0,0373276319529121
0,0358828255454611
0,0378657389285596
0,0335377720340276
0,0369009233215564
0,0350751346591367
0,0328194939983966
0,0342911394589976
0,0381130763478168
0,0355462998553388
0,0351771692352826
0,0337565704180111
0,0365905452214059
0,0350143779977841
0,0348058971560782
0,034327652008824
0,0376535907503756
0,0322722821639346
0,0341073641413003
0,0327981745573298
0,0328665233512968
0,0345524606202443
0,034997976981509
0,0352671770524155
0,0344829190582764
0,0328636446716122
0,0339614604773767
0,0332940974851453
0,0364824702962205
0,0338548454550537
0,0323423305764635
0,0286144461137382
0,0335257314302075
0,0340707651407221
0,0345614604435158
0,0314684507700866
0,0329869866278055
0,0315327843845265
0,0364353579178586
0,0309927867489506
0,033843407852895
0,0341795437790189
0,0362260853010951
0,0327956175960226
0,0325032021029901
0,0311225789846743
0,0342625809757132
0,0311253360022696
0,0325582544889128
0,0303883681030951
0,0328037649697056
0,0334001176695243
0,0357198594027811
0,0302955852974635
0,0313573256908904
0,0300548778850096
0,03303813206965
0,0323950834557019
0,0308128891651784
0,0295203459475066
0,0318740705217643
0,0307514711550757
0,0321407720488146
0,0308695403262587
0,0303682670866105
0,0285120213395506
0,0304647524450268
0,0311439513077434
0,0308677965258738
0,0282437993024403
0,0282804216692059
0,027323240318116
0,0326344840437143
0,029705571454094
0,0303617249749464
0,0303117730339547
0,0301450691610175
0,0287231355863189
0,0291783722831032
0,0278177661001202
0,0317418448747729
0,0279062652322808
0,0297620753091035
0,0284690226990653
0,0302059916043513
0,0276469217705876
0,0302891117843339
0,0290785669522257
0,0283721391330798
0,031586629120858
0,0302254524266312
0,0269227755230099
0,0289609273575256
0,0275849009961359
0,029337635621184
0,0289394281120422
0,0299150839957978
0,0291255660172476
0,0304961751256805
0,0301577592293421
0,0273578741917575
0,0272999636166065
0,0292010899363383
0,02863563317724
0,0282769678036158
0,0263331702153447
0,0269197454194956
0,0296459245564808
0,0291263405699483
0,025481331264612
0,0276433288535096
0,0272558245283036
0,028395425968488
0,0260550003533611
0,0246235112274219
0,0256625108077469
0,0263963155873123
0,0259304196502527
0,02852264826553
0,0257442801149182
0,0278167731175059
0,0283993680342061
0,0292748341885685
0,0235790130288811
0,020813986010503
0,0232455999834421
0,0266914335537142
0,0245220130690431
0,0259115337888734
0,0258154058994764
0,0239751871498631
0,0256062331062724
0,027189845778956
0,0261588356267677
0,02598220588852
0,0237152527124344
0,0254430919447948
0,0249893770940189
0,026711478271417
0,0233557365644302
0,0245124297449421
0,0241342718119548
0,0238268317503616
0,0229511389132775
0,0253771122543623
0,0217780370856078
0,0241367108820769
0,0229990934040096
0,0251813639823937
0,0236064652585305
0,0256779048269578
0,0229490727826156
0,0226267990168223
0,0230315311927487
0,0244901915411204
0,0213817141680046
0,0223610921045837
0,0218514263575141
0,0245405356380822
0,0248384843717693
0,0246312295973766
0,0218997503742906
0,0239471908092073
0,0249282628217139
0,0224950611983391
0,0229213461560502
0,0240939041998007
0,0230521982122721
0,0212538903637474
0,0214855283154304
0,0249832537354032
0,0231103308748434
0,0238386646731382
0,0223788687957244
0,0237941628421554
0,0229966401280639
0,0221229578664154
0,021254712886692
0,0226368978260562
0,0197515966757963
0,0224382810172481
0,0209429623780785
0,0213099000584821
0,0199792442004199
0,0203131694546163
0,0210937861337873
0,0202632818583607
0,0207618575647727
0,0211146550874611
0,0208053858446882
0,0197543610942629
0,0205232288158182
0,0198160045015633
0,0200690290038185
0,0193726482327292
0,0204324365211922
0,0225516097266481
0,02032475825643
0,0220026829277255
0,0218487238119855
0,0194820165581396
0,0212151891107139
0,0206336208934894
0,018925991419698
0,0186816180363312
0,0195979535043783
0,0218340580562404
0,0198009748902421
0,0195791026079872
0,0204416880152052
0,0204350249658579
0,0196814636611482
0,0187012035917608
0,0212632172784652
0,0202583624566931
0,020449708724772
0,0218852860024393
0,0202302528861767
0,0171794946007556
0,0200873557555629
0,016444136651259
0,0218633731124252
0,0170905928462609
0,0176294756514092
0,0175597570255908
0,0225631865769652
0,0206031402070296
0,023377207725195
0,0214666741581742
0,0191480748806215
0,0120349384920139
0,0204777725215338
0,0226156523106832
0,0184823567258524
0,0131344580192375
0,0179924522780751
0,0147467731767809
0,0198471974378116
0,0207583819708794
0,0239240224539245
0,0130498431994561
0,0207090954974213
0,0189906789358189
0,0191136072001472
0,0191458963666643
0,0218689582639748
0,0203040503287143
0,0237184842059646
0,0142166334703004
0,0203691220610042
0,0120583063129039
0,0249941454165069
0,0112372587297025
0,0300685355122661
0,0106701321543947
0,0248063763255505
0,0113444830492592
0,0252248369858389
0,0123196173137564
0,0279825464102927
0,00521674158084642
0,0284940087084497
0,00191074172063534
0,0329635211198522
0,000926723806943545
0,0389070489857386
0,00479465231824235
0,0367303871091805
-0,00483128589617504
0,0401335344818624
0,000484899578574513
0,0471274556035708
-0,00531925892308607
0,0396752667687197
-0,00457038182619357
0,045801970132017
-3,57572186332351E-05
0,0347041525063576
0,00336108091426889
0,0350090137359447
0,011965045123487
0,0203260199404387
0,0230697706747093
0,013625378273361
0,0270131574743243
0,00491551025046494
0,0391158663494687
0,00456530270521237
0,0333287342972229
0,00511479213741224
0,0314521221656403
0,00888244613355271
0,0265623004191785
0,0141196908746055
0,0215760569413744
0,0181891667386554
0,0194913233193361
0,0174132359415743
0,0193194812076514
0,0155075539233664
0,0197679608441165
0,0149274495709481
0,0218441226886042
0,0148363124240682
0,0229774733384079
0,0164089585744483
0,0209286726936786
0,0140474811469523
0,0201024530994555
0,0138812410264284
0,0199450079921471
0,0169361041900075
0,0227319544707971
0,0166787900727523
0,0195526683994959
0,0161229453776782
0,020344624053382
0,0160157440141871
0,0163968460341603
0,0149428382828575
0,0202098999900417
0,0154059202879939
0,0187514124791984
0,0157199817761976
0,0191572565003119
0,0168400713687745
0,0194317971736403
0,0141233817983576
0,0192525867716434
0,0166230150289189
0,0193039596593772
0,0177695671842134
0,0201573697514424
0,0153577878865657
0,0203101987289805
0,0176139849736455
0,0187165948105544
0,0164398973770621
0,0198919090872859
0,0156596695680654
0,0191181720661734
0,0178616259482569
0,0217075454620734
0,0147700300815028
0,0199809110091234
0,0154923186304146
0,0176282562692335
0,0145252612778365
0,0200096570604468
0,0170569467459242
0,0202596524096064
0,0160966665514291
0,0195710027740257
0,016250111406323
0,019601167227318
0,0160886886207668
0,0193121547696912
0,0165568636333113
0,0192255391984523
0,0175737496518406
0,0193874783228644
0,0155535003765313
0,0201976554356302
0,0153560665859254
0,0173915987191394
0,0158459155808915
0,0187417859383233
0,0163963632025271
0,0188206874845607
0,0162323671594462
0,0207268872824552
0,0165101621071553
0,0178351118502218
0,0146084055252214
0,0203432007067576
0,0177107884207143
0,0184443479385128
0,0178830178317472
0,0200636031090711
0,0174465623310553
0,018707185694794
0,0165240297283471
0,0179279110868116
0,0171796465982353
0,0195669714880036
0,0161606760390079
0,0199220081459006
0,0168209689956622
0,0194820594357295
0,0190447395749094
0,0225321832149409
0,0163761239779303
0,0192291872190109
0,0174646410360205
0,0205482254372767
0,0172020262115035
0,0192060616515687
0,0169413494033017
0,0189095955792494
0,0179407480850573
0,0202851804070563
0,0171353058520857
0,0201036636597576
0,0181244522421498
0,0174035990144136
0,0173002144299468
0,0186463776202214
0,0159903386430711
0,0222598790232435
0,0182400727335936
0,0188463446356359
0,0176438822157464
0,0198254449957405
0,019529991196016
0,0196080371375847
0,0184910535496088
0,0194609845695015
0,018002902949099
0,020869838169911
0,0172340209331737
0,0196135058495586
0,0190561122316558
0,0191889918145805
0,0176224132788698
0,0205627400177898
0,0158548231517431
0,0187613389478471
0,0194426671551792
0,0198519716950568
0,015844065668517
0,0195063684440687
0,0176271731503024
0,0209080164014416
0,0181318192955662
0,0191650434145419
0,0183617368781855
0,0184177252129307
0,0175981890600628
0,0190907024664026
0,0162043396316801
0,0212391752965617
0,016681391257134
0,0210622570893951
0,0184457907678831
0,0204485544506119
0,0170820632338846
0,0207339742918268
0,0180906861285017
0,0193797287342263
0,0191449834928198
0,021348659301008
0,0169418779045161
0,0211347490075712
0,0189316797485258
0,0181744195964165
0,0190732109394167
0,0231793341609446
0,0190306838475108
0,0197218049340563
0,017370699995322
0,0196032141293175
0,0183110344220356
0,0206746604510429
0,0179555314417083
0,0195862898559363
0,0159733304865451
0,0214247449202964
0,0181692710083319
0,019463934722065
0,0170921189415731
0,0197758607836249
0,0195675397513642
0,0194984068287486
0,0187952057619468
0,0207045867809997
0,0169902330298805
0,0195619796101983
0,0176643747867187
0,0197797244542096
0,0205477499134867
0,0192900049722021
0,0168575740898986
0,0204608977814005
0,0178520991392959
0,0198262919747465
0,0171794784503562
0,0197032609342818
0,0179837353817879
0,0197005977258091
0,0183850069188068
0,0188560512363685
0,0173861325605368
0,0223006807546178
0,0187711123261496
0,0192912844861844
0,0161707010687597
0,0196612418755081
0,0169201865925027
0,0185825597973
0,0166472041244837
0,0206920878451862
0,0166539883427435
0,0188538108395273
0,0186133018898593
0,0169234424101067
0,0171956439953927
0,0190742055962834
0,0179335744987171
0,0205655771217471
0,0173022844901683
0,0215846319873851
0,0168050051640945
0,0169284620498788
0,0166557125409038
0,0201302647936766
0,0168345969854669
0,0192039364683661
0,020469276691112
0,0194131748147776
0,0152264319709589
0,0190446510366442
0,0174197409338093
0,0200399365451054
0,0163421861978576
0,018376831934537
0,015809196026639
0,0176649467418853
0,0178858507158014
0,0207140001184161
0,018078194046591
0,0179994549169313
0,0169449031026791
0,0200187976311315
0,0153385023289718
0,018350670688961
0,0159794091447661
0,0187267334465214
0,0178017019291886
0,018057816643766
0,0162722765441679
0,020684049320151
0,0174936570714444
0,0176478323425028
0,0164990000123835
0,0184775531066943
0,017151640461552
0,020579493057296
0,0181745295000981
0,0156748878103002
0,016426397909322
0,0183746516113279
0,0163517661517226
0,0181200304839971
0,0174045104606261
0,0181349185206987
0,0191642155799911
0,0185325719496453
0,0170193142394589
0,0181280249310253
0,0164357898423587
0,0164979531635407
0,0171562351951428
0,019091246238619
0,0150894824391907
0,0170911422446252
0,0168518294935527
0,0172654556121563
0,0165269379331132
0,0191188983128921
0,0174888950810718
0,0171558010617785
0,0153826863408393
0,0178581470713111
0,0179572831538177
0,0185763212540964
0,016297498793548
0,0176924262109635
0,0150360450829836
0,0193874943036046
0,0176579002623406
0,0187780483788973
0,0167897887797779
0,018007638020994
0,015464165605098
0,0183508071273406
0,0161198911789488
0,0172375270333016
0,0161790164393193
0,0179077044560374
0,0143738857470748
0,018422910418953
0,0142145735290806
0,0166664432143629
0,0149840017698111
0,0179151091269525
0,0154217142155794
0,0187737002461181
0,0158280150522404
0,0160019962644837
0,0151325544506792
0,0165125176465842
0,0154078785789893
0,0189034887997992
0,0137568160426707
0,0197118421395536
0,0140597232534339
0,0177430933239035
0,0149543598432521
0,016677931627454
0,0151968582810916
0,0187954067579794
0,0145879466235783
0,0173569114098527
0,0143940029998277
0,0162860013847994
0,012853994401177
0,0183085908679055
0,0139910012776918
0,0145486277977978
0,0159003920393109
0,0160803379960905
0,0143472653841193
0,0164501346799115
0,0129094374567
0,0171329585480664
0,0130916575250284
0,0161520731702386
0,0128871271783701
0,0173018819393946
0,010562279464594
0,0190761526598001
0,0162032870302222
0,0141081844662059
0,016465064969223
0,0155240330339379
0,0163588013150966
0,0150159414783482
0,0159393657316
0,014879185034972
0,016161690221428
0,0137497114471943
0,0142539193332439
0,0144128327151657
0,0128023567215564
0,0152627498203587
0,0146923342893175
0,014987477400833
0,0148925847134707
0,0154336962125192
0,0144660392246697
0,0146849710110131
0,0131012529423127
0,0152848902920963
0,0137205259304538
0,0137583866189279
0,0128927848635731
0,0120515411797024
0,0158536615377442
0,017987921213536
0,0138879971805275
0,0140830003993676
0,0149387826952634
0,0148548613346793
0,0136068767803067
0,0140249378836491
0,0155473081353672
0,0137325848864253
0,0133346361678355
0,0160099662544935
0,0156603454630373
0,0127242416275478
0,0137588422120148
0,0151757066749504
0,0167663198858425
0,0129906618692596
0,0125285905647431
0,0139548305094933
0,0149136625229626
0,0120328223130764
0,0144222120062246
0,0132530774799961
0,0151622070588369
0,013336734169525
0,0130606963891358
0,0178607677491647
0,0129672574679197
0,0179837868343654
0,0106177425204748
0,0165487456576185
0,0109422373613308
0,0156618571394367
0,0111547540269704
0,0155030152692116
0,0118887943360455
0,0152183181015468
0,0104161407608168
0,0156212877528078
0,0137433009506088
0,015028945216324
0,00989281228154185
0,0163780226683697
0,0117475531918569
0,0152772331913944
0,0108775501700412
0,0146281319253702
0,015699614240704
0,0168669597273794
0,014199583043819
0,0133448358746363
0,00676437578769395
0,028115948920292
0,00939285236351964
0,0184936482603858
0,0126848895911766
0,018188626121629
0,0108222236486596
0,0166966967430099
0,0104510338179896
0,0154709839732837
0,0143179325579118
0,0141605565644731
0,0127690830874117
0,0144910440104205
0,0130285514546969
0,0138701647785479
0,0115026719167326
0,0142248080346178
0,0125310723051769
0,013776438973695
0,0136485716078036
0,0151710449490645
0,00927605579315976
0,0150553816232232
0,010749018278528
0,0161235815326717
0,0128338837367922
0,0135351599195987
0,012816905381354
0,0185692798113295
0,00993173087876929
0,0114669634589572
0,0181838277731212
0,0125371698782178
0,0174962805875642
0,0127805356490724
0,016469815764031
0,00990194658843625
0,0121333719753718
0,0133252329663789
0,0107804309164928
0,0131243598519293
0,0149800054869274
0,0136803393272993
0,0152189969058329
0,0136460381089656
0,0120800631935715
0,0151532758618539
0,0132409698968646
0,0138256052401801
0,0116195259376305
0,0173340479009493
0,00939612790957495
0,0218710069288014
0,0142612458547118
0,0200600388107683
0,0140168997778388
0,0158660724978553
0,0127345320271635
0,0161380064156731
0,0127858831632386
0,0155596858131915
0,0154512641677945
0,0143047561707078
0,0121461299541574
0,0134960013393893
0,0143171627179952
0,0104339748751252
0,0138547380106001
0,0124819075699964
0,0147404637925316
0,0127278547272935
0,0153057308928765
0,0129598262898755
0,0182184858399052
0,00962139823577645
0,0196549077778724
0,00999569815383354
0,0210839068303717
-0,00102340932430388
0,029324623772339
0,014393521174821
0,0189303558439545
0,0185429304933582
0,0132842656210362
0,0160815397781323
0,0117651837856333
0,015145775352948
0,0150499434055173
0,0126622594738437
0,0123017394781515
0,0124536251748194
0,0139533124053862
0,0177114148231474
0,00892862429565045
0,0128811944479247
0,0259342501256509
0,0138295282109607
0,0193907804090607
0,00882794078814029
0,015888995934102
0,0279352607250949
0,0111454296853161
0,0207222705282633
0,0127121220660031
0,0171372978969264
0,010864304829559
0,0160176994886034
0,0117517689685742
0,0181148888636538
0,0121288709490871
0,0170212121392135
0,0133494804741396
0,0145479474140415
0,0180110715740124
0,0138274499615013
0,0165516238712062
0,0197723433610787
0,0120517932307715
0,0196132630283115
0,0133036985308908
0,0185568339294173
0,0157439255917951
0,0192628303027394
0,0117988751281043
0,0171315193443898
0,0150069964037061
0,0150519208886347
0,0204467023466265
0,0171774305477273
0,0131870922489095
0,0196060149477467
0,0141894964617098
0,0243273822239051
0,00245909194442722
0,0233912638889327
0,0210435382177201
0,0179763208090852
0,0238210239608101
0,0142773911380167
0,020011158353234
0,013671285506628
0,0200018927133051
0,00777934124289696
0,0308744157892994
0,0093041414504188
0,0261201669569587
0,00667037517635127
0,023420032894537
0,0138377821599713
0,019764005736167
0,0142630974078243
0,0174478105019149
0,0108198618124642
0,0268756260750026
0,0141815989809143
0,0112858960252137
0,0291320121610244
0,0142298512554485
0,0338264790947599
0,0170757113108076
0,0142629565709325
0,0297138393824137
0,0112708447276498
0,0227693210871615
0,0120178477752911
0,0252447867861748
0,00988954563016677
0,0167790860709224
0,0313466476366957
0,016099089721317
0,0178061599219056
0,0201294660614291
0,0148618903239765
0,0280083518869546
0,0168036327680446
0,0220677964339929
0,0170791153159959
0,0231332089865816
0,00136785333436974
0,0509054537267781
0,00698666815950524
0,0324204100322771
0,0195135709524771
0,0239555691232117
0,0224984920777329
0,0234910329629159
0,0190831239371055
0,0244255664251165
0,0243133165189922
0,025244488262654
0,0124629186640947
0,0270890900860819
0,026513219854812
0,0187883786934632
0,0291754857124774
0,0149448372884764
0,0132930350055317
0,0232906962700244
0,0380520403081386
0,0349554083688843
0,0272535413191531
0,0185002074592093
0,0352015942704483
0,0224151120806996
0,0283895160031125
0,022386304305128
0,0273063006376154
0,0266019041691948
0,0244244663717746
0,0331995763908398
0,0242062220332808
0,0315839421844261
0,0227551460777281
0,0262611645208585
0,0225669505488298
0,0391914347065311
0,0391226603684474
0,0217932100809262
0,0428667912779948
0,0252927526384165
0,04487777585622
0,0285806335227799
0,032158690537367
0,0311343117286372
0,0351256882846872
0,0348505673930147
0,028984803556573
0,0456788446203863
0,0293955144999623
0,0430240870385891
0,0428250191922723
0,0371284723150647
0,0368143529301195
0,010001251223485
0,15851158906023
0,0269302674736874
0,0629364285784623
0,0230236021658766
0,0588562823729656
0,0557838402088315
0,056244095568637
0,0506853117203832
0,0550338448195828
0,0468320792488244
0,0598962246370044
0,0541492411695391
0,0602522785063432
0,0607267111140387
0,0681351906780213
0,0471640929008939
0,0714987816651977
0,0642257919452465
0,0927019802818178
0,0726966018148753
0,0768862869422798
0,0776178992295107
0,0855049813435053
0,0754706660457157
0,0962450857845727
0,0682785745309359
0,0922889732763953
0,10136659871195
0,0989473587268006
0,091739283422078
0,0904670425618051
0,110137447697927
0,0827096547412776
0,137966370225204
0,0940061419522395
0,118253303040046
0,097141650702327
0,115342147945903
0,110747538268052
0,107058701033882
0,125132631372064
0,116188357910595
0,123434666261978
0,119993172780944
0,125589962254304
0,120878966338955
0,125084129956424
0,127441236451037
0,119151859778047
0,133479039367831
0,115649306586289
0,221381120152057
0,12987279678877
0,143644154223063
0,125287829939464
0,129995136184251
0,144826074613829
0,11017768490335
0,164132629748467
0,128660764196783
0,14103893793724
0,128338148281367
0,129829956504502
0,139251511003602
0,131486881971369
0,134550118094858
0,123026490737649
0,152687380167857
0,107964273740146
0,163356276643114
0,140006101599172
0,13332427805228
0,128815391311289
0,127847898181567
0,119564990874637
0,130002341618841
0,12134130601292
0,129717792217574
0,127375409753348
0,122791287511004
0,12926793546671
0,107937492260929
0,138605469565029
0,116790917826316
0,122967355847899
0,116440222550565
0,111363397001869
0,122803601020141
0,0955565466561139
0,117438399853011
0,126203435116087
0,10763226961855
0,117538954003895
0,102312252480232
0,109742419749746
0,103290010779444
0,107889727414616
0,107094562843287
0,106246424476731
0,099107750844926
0,104754990042757
0,0988931796364296
0,107310427948903
0,101037783901252
0,110555555158406
0,0972863090667312
0,10479011018697
0,0991827030140875
0,100078976023715
0,0998292510635886
0,0999873486792106
0,0981642256346363
0,103252997017996
0,101046530810095
0,103666536015385
0,0933791233473394
0,100999507787034
0,0930069284620443
0,106028698200548
0,0985227675630095
0,10032376836613
0,0968554646665095
0,0964733615205326
0,099927347141739
0,101044208417993
0,0927246645966866
0,100616145608747
0,0916752649247834
0,0996646199676109
0,091285080091024
0,100793522895882
0,092643999824501
0,0854887762394635
0,128160240653294
0,0887417358312483
0,10620305035697
0,0907806583229327
0,0982243294426902
0,0917418126374041
0,0789246129976399
0,11763785038195
0,0922130329541764
0,0947525042061265
0,0902623965063458
0,0887312554093394
0,0984027788250695
0,0901122736778811
0,0862863784206849
0,0948918942305838
0,0665171860243862
0,122559163898582
0,050188109615013
0,130874346272954
0,0969216875465752
0,100772806922453
0,069636815073928
0,0989976396692405
0,0928141264803075
0,0823752812850028
0,0848898668672436
0,0688245686942706
0,0953503304990987
0,0795798717766095
0,0842147129208447
0,0834456883667086
0,073526515647159
0,0828652893738531
0,0832261622397423
0,0741470277256159
0,0856681214369282
0,0819790511279755
0,0692108994601747
0,0882682833516484
0,0964984689367119
0,0852684372103491
0,0706351332663186
0,0778520320324748
0,0647236670242193
0,073716702817251
0,0834911566804881
0,0690206192895416
0,0809602488380436
0,0634354964192479
0,0728315792704967
0,0663693705720877
0,0766734079744138
0,0568970874514349
0,0655001159727625
0,086117173573897
0,0562702743032745
0,0801833033327181
0,0509969422769099
0,0857919624034891
0,0690086972403984
0,0728635088101311
0,0482364899702134
0,0800593142439323
0,0575984867030088
0,0664733548449704
0,0690249890989011
0,0542412025357535
0,0612401131950773
0,0687672203829913
0,0527389261776783
0,0682657402319013
0,0566325009620748
0,0660944667359932
0,0532359762407482
0,0637977615665101
0,0757453614049447
0,0590894244801356
0,0550914049124669
0,0573643110159231
0,0557200788182497
0,0633890644275085
0,0383355629055064
0,0827685466065877
0,0448201652730831
0,0639451157197741
0,0636524095400707
0,0597207632345426
0,0594956031152606
0,0596991771838761
0,0535097494795238
0,0605493871823901
0,0590762672517195
0,0833343560676457
0,0546227946587343
0,0732368083751256
0,0622929997460118
0,0709198013165075
0,0663840790170885
0,0662837294408563
0,0694134727296942
0,0691439765228355
0,071360491637084
0,0728132165656818
0,0702319802574245
0,0819783575644644
0,0657913608957758
0,0961987193245203
0,0834040092528587
0,0751745674024942
0,0957614136936868
0,0785982222548932
0,113699613630321
0,0844212288750947
0,0963386451009343
0,0885338641481048
0,089247762987902
0,0998187518683231
0,0864758416814068
0,100963038670106
0,103120986798644
0,100987263833571
0,105909501884092
0,101957783671926
0,109185532793285
0,0973638412824636
0,122969512716766
0,0910830468204807
0,152118350238138
0,106378016041142
0,120469152390558
0,111816877022104
0,110510301385302
0,112679531380715
0,11076817667662
0,117000964243254
0,107411092818891
0,115165077099758
0,122914870124357
0,113421165365718
0,118951812388893
0,114900180386613
0,117751539216042
0,116572438065204
0,113772061432754
0,120762999862743
0,115647884349647
0,126248723943178
0,114372532325955
0,116153244085703
0,145295096439513
0,120481312640764
0,135586089470227
0,12064568586355
0,132573869635702
0,125862155269701
0,129250730343433
0,134609460521327
0,130930948078193
0,1348110866491
0,13193847444821
0,134529376158827
0,131767676706492
0,134737899553905
0,142674441478773
0,1311326179579
0,151623858107093
0,120112042371696
0,172747263610217
0,135543389078508
0,151318460466873
0,142392679025013
0,144522217205708
0,14100695236412
0,144783109619688
0,142033353444127
0,139997232483858
0,141370913454681
0,142230763723129
0,143816202346723
0,141274048281183
0,148542972096413
0,139564443229561
0,139140256258319
0,147343724800007
0,14400839307362
0,145291454534074
0,13828582305721
0,143872053905418
0,134382268759599
0,153182732086579
0,141160708649941
0,144985988592509
0,135211569186752
0,138438644576818
0,146628607054419
0,14377788051977
0,138765265632201
0,141377590510998
0,135878282997749
0,146158537455129
0,133413095354342
0,146109485710087
0,138653058453971
0,143757856066819
0,140439487203714
0,143508930740229
0,141095300625622
0,14306160069013
0,143296443716177
0,146943060514905
0,148073802789569
0,146790888265748
0,147581025308985
0,143738442608717
0,145289272599405
0,143378562655884
0,152147158012528
0,149277992730975
0,140751514097611
0,144977778555803
0,139606782338551
0,142195995200363
0,138553420679984
0,138756112943747
0,134825319624399
0,139707621486708
0,128979816507129
0,133705213807361
0,136399324858893
0,128138364519694
0,13974751005869
0,1228029897607
0,130169319579871
0,122897481345343
0,129465512204708
0,122055651846519
0,126378582096535
0,122409289944798
0,122727320842321
0,121162786296878
0,123154123322579
0,118977091341955
0,120737568656404
0,12087349239738
0,119318872698278
0,11901275155792
0,116046542958943
0,118453884518091
0,117509116518861
0,116100667901034
0,119990432201575
0,116280412560087
0,121466706388062
0,116574475961
0,124067573499636
0,112456378718903
0,120948978250676
0,117553007026749
0,119598589654539
0,113272090774678
0,117897343508183
0,115581663214317
0,114654870357987
0,117929696719701
0,116366875869688
0,114161971819427
0,115829692291815
0,116964568923582
0,116182838947881
0,115725857280452
0,115691505740679
0,11602661385553
0,11590702873142
0,119995439046046
0,114069158745678
0,117063634263171
0,11071682187965
0,120114528819842
0,116803765495056
0,117166929104267
0,116865022330825
0,117178157760461
0,120063049603479
0,114424232679314
0,112645071958257
0,115779358035246
0,115358065439935
0,116077721079793
0,113181078286192
0,113575239885449
0,115846577012147
0,11356990586159
0,113322455067347
0,113025487053037
0,114112344430846
0,109634978946059
0,108247325188266
0,1058927719418
0,106478532282607
0,106201831339641
0,102953531327018
0,103515263941585
0,101753986390608
0,103173467695912
0,101293698547632
0,102053007776955
0,102377780119135
0,101745825524105
0,0997075381698996
0,100120078951081
0,0987239087084859
0,0991120973364867
0,0990848789550671
0,0996153909235842
0,0981506272631856
0,0979091083166949
0,0998460998693743
0,0986652986687847
0,0975930385557521
0,0993117668349317
0,0992983938697999
0,0971143185798152
0,0986210414152813
0,102510814117482
0,0997605447570634
0,0994754567039201
0,100826977029971
0,102661954761295
0,102544497185779
0,10107946646405
0,102185780296245
0,102395676452098
0,103725601289525
0,10360160359311
0,103913227270971
0,103648719717015
0,105064316107584
0,103496862809323
0,107889423494361
0,102808388786742
0,10647952294403
0,104995348904417
0,107006846388419
0,104088226606626
0,105042721693001
0,104034524259636
0,10473612321828
0,102513268196329
0,104225264113162
0,104035998051438
0,103728892978089
0,100645749957624
0,102578505779707
0,101745080528167
0,101535505402248
0,101257359341203
0,101482727170274
0,101335445571539
0,0996329997752897
0,0994884591910771
0,0994232739097773
0,0996437525312164
0,0988298962439002
0,0981562887727437
0,0979811230355604
0,0979083027366595
0,0988461735047432
0,0979168050733082
0,0956880329768741
0,0949381455541431
0,0963105922958323
0,0952615214736799
0,0943961968266867
0,0944052013240253
0,0955246263991156
0,0950314704400749
0,0936403981726399
0,0927533294238865
0,0927451055677539
0,095790674707965
0,0927569597515013
0,0915566438434946
0,092168432756717
0,090885219226515
0,0905254400372131
0,0880700882023996
0,0877505273333567
0,0884916303742659
0,0881830969201414
0,0865794769448069
0,0867446006620799
0,0850246451385875
0,0870820512689496
0,0854190829431675
0,0846621323125144
0,0840289850749089
0,0846340683342705
0,0848295441771195
0,0842435818312742
0,0830953476205942
0,0827233248786824
0,0822246074122798
0,0822040286970737
0,0838213892380117
0,0812511690587003
0,0817994064805688
0,0806910994286952
0,0788706091573607
0,0806724805804997
0,0804637290709462
0,0783173808164803
0,0780768935049667
0,0772809533393843
0,0773362791605693
0,0768238555739012
0,0745512670799229
0,0758595131775418
0,075980330313606
0,0757988069699117
0,079611658949053
0,077525574092313
0,0797077818646953
0,0831665911354568
0,0839762011283092
0,086146403725861
0,0873169706030536
0,0958739278553571
0,0967354029410802
0,100987682076155
0,106062123927308
0,11225226140865
0,115996901826076
0,119568726215243
0,125045524420056
0,129816049074631
0,135516435432592
0,141453095446343
0,146983640251843
0,151227510104827
0,157552321154914
0,16291904244807
0,166000851850004
0,170881067667408
0,174640275263733
0,178493338327397
0,181540564242031
0,185938936910021
0,187181433414938
0,189537734560065
0,195403111179921
0,195293326892508
0,19797142699677
0,201013841290135
0,199849609665912
0,202630645978337
0,200931144944961
0,202250561711845
0,202444285995383
0,202070854607001
0,201830730802971
0,201084566861659
0,200606924424666
0,199622912748684
0,197069814321303
0,197632660521364
0,198010123534678
0,200713062316054
0,202553688635168
0,204450049467399
0,20587875164593
0,208150782606814
0,207396459412167
0,210657091589773
0,212953760441301
0,218020006570607
0,217762196482479
0,219910575636161
0,221620396071429
0,228141175586261
0,230640469526996
0,234137974998445
0,235101674776512
0,239660236994964
0,244366242125151
0,24937563475041
0,252352321267848
0,252929468176929
0,257436870640591
0,259030497952333
0,261443130371319
0,265935410839673
0,267124542978599
0,269038145779164
0,268518747613138
0,26892814999929
0,268724023566676
0,266778631011753
0,264911774242034
0,263233622862865
0,262815387106663
0,264270328623794
0,260370657577065
0,263628221465882
0,263429913310786
0,266019029539662
0,267019149709804
0,27252294584726
0,275761434659301
0,280709025364636
0,284800001529605
0,292507781177802
0,2957712238741
0,301273547491561
0,309668618655936
0,31222058501102
0,315817334345596
0,319605282020205
0,324301203562804
0,331719837449318
0,338832736707024
0,343028364884606
0,346841663501196
0,356323263516973
0,364793095202137
0,36646691752492
0,373670496564953
0,376792249683087
0,387547192696278
0,396100725534237
0,401729270666201
0,41077481535603
0,415019496432961
0,417718028156464
0,423742562736365
0,433774730063663
0,434861763262368
0,434531229133534
0,438107814426381
0,441535512591972
0,445108532863943
0,445157033056591
0,444668917709319
0,446713760102491
0,442972503600709
0,44091404777531
0,443014675837851
0,434678357824066
0,432938682341527
0,427895342263195
0,418610098829486
0,41999762278047
0,415938200231141
0,416062879117985
0,408277552316879
0,408067485528068
0,406226165823822
0,405273563819572
0,404345812878476
0,406294801684987
0,410808431379205
0,415438608345595
0,41882262481231
0,417454397127694
0,424926847640271
0,426917770784064
0,428253274967728
0,429510493672813
0,441529015838319
0,435938377337658
0,433689276400679
0,44027499057768
0,438235816709577
0,442199007513521
0,438967316004431
0,436111300976521
0,439036176333828
0,434632592740391
0,431951768139347
0,4260218192012
0,428722023571888
0,425332833116662
0,422587335841655
0,421412679254301
0,416573633453273
0,419736268900351
0,414781088042453
0,417785557276744
0,409404299540113
0,40911888887431
0,405491345461248
0,400550927236686
0,397064399708135
0,390535383049752
0,390071461110275
0,38167957591406
0,372451889670181
0,363416941607982
0,362049131092341
0,354672867160193
0,343505636676413
0,332908713392056
0,325875581084577
0,318381479219317
0,305128918561551
0,295370218488178
0,282608767104887
0,270318990579724
0,258936182503911
0,244321917850067
0,232259607203698
0,222152289704739
0,214619028776539
0,208360968808447
0,204052739614802
0,196340478392429
0,194247268951107
0,189615770239085
0,193230842247471
0,190214533669942
0,184815796992281
0,185970609096596
0,183547983390265
0,183284523191162
0,180426491770433
0,179297893411904
0,177943066332524
0,170776417710874
0,170041973082767
0,169032454999057
0,164901886330567
0,162087605844362
0,159362367050304
0,15657693305858
0,152686227295399
0,146350473058701
0,142889466317018
0,138385661967428
0,133394226986145
0,124167712266635
0,12306892241299
0,115871000842441
0,110581970739158
0,105783685745709
0,0987094818771744
0,0952276901326382
0,0920428497006619
0,0886261358038589
0,0835392969840441
0,0788452108715422
0,0751594848225838
0,0742676414188508
0,0697429923780769
0,0687327862258582
0,0678574310656278
0,0620598079927487
0,0613140891196344
0,058393357263189
0,0601594507519048
0,0563126243098818
0,059462725970503
0,0572858154754728
0,0575026940524661
0,0560269444381981
0,0588668850401473
0,0576274009298228
0,0603325835473346
0,0602511019086745
0,0534472613277429
0,0603528795567992
0,059167894758924
0,0609246303007344
0,0610082979826305
0,0605570498264594
0,0596637074344082
0,060806064052938
0,0595312811860821
0,0592156497352248
0,0618148888494661
0,0595784657973841
0,0604361324492433
0,0606284853945538
0,0581131249813571
0,0591055777218835
0,0560892163206872
0,0622912759232284
0,0588766505619048
0,0591123028969779
0,0568445695932907
0,0544533832915125
0,0587586588189184
0,0579711295549456
0,0595077826414863
0,0569305012127683
0,0589796734737473
0,0592230849837773
0,0631981304718478
0,0636663999649343
0,0629448212755403
0,0592652471256572
0,0617707799148571
0,0643850836593697
0,0678391856392572
0,066138927761127
0,0630192309266069
0,0674801571802441
0,0634305197150663
0,0672337222088622
0,0671322775528934
0,0679792972392036
0,0659740878289482
0,0662235214117151
0,0712577302796951
0,0673406887283821
0,0719774025157063
0,0703906114768989
0,0724348944331188
0,0686458312915244
0,0682908433232975
0,0705524444448645
0,0734389959040707
0,0724605916856537
0,0752042862798718
0,0815266449762197
0,0802481140415918
0,0831084147389961
0,0869745911236719
0,0895508682143152
0,0925029362765265
0,0943222365953731
0,0956155125561508
0,10126666578738
0,101224732493188
0,0964353997844247
0,100866580375198
0,0966646265042287
0,094311436203351
0,0915071588634059
0,092661120730131
0,0897531906195556
0,0885353729506853
0,091481004468422
0,0889943529864829
0,0890253862565828
0,0841188828728012
0,084398212130708
0,0857910214605223
0,0875493443662898
0,087295533009453
0,0891584541357198
0,0881896422232655
0,0771102539424589
0,0818266374654851
0,0849691822786062
0,0850901242762862
0,0810592906167352
0,0835995401195869
0,0817912106585493
0,0783443911301222
0,0822429719870679
0,0769368287077369
0,0756620043004242
0,0812141138481155
0,0765048333076732
0,0772105920504629
0,0769301213249989
0,0791007439297913
0,0787272164738456
0,0808079023344631
0,0699012207911236
0,0752897354831847
0,0821055169909897
0,073884266202137
0,0730415209020844
0,0776813722137202
0,0704959501882542
0,0753013583604819
0,0719362204501018
0,0728341656609036
0,0687974583479555
0,0701045365679508
0,0688143922773733
0,0695305372576281
0,061065201887453
0,0674521821828409
0,0682280937927737
0,071253038693208
0,0648675255592478
0,0715275842840629
0,0647974582163564
0,0683062974880392
0,0694537239456809
0,07022242603555
0,0647806981026265
0,0646960310120087
0,0683212456080035
0,0745347429467852
0,0653170005955222
0,0724436180839367
0,0671821613064796
0,0635604551819846
0,0663237194882004
0,0630421166992621
0,0685599398680847
0,075305580518863
0,0655582744098507
0,0712468247094164
0,058290467026216
0,0660813547229354
0,0735096292080802
0,0644571661206215
0,0750977613321494
0,0710269692048644
0,0720388516064575
0,0749900640136276
0,0659054448639474
0,0744761151315289
0,0709712044377061
0,0773137008492131
0,0681311117399658
0,0804218738332298
0,0747596415279339
0,0740405436400491
0,0747967810017033
0,0715447810082416
0,0784274344316504
0,0801355168756087
0,0793271802560125
0,0874180979121178
0,0818933179492078
0,0864234742904195
0,0850715954370284
0,0962165482833406
0,0908714762578937
0,0893975056364076
0,0865226163962884
0,095807962639566
0,101000721682266
0,102153731942185
0,107319821417485
0,115110895755032
0,110952604971197
0,113433838276832
0,125367059902463
0,119367095813223
0,126008856523417
0,121655119470011
0,124980167283816
0,124670682507888
0,125777947268923
0,135344443276325
0,120989485250854
0,125084335388644
0,136575121925634
0,120789558477235
0,129417029320895
0,123337318185397
0,122250737063273
0,124847555417474
0,111266736249564
0,114747407409076
0,119307646469231
0,110436739266531
0,120817051975642
0,1283622229011
0,10235779642674
0,118930414467026
0,126584595379203
0,115954142339915
0,107724137550181
0,116247411406819
0,103240496657092
0,116903956893253
0,105014377017174
0,124915370282718
0,112306588822001
0,100559004153548
0,100692019564408
0,114456187531796
0,102597521649998
0,111209523855403
0,0991678913147755
0,107531927882988
0,0933660584428577
0,111454788675953
0,0969826622298841
0,110407026580543
0,0982204748242137
0,106038418617989
0,124492520159451
0,111880961253559
0,107522228315947
0,098232551908952
0,1070177320803
0,12996763146276
0,113365393862947
0,103655740873775
0,109690163588575
0,113108878526484
0,120966529369284
0,108433569187434
0,10867951535607
0,124914364997991
0,109824857699111
0,0975761716187321
0,121738313250225
0,115226976122367
0,100923840930931
0,10618718476502
0,106616091390922
0,125158625473281
0,124469221347845
0,142535681846805
0,130776259574618
0,11839935594499
0,127897722516818
0,107795038697434
0,101756391896817
0,14023252000708
0,142946847596787
0,132205659241139
0,126285228855053
0,144416937391299
0,114066708173094
0,144806354675558
0,153854367538755
0,177083375857005
0,149121097074074
0,120665376554226
0,154865668334635
0,149509316507782
0,140936885846758
0,135863829328488
0,159745699586551
0,147362138632944
0,147735118618098
0,172144614579717
0,142811034157556
0,167685252372105
0,175610787214032
0,169418344829487
0,140443637190123
0,155203784521324
0,145915614874548
0,15891876236107
0,149551784168735
0,184176751546233
0,165312903104475
0,136940086848752
0,13714618022453
0,130431219650928
0,153411516253781
0,150033649392144
0,135762634589936
0,145461830514535
0,0897777052992526
0,185262587356396
0,146931958027662
0,15996736174006
0,184076598538426
0,198355716833954
0,131262190568528
0,148841649609922
0,0915800547188275
0,147582495786614
0,165843169688872
0,155286768631128
0,184413902157962
0,153333526188678
0,145560636883759
0,156789812188035
0,133790282940849
0,171482030994746
0,151941454527028
0,0957776814987795
0,0405355350586464
0,159064541214213
0,187452959435268
0,144073909151334
0,183201587037445
0,207021141347829
0,124754855003758
0,207702418004731
0,125500710047587
0,161547394602381
0,216889006655134
0,156783067280453
0,102811195946409
0,170839370545291
0,133364725446561
0,246006426572724
0,193387227829417
0,11181197219359
0,213600263178637
0,17501131359297
