3596
4000,36533379555
650,420452594757
1
2
2
0,0895589872887993
0,0915503213640672
0,0879415188406228
0,0901335315739071
0,0941310623595334
0,0916582681269277
0,0971724268215586
0,0867638850728674
0,0945112359855157
0,0850118545148991
0,0911092327953418
0,08610687574461
0,0931323312654127
0,0910327936591161
0,089944555532807
0,0910701446246121
0,0910104344813497
0,0809302578199415
0,0908030311559612
0,0894596109309404
0,0884970309350604
0,0833373735478516
0,0909519579865487
0,0894744460865608
0,102706720297037
0,10234875883892
0,091393302054148
0,0930849138825904
0,0941054444346876
0,0879990050180141
0,0906515880575733
0,0883981137907983
0,0976506036730542
0,0918268398216781
0,0874874633488857
0,0900209885412227
0,0914127691422242
0,0889921404999876
0,0897049797645272
0,0980975357727609
0,0995806212470065
0,0817793308938037
0,0938643189981362
0,088429797246488
0,0955401390002045
0,090654107301889
0,0865355122244666
0,0932881142890332
0,0944256160128649
0,0940928013772467
0,0940786418272933
0,0866744552954023
0,107465670604088
0,103918511642182
0,106178336903047
0,112083750151548
0,0973883910122074
0,0805133229092155
0,0884102328581015
0,0981126353743064
0,122199792680489
0,110659293973439
0,0857788721592498
0,0864095802509514
0,0834083512336842
0,0846682796087667
0,0908420903462462
0,0881371365685023
0,0842329179091231
0,0909290310494181
0,0954317863850471
0,109992400981586
0,101954398156167
0,0921371712939189
0,101517423256611
0,0940606770494588
0,0839867089809038
0,0851742873567858
0,0878453437397132
0,108888315704452
0,114641919899095
0,100886687387406
0,084090728593436
0,0784842184480778
0,102216428421339
0,111230726469815
0,0867815225042044
0,10441375303587
0,122215606093118
0,0972816520553655
0,0872295344950989
0,0907816621646657
0,0839883567763919
0,0748638383785184
0,0833224246989631
0,0840700912889727
0,0850905456242014
0,0843605739966044
0,0836728316436605
0,101401193258486
0,105015225739138
0,129187481624481
0,141667694002309
0,10561032078317
0,152915681209601
0,105855528254894
0,101035076614159
0,149716981023417
0,112304538503445
0,0894893496320033
0,0830629309049544
0,0906552746902096
0,0964437458382268
0,105125286365521
0,0842619888649726
0,127080183959694
0,127547465346405
0,0877174459058399
0,0830004718059153
0,0903311819478034
0,0751509506914596
0,137094969512317
0,137893143643406
0,100033374305301
0,106923229158738
0,0887436297576118
0,10263829583842
0,145021440156925
0,113948348877585
0,0901036287644355
0,0853616459997437
0,0884369286800133
0,0753397909642149
0,108036102424626
0,13199090333966
0,0988309409006587
0,0942969571319947
0,0987657078580381
0,147048663520163
0,167820206923526
0,111997276582865
0,084599792137853
0,0729756942194886
0,101981241712282
0,139817471142452
0,103012146551618
0,0935842284873065
0,122326718913019
0,0953500936240212
0,0885226760621719
0,0895193234163552
0,0918598795582018
0,119354380266972
0,0977861364702375
0,0770069522546096
0,167371533404378
0,167899856432329
0,144900492742594
0,153218212111248
0,101044286438741
0,105102974955083
0,0899875647334202
0,080180880248907
0,0834036487407231
0,0954436364017094
0,0726979718864776
0,110209070427677
0,114087917769817
0,0922993048580353
0,109085807624784
0,142936892371235
0,120532810920498
0,116857019678196
0,168936251149571
0,104715296193946
0,0935825825202876
0,132173521419711
0,104415667578926
0,0770060419431274
0,111052732610089
0,114371953619
0,0810645021267356
0,0820188772335807
0,0790376157841058
0,102572688182098
0,111214305877017
0,0913781959255293
0,0994773697680285
0,0966041613721304
0,0907655199266203
0,123765179871409
0,167754687884835
0,123135337890112
0,10248775360292
0,0888023405771419
0,0849335580807438
0,144689184808016
0,130266298203972
0,0881954103688163
0,0747668961208343
0,0734979287569998
0,0763630610552069
0,0771614431873706
0,0823913265718066
0,0753056379078686
0,0804885707444738
0,125201827883625
0,107868308563811
0,0828860969885688
0,0884626223234579
0,0970241067949188
0,102566934327194
0,17442080059023
0,121648642826615
0,0937741147887862
0,090543604106848
0,0897947569031497
0,104360987786473
0,0978034964990221
0,084969657501898
0,0795091486658665
0,0749833074105989
0,0834288210541603
0,0778287863915712
0,0754728278198219
0,0830928144865346
0,0803584971441293
0,0858700801947238
0,0846887292169337
0,0951247056066955
0,0996637178750559
0,0839087927246394
0,0877270999079007
0,0875708096010429
0,0736119787615589
0,107704587887352
0,111838427927858
0,092186796146587
0,0793479608600632
0,0854211179253605
0,0801889275412025
0,0799573130490713
0,0802533265345789
0,0850252739948221
0,0835308681269654
0,095859677439309
0,135443520391857
0,099453700999145
0,0858185918906015
0,0730347318080741
0,127646376806648
0,0995607949029933
0,0809150699551249
0,0879914166889301
0,0937983306259414
0,072991682229594
0,0927287840954602
0,133123648847647
0,0962823022575172
0,0825287235961727
0,113221156764766
0,0932917356723863
0,0944861630052369
0,0939836500140234
0,0994382723064859
0,197792102228031
0,120289463431722
0,126253564779805
0,162545231424221
0,104906045223442
0,11277521737246
0,0933819005938148
0,0989135481069139
0,25092176308727
0,144670306779049
0,0910749968013956
0,102593889630686
0,124978778408385
0,0861203074309809
0,106563534625929
0,101414383342481
0,120774929129564
0,13391528539055
0,195226172925617
0,161161984474896
0,0942768113742763
0,14790520095442
0,131717429269722
0,0968384126323521
0,085999839289619
0,0842948730686557
0,0892433909268477
0,119910588122482
0,110740106649507
0,13060224039141
0,0939068191411679
0,109732609491633
0,134507899750995
0,106344920658447
0,0832037391128828
0,104491873264497
0,106064951473857
0,0885541768516427
0,0869270252677952
0,0833163747937928
0,102292865599033
0,0852165266281809
0,113830046211271
0,176193776035638
0,110659753472441
0,113248741751868
0,133513910474328
0,0910979885362393
0,0864763967647054
0,0844752050837601
0,0897008215161334
0,0877449097954514
0,0851396888377496
0,088821874100552
0,124721439136949
0,0898112104137666
0,0895816871562075
0,0869245828044685
0,0791811206896283
0,0879711610368228
0,0935633075795297
0,0859935530957171
0,0970973653980247
0,0901568856266972
0,0839983538453304
0,142478701825973
0,132270609412132
0,0815624841044575
0,173909481344896
0,126272569614707
0,10466830937799
0,0824406158212061
0,0944549145283873
0,0887852279802389
0,0914412884580722
0,0956832025074801
0,0848505691798865
0,097802679845448
0,122686135945667
0,110330151981047
0,110106675539338
0,127408139707945
0,205808205515369
0,193889123322782
0,122551484194184
0,109877474893391
0,0851419510557118
0,168985992620265
0,140928462171199
0,157050448678773
0,132853616635867
0,101096610842607
0,112510018622127
0,0953641173717492
0,110148260723468
0,0974616688415003
0,11581443484984
0,103596023435583
0,119581548727821
0,103222636740087
0,118235882414875
0,0986300746561319
0,144570203999285
0,17543238914036
0,13334455380647
0,118185945895019
0,131115338477774
0,104739210099964
0,190698041665645
0,157360079228243
0,228476105497545
0,164232849007026
0,220013371496744
0,189815452018491
0,135786512163949
0,136128799621816
0,125420854855373
0,14049754898942
0,138459315603507
0,128480399331739
0,135694492133336
0,13507333726441
0,144335375282147
0,137191716093968
0,140517937157313
0,13756791062267
0,153212023261107
0,174890113587753
0,146520136249984
0,156230648835933
0,155438321073914
0,204177384354987
0,249052797125647
0,221068138273739
0,161165272622348
0,178531873563122
0,161714888671536
0,156508791051327
0,163834512721923
0,172750081354604
0,17932151003252
0,187389380745263
0,225993722783675
0,204487103133545
0,217815605234632
0,181756276774176
0,171828638491813
0,223190621974306
0,203282968758484
0,216708638502893
0,223674996087591
0,192125938667506
0,178317894055404
0,24004958928747
0,19751871883165
0,224630809121516
0,23348247984048
0,186384775636731
0,200036008499788
0,188962666711839
0,228749801392124
0,203976155886103
0,239477032600385
0,207656923282004
0,22665056593152
0,211964331981865
0,225469990327746
0,209553030413354
0,258742786748955
0,233564695613106
0,24595625172427
0,236946438735057
0,235955815973498
0,228269041483343
0,228851181573125
0,288675776086838
0,269181132491668
0,29450207000399
0,27637649757232
0,246211758596385
0,257829410785345
0,244317968464487
0,248698030488466
0,243611047879677
0,271210144442589
0,261966854366996
0,253198992403146
0,260419674102424
0,27583522508364
0,260530411668655
0,276070862741089
0,278820455936334
0,275787132862903
0,264492361478889
0,283580536497105
0,288316206356189
0,285096293715853
0,336824145308284
0,335594945912531
0,350770912774483
0,366687329566809
0,298899983549188
0,319528865621868
0,31112924656158
0,319354267697549
0,302208828789183
0,331008660975028
0,30246051501407
0,336713298995156
0,306359432868678
0,339595737251832
0,309802433929114
0,352744892675978
0,324744336830913
0,371562297254451
0,341569727592404
0,351604045888513
0,328505725266076
0,360367014440087
0,356001216867897
0,394443542229969
0,367891404808647
0,397102398685155
0,370866849300792
0,390160890432057
0,363027947679817
0,402057617326907
0,367751670036997
0,388720533620116
0,378021704956392
0,385350322455015
0,386664654042392
0,426770680421081
0,403554141962199
0,413697123736207
0,391824536335312
0,419310194065528
0,402295281176757
0,420812921408124
0,437068827877463
0,44446045261246
0,427206417423289
0,44436882839837
0,42631701262995
0,445875954200219
0,441805709887963
0,468376151574451
0,455681036332782
0,48426868024866
0,458946872034844
0,468388046163188
0,450296640549146
0,499876076779766
0,436540944295949
0,494298217715439
0,453232045117272
0,480230268553347
0,472076017351837
0,520204625573312
0,472971964788769
0,505298052516661
0,510174324228236
0,520654082928948
0,488342265908437
0,52652312385448
0,498607338130959
0,525631460460044
0,522501815592042
0,538927824075576
0,546395905514889
0,543103015646192
0,514887977002109
0,544487232991768
0,523711312869717
0,587950295006804
0,564367897037014
0,596878548254662
0,566578820790673
0,574939820210673
0,544795513648852
0,605485759728976
0,582056249065384
0,616609413657608
0,567096152015549
0,591437415864723
0,585856880028649
0,599769444082488
0,591495787975948
0,593303552629576
0,589658781840866
0,653069818562875
0,611143445188072
0,638046465393204
0,613633590136137
0,643878027221219
0,609414922499174
0,62211140512142
0,603768828011132
0,679510770564899
0,612035688996726
0,693049618688566
0,61405926323935
0,648421910514229
0,629990476640776
0,681459116578967
0,632426421503934
0,71019164604767
0,666330171559859
0,716233692349723
0,690821777621887
0,717003753032267
0,667990308952248
0,712397716640024
0,665397432869994
0,739915649992515
0,698516014844181
0,739663491701331
0,7028255106121
0,753088254803576
0,70676704770326
0,766303205376787
0,716695517741477
0,744843295693388
0,713175679273097
0,768599898232332
0,742010408259084
0,744165185530074
0,76108606884552
0,816145094919774
0,732966960796347
0,804660123980933
0,732265076353022
0,825552396723921
0,735388232931065
0,780513779552914
0,772363965473383
0,77052129037045
0,737231911587661
0,827452532267768
0,759729507301809
0,811179543074064
0,781588146299475
0,891706590950521
0,84352474392481
0,80520849613958
0,785144676287276
0,886284888285499
0,781491916085821
0,883410108463043
0,814986318459165
0,870019689072354
0,804906453761821
0,858158519084708
0,804386969453848
0,870329505747039
0,805402269675314
0,895115575894088
0,83315442262479
0,871139818712647
0,791189157614057
0,892464455565666
0,856570001015587
0,868628111928199
0,828700773198946
0,923562838887285
0,823046118627873
0,964886932775932
0,850806014201542
0,903671613216525
0,891216236320618
0,918692286177869
0,877522554564848
0,929216711565566
0,879264673580389
0,914529446941742
0,828873632232767
0,923432274420237
0,872292821109337
0,918383728050417
0,86749237509369
0,946617423516796
0,912332819807643
0,939238445811531
0,885877967366145
0,941888463848728
0,893379272745054
0,93287852710082
0,895482483439218
0,997325210871874
0,917785681056469
0,927855857896976
0,896563951668479
0,97693761519087
0,953435851979711
1,00842993153618
0,976755498437421
0,953663858160158
0,926718297493909
0,966742831597654
0,997247845714188
0,967806846107927
0,971026482736622
1,01742298772126
0,947634369866485
1,02714772644622
0,975720211661664
1,01651539318899
0,96139606351409
0,980314785541931
0,927623280963208
0,975323757725182
0,97800571940025
0,936263818561112
0,929291248837006
1,0079803382672
0,986389234165325
1,02553243516057
0,98913778779906
1,0237925581977
0,97358405209853
1,03231592421797
0,957932681271701
1,0282083551256
0,98225437844884
1,05905579205148
1,00660599461189
1,02109315160778
0,970419669027651
1,0731291445815
0,977152986670513
0,992597035596112
0,955372178593119
1,021261966682
0,993298233229466
1,0295673273473
0,989181399016231
1,03991736289338
1,00788207831262
0,987282191148254
0,999339249425117
1,02153699585939
0,999393222640196
1,02349228080674
1,00726215688996
1,07035501575376
1,03278626372706
1,04628279671631
1,02558377744644
1,06050492714406
1,02746231842415
1,04638923431074
1,02226382052489
1,04516643596024
1,00804405287955
1,0703445618776
0,98465253398654
1,02586339629168
0,992984056422974
1,06935769676257
1,04795296327528
1,08496192818653
0,994587640763641
1,04991361733878
1,02997756897432
0,992852512767736
1,00155568392871
1,0331143408311
0,996165039902034
1,11833531031795
0,984117073397216
1,07274172464793
1,04243332461861
1,04839285845313
1,0122486650456
1,07366795180205
1,01230122923968
1,01895361321262
1,00019404805002
1,00779163411217
0,979279001134961
1,04399158300855
1,0131155335322
1,06567553272061
1,03427084116067
0,996252512704587
1,00307700536537
1,06441683992522
1,02594983120598
1,02461939747371
1,04713078808589
1,06417336918362
0,992445046064602
1,05040793528296
0,995393227878213
1,02990182867919
1,02446382986158
1,01160150880516
1,02080729924428
1,02117566033853
1,02432106769146
1,05720695575453
1,00737647736929
1,01306586784053
1,01879352109764
1,05054100034502
0,993024143243087
1,011016964573
1,00041947851907
1,00966636776056
1,00511262195986
1,0131960859793
1,01841292685609
1,02961902399122
1,00873288019185
1,02010447223012
1,01649669912471
0,999157464594035
1,00355672358187
1,00665694790747
0,982820886438084
1,0155040012463
0,986905732014692
1,00622489469787
0,988743480310909
1,04529223964656
0,997437961881404
1,05149466259806
0,977829112419133
1,02536495276128
0,978995937594425
1,00666028855379
0,950491487177756
0,981471171344515
0,958775558267939
0,9899481321345
0,978631397100923
0,976197515790807
0,97301273685113
1,02559168991572
0,976976047112335
0,968789089156348
0,974970656086185
0,98489552577464
0,950319720537555
0,983979331935004
0,941003775664512
0,977581260843814
0,940745334548556
0,964124029679275
0,962541667552375
0,97310923042532
0,940953527724101
0,928432358818271
0,938516119690852
0,938292041839606
0,902130561740338
0,967986509800609
0,910439529742765
0,952161041399192
0,957467084806597
0,917419745961439
0,946855704097998
0,962461313177188
0,896178940850006
0,963947960156181
0,90779362218362
0,923222191684298
0,901370001225966
0,913190274108326
0,896065246290385
0,932120833597976
0,919951911799008
0,921843595344767
0,896628966577199
0,886175254320402
0,89105673227463
0,899680414899348
0,900225888224511
0,906540813040828
0,879169717512678
0,912421693031009
0,874700112559621
0,884696001846173
0,870899001020717
0,882343469726621
0,85576686587592
0,871314214572151
0,834332434890635
0,846158608710618
0,855952034378849
0,887920734915151
0,865715931881265
0,860494960384824
0,83219733866403
0,848011319575282
0,816453985418604
0,845665953701087
0,83260360906988
0,832303020676494
0,836977954308467
0,817953866270515
0,812972887908757
0,826463733271362
0,804588057844906
0,82069152454052
0,790653829976737
0,795062649444324
0,786371331479006
0,804294794936777
0,794188668021252
0,786920075460473
0,781597081365998
0,811316927467775
0,792423144963082
0,785604807409877
0,770113824456925
0,803163820274566
0,790785387916958
0,78070255620047
0,774111619021121
0,775976855688625
0,74210674802952
0,768792028815067
0,768350565726778
0,766763116335682
0,735517641367638
0,748563881288622
0,736418012557064
0,756368460785351
0,738691629804845
0,732322395400034
0,716215680323545
0,735427462777001
0,722776956094368
0,710382229688753
0,719326649736493
0,722616114228001
0,712291599671874
0,715286902973714
0,702101610268732
0,706324055554513
0,697377733381099
0,712525190216617
0,696481962936121
0,688737435813855
0,686187150131067
0,691314414175628
0,677784823954485
0,687670880562022
0,681916580000521
0,685350580624444
0,669071192647761
0,668702631238234
0,656354098952433
0,682508913202863
0,658109339777161
0,663924725271406
0,655003468262396
0,647732875814165
0,639500003590703
0,655358782882122
0,654613529883686
0,64228851922237
0,624557025364242
0,631547894547325
0,630652557584141
0,632646693487318
0,622785287915899
0,622419496694688
0,629864944735525
0,622414603698431
0,608195723742809
0,61605467523553
0,611766330545925
0,62535345502834
0,607001338326936
0,610493471081783
0,602442658332845
0,599484851281743
0,583365423917864
0,599260831916651
0,584775948919396
0,593028548517116
0,591460431805322
0,585151496814308
0,577489033097188
0,577635368500534
0,578719618020403
0,576463762175139
0,565778725423967
0,563959316916912
0,551934036500231
0,559881538837491
0,554758094041113
0,558287838383362
0,562515778597561
0,565609820085578
0,563104949560514
0,557198452470513
0,539484174955877
0,549092818296356
0,539220261105836
0,537899599402339
0,531447697501413
0,534413640061059
0,529582564262141
0,535124554672683
0,531760019967177
0,522000628267918
0,520921284118241
0,518387884311276
0,521829418227431
0,527592435922053
0,508698572347042
0,513335203111208
0,508191095732085
0,501567324683773
0,500868389324335
0,505612965132695
0,498668510599578
0,505732549766986
0,49692379183864
0,493019350850477
0,489340893823486
0,489491538707898
0,481385668145288
0,487880737405057
0,483319899061335
0,48404631129587
0,482239874922032
0,477521758355472
0,469469886787801
0,474175163204728
0,469765939025981
0,463644507677144
0,468908288001132
0,469037766785353
0,463241269693187
0,462075057387165
0,459540172035922
0,464022921599377
0,461876184589521
0,461591969307259
0,455321761577035
0,4522533810198
0,451940109114391
0,449961947561883
0,446504666631652
0,442105358478185
0,431769464485873
0,432966359930032
0,431628392213786
0,437732802552301
0,43562636711845
0,433270143228063
0,426978571282591
0,428470650386374
0,428632606955369
0,426062603567197
0,432402793063546
0,426289535746521
0,418582533791304
0,420698486102931
0,419969239579367
0,421562914886551
0,417305210759221
0,40809028672571
0,408355892182212
0,411552916608821
0,40870721418125
0,401432117296665
0,401035697838287
0,400164407345966
0,403347819276843
0,40357209138642
0,400274940682818
0,39411359332817
0,389580899244849
0,391836611896881
0,392007271147253
0,390220057063064
0,385990560932496
0,384710939431146
0,384714401904992
0,388359569134185
0,384677695344867
0,375961012190031
0,378706837137621
0,379617905800418
0,371383611852521
0,370289355161553
0,37614943681181
0,368105565700804
0,372197101589729
0,372851136584261
0,370446686806429
0,370395707363254
0,365094170577057
0,372093502039784
0,374250138922172
0,36627490497094
0,365860007203514
0,370386733264411
0,365482918928675
0,358216609866367
0,35973773916982
0,354237290788716
0,348949329852124
0,353576175697273
0,35600170009281
0,354478059788905
0,351691073789424
0,359594783894822
0,36006536702809
0,351233393647121
0,349765406955337
0,358104606195532
0,355602669170068
0,355981996371752
0,352694486669921
0,355368019586761
0,360697458141593
0,355628780958147
0,349074022983243
0,351927756763212
0,360021732082562
0,357539047731036
0,358461110556834
0,358031124141516
0,357299786937726
0,361054506719847
0,361110431746194
0,357927619277989
0,362001815170456
0,358540678148469
0,362857303118423
0,364845716286947
0,367275794213995
0,373416204890043
0,371080428504124
0,369900103168596
0,374165912912656
0,372744821563295
0,372722735966179
0,37554098300789
0,374296267247249
0,373087053007847
0,382258928650821
0,379532469701407
0,380554859066167
0,383850038307286
0,384872933920313
0,385025383482455
0,38696167585434
0,390129097704384
0,391991486810689
0,392723375773025
0,39616288118183
0,397906778878579
0,399260393731843
0,399350493797665
0,409709671028419
0,408835358353267
0,41170718422455
0,413915940164471
0,425727712804155
0,425409786037319
0,41897843635614
0,423522347178982
0,429463521491991
0,426830945366457
0,427504992244062
0,44076873218378
0,447149481334732
0,439012718021194
0,435579525876325
0,435388186214952
0,441535145208117
0,448036876384393
0,461808418160933
0,455093442714081
0,447564714334934
0,454591359075767
0,456807041767786
0,451738657457323
0,451360191858317
0,455714939044854
0,464450815783519
0,462386998629615
0,45434327720053
0,46421165739516
0,465151145350941
0,46135005809512
0,465788756026732
0,45512297793464
0,459908398762244
0,455286189030588
0,457087915354042
0,455562870731049
0,452297444707597
0,451032826833402
0,458215807376207
0,456126812933513
0,454583071240996
0,457208245949603
0,460714825721144
0,458847183209663
0,457511553341209
0,455129979654013
0,453275201287676
0,458945741066592
0,460944620146929
0,456529306918504
0,462745174996947
0,460027145570027
0,460751677064913
0,458407379589907
0,465762924928662
0,467059830863949
0,461959545399943
0,457203876143909
0,463076748067407
0,470717796495255
0,46644705079018
0,455394970688996
0,469818949707548
0,469402982643582
0,468591393514782
0,467717797397428
0,462191650052421
0,462981720048316
0,466212347670148
0,470968238095513
0,470727041044314
0,45938755982388
0,459808126031109
0,459171678287271
0,463554946636931
0,459797748541781
0,465099090088219
0,46247151855937
0,456243974388544
0,448072526820095
0,45272131485026
0,45312530342934
0,454432572471996
0,449446251909884
0,449979025637208
0,445062414359913
0,44301558301551
0,439670344547527
0,43203089495122
0,425385336952183
0,434980435220997
0,428427881283715
0,42851173101131
0,4260301914269
0,432657143085247
0,421952145145666
0,418119371865723
0,418788511304905
0,410523477961834
0,410483808853899
0,40683924314827
0,400141875739929
0,405636856520094
0,393107100181161
0,400472564305453
0,396021214445668
0,384453921551131
0,385545426598798
0,388116485632832
0,376293961539293
0,376535366132792
0,379950287868954
0,381808649214607
0,368272941120075
0,373525547109119
0,368685594276217
0,368737896615377
0,368046818441536
0,369544757882159
0,366345989267753
0,357006956516087
0,358194853220528
0,366777982804948
0,35268886727938
0,356222418356563
0,352113683972818
0,348283979181797
0,353246269264315
0,35010340852693
0,350337528302668
0,354283171976525
0,343001475816919
0,343885397324897
0,342277586012827
0,341677753485371
0,334825820689945
0,342300597407518
0,33680912416324
0,333558898033864
0,330550080776239
0,32668172333677
0,328880686215775
0,336145024168137
0,329669327761209
0,325683966883985
0,324711530352204
0,329868677169243
0,320874504911213
0,321655950932246
0,321485876073998
0,317884191752337
0,3170975077923
0,320614072168286
0,313926421488205
0,313992604953714
0,312842720874482
0,31062398730663
0,30687707733491
0,309587558869384
0,304889388471809
0,308205015567645
0,306731176650177
0,308558676040808
0,304989986411561
0,307502940984904
0,298023835304115
0,300978699075004
0,299935654826937
0,300199756177578
0,296259946175171
0,302511285012645
0,296431249923307
0,294553258665668
0,294857710733552
0,298675147786895
0,291460255327399
0,293988612109561
0,286635369052873
0,286338056800883
0,285909018911073
0,291373208838501
0,287990759403006
0,281305324686482
0,285963293581175
0,289317908375798
0,282085835498873
0,286036355124275
0,279652376637081
0,281774954124969
0,285516408897761
0,284196610867489
0,280717800526094
0,287096589222915
0,28198630273147
0,280843547590893
0,275416374144994
0,283993319552658
0,275514012701941
0,27370068873804
0,276755303495087
0,272136762270077
0,273632130327486
0,271836391908172
0,27096194486987
0,275757375408478
0,270443818770493
0,270907684647433
0,271154452058158
0,274555711130241
0,265792210123929
0,26918452595576
0,267133546678374
0,267681502516636
0,261644340878601
0,267284911587738
0,264922262005442
0,266858628331963
0,262009497093235
0,266287229479585
0,261015479252735
0,259834849007245
0,258648629094543
0,261360932346742
0,259392729086014
0,262773830730587
0,259896103952342
0,261252276781553
0,254536691980052
0,260602461596029
0,26233832769334
0,258091692746239
0,251362768507969
0,260203396945607
0,253761643648292
0,254802795094953
0,257028402364313
0,258533269750804
0,25941104499216
0,254411078573275
0,252361568867531
0,254798677761338
0,25478159381108
0,257253867598546
0,255164613576464
0,254504972149669
0,25345884065269
0,254105491439092
0,250007275995657
0,251877372153724
0,250225631146441
0,25295678815436
0,248870166484916
0,254744017362012
0,249802652403469
0,248737208925381
0,245128788989752
0,246797840233312
0,245592803918569
0,248017481716189
0,246994014814743
0,245839704583335
0,242826486992059
0,246918683687695
0,242616499081774
0,244806424401598
0,243691239141845
0,245706090187666
0,243774385302584
0,241647379846561
0,236632186224783
0,242872499713377
0,236772974603474
0,23549243121022
0,237201737416348
0,240334520075097
0,234206348572987
0,235347371789199
0,2301250506445
0,234893874263758
0,232003079622565
0,234176288356569
0,22925686198224
0,234294284907484
0,231169685002199
0,230411514462317
0,229556673107387
0,229624231177001
0,223714230158752
0,228221888948797
0,22869706652335
0,22975507156918
0,223762630966968
0,225463391016356
0,224734542644216
0,22056339325873
0,219761599933222
0,225520540531285
0,220319377240639
0,225708849455364
0,222768983155829
0,223366802381225
0,217900753050034
0,2186856852383
0,215574846307255
0,218138858598366
0,219121574775718
0,219713469347352
0,212080249445495
0,21945544456282
0,215214915537635
0,213604398005363
0,20835767912136
0,212031635419141
0,209081774551321
0,216624976579962
0,210583804470149
0,212390332978436
0,207912759101401
0,210715447840524
0,20565887425297
0,207133367950672
0,207338019618072
0,207171391448292
0,199770064202174
0,203644128740975
0,200984480875454
0,200832461820324
0,20031814686396
0,199621826633676
0,194733412687084
0,196333561479482
0,192340901548879
0,197503026333062
0,193409436829192
0,194101964456159
0,194210096748437
0,194934649172685
0,18709655131093
0,192528087826222
0,188174488454865
0,191120596338101
0,185821642011488
0,189216636314774
0,189921768327229
0,18299466534644
0,180940097495742
0,186666723365487
0,181720767225798
0,184778214279999
0,178903539399222
0,178794581621811
0,179667974613202
0,183632971927476
0,182666594894221
0,176603576250065
0,176945193657913
0,181759306290491
0,176906947730506
0,176417499265882
0,175120735843633
0,176243425625664
0,176413729725931
0,18010590447043
0,171504197402033
0,171389115048868
0,174693343056836
0,173339288200085
0,168862035458326
0,178023183594655
0,171080854666016
0,17106939853823
0,166014055276805
0,173179763956553
0,170431958202164
0,167535833765293
0,166985039074588
0,168548141310347
0,167418893869434
0,168026284287835
0,165112219015931
0,162833206887445
0,161407440236439
0,163139327372715
0,161944166947142
0,167717544504927
0,163163932299339
0,161622665355492
0,163149684841414
0,163303410274282
0,159016421615531
0,160094648622132
0,158641365667518
0,157710965632422
0,156482965444181
0,157040084272037
0,155962752550686
0,157454281924327
0,154130294945873
0,158615819755236
0,153095630798574
0,155176188729847
0,153398843386054
0,151744609720627
0,148621141318541
0,15404544441627
0,152658860720566
0,152337888575939
0,151290082268595
0,153034048083157
0,149174287158143
0,154957754733807
0,150988737929872
0,151158318524013
0,147632469925195
0,149242407097906
0,149044404190467
0,14974623883027
0,149201205598856
0,14639328545188
0,148442811890014
0,149865824823141
0,145103698552063
0,146750596618652
0,147417180231098
0,150248965329015
0,14648126330586
0,144492912542227
0,144147360293625
0,146942439556991
0,147933578994906
0,145513897816056
0,145188396387631
0,146365877611385
0,14512123226764
0,145632701204004
0,142893778374286
0,143277158170702
0,141653379716856
0,142936321522658
0,141194575890075
0,143346738207479
0,140995838424256
0,143345751831571
0,139403295439444
0,138965639013648
0,136994300828814
0,14383498935548
0,139775230514322
0,138211741414844
0,134710344558878
0,138747557900118
0,139511778075664
0,138170581222549
0,134251789974167
0,136475468545373
0,136775881915624
0,135598150742637
0,132572342922865
0,136645640916927
0,134253532008786
0,134576631417396
0,129932670735794
0,135588231703387
0,133917962441287
0,130156695202604
0,130268366678852
0,132909661208263
0,130422812345821
0,131231292736317
0,131288226586492
0,131505925625576
0,13071085556933
0,130923072945448
0,130403687903993
0,129730244600759
0,128687691838377
0,130552803099812
0,129769112578863
0,128788085574911
0,128428903951041
0,131507625438103
0,12514065793447
0,127463387259134
0,125690839977887
0,127399431793275
0,129071330345975
0,124851655003477
0,123938590727768
0,12660480970592
0,125021125656002
0,127381086007727
0,125683943034213
0,12716602832575
0,125210605606272
0,127542071614022
0,12302295342485
0,123388178200998
0,120037318988861
0,125548765362763
0,121698106166465
0,125301197199476
0,122231468916643
0,122782306846769
0,121048798536337
0,121539900498003
0,116958867891642
0,119196358118555
0,119830323226728
0,11956880897232
0,116623467967701
0,118113100375612
0,114285373694965
0,115641006923353
0,115466188211459
0,114734861141788
0,116766387687033
0,114741776272705
0,113876351428415
0,114835692835134
0,113108083532158
0,110262328695253
0,110585498666322
0,11212456782369
0,107633889770175
0,109763671673242
0,110126989600006
0,107955539618387
0,107190707294938
0,110288610154985
0,106940984496352
0,107345572488405
0,106936043741426
0,110429352776501
0,108609082599837
0,105936845146508
0,105987480184651
0,107744564252756
0,102713036124497
0,106186388574557
0,104152582453832
0,104766655082732
0,10451812192313
0,102212105235421
0,103702966401735
0,105367205264185
0,103443123654414
0,101680907562251
0,100476419385562
0,10088007318779
0,103172205940363
0,103312030731225
0,102940030055557
0,100882895639407
0,102234595768276
0,100238386811544
0,102123246994149
0,100396592610175
0,0967059009214591
0,0976663558064936
0,100457644220608
0,0993262022016152
0,0943619428669653
0,0989444309538947
0,0993316119690233
0,0961497922270505
0,0940866238458953
0,0993596029144706
0,0954252781440668
0,09625100557038
0,0958831379721126
0,0965563336491563
0,0942173901350754
0,092885763812545
0,0941978726791814
0,0936475565765041
0,0909336961501011
0,0926284609012379
0,0935375116932671
0,090173458590944
0,0882300573763024
0,0888120444351318
0,0873171571143406
0,0886320843469851
0,087021103722538
0,0908202532108113
0,0875509997439938
0,0887178107440526
0,0884434900084475
0,0909924487732322
0,0863301888195521
0,0881533905753657
0,0869096802041862
0,0893062372760777
0,0886806923588837
0,0877041178577869
0,0882779600413531
0,0861295398682584
0,085906091227104
0,0870479688883855
0,0858409984918625
0,0853781424258257
0,0850928711254534
0,0875903898672523
0,0858707233425733
0,0874538129923518
0,0866670890557825
0,0877710627707591
0,0858589060118175
0,0880022907001655
0,0908925601048162
0,0885303666756471
0,0899673592497015
0,0904411142010487
0,0862354259586564
0,0869708733009474
0,0911543675567602
0,0846030575745794
0,0914210869458806
0,0882073231617818
0,0872166527250169
0,079873275437884
0,0777191177509042
0,0786708009650622
0,0837222409140182
0,085178301423367
0,0839613458209112
0,0700711409384834
0,0758863575092994
0,079963190044369
0,0828643141587351
0,0670404480550142
0,0760396142564196
0,0734288284663507
0,0749317622102149
0,0819327736004274
0,0785204804663606
0,0696201253051386
0,0766167573534667
0,0744390337722906
0,0827254119124081
0,0743680378679869
0,0824151722300778
0,0818753013469825
0,0824507085396915
0,0785180531664342
0,0846047123172466
0,0704377868448675
0,0828971260632251
0,0724808405495702
0,0881764846189722
0,0718515104916886
0,0894292792628884
0,0714472437965697
0,0957253813140018
0,0747370051137407
0,0988934430805624
0,0720941508671839
0,0979637687877439
0,064166405159534
0,0925030297525195
0,0575590216651338
0,097724537274164
0,0646543176113721
0,107568067407548
0,0558478235932516
0,100057229457667
0,0477168048315754
0,103792655774271
0,0527788298163
0,1111763590182
0,0473787901599942
0,109432186991739
0,0574764941527864
0,10692052780237
0,0568308617658641
0,0984614980064006
0,07069453407012
0,0865162282905678
0,0740726542630068
0,0775090191638972
0,0885506627093586
0,0668515161618394
0,0985427960563446
0,0638341751761756
0,0949829696386224
0,0647896232201631
0,0961638700882151
0,0677390100272456
0,0887403811160751
0,0727855044563782
0,0786157353562359
0,077660255055254
0,0727214628956156
0,0770132971251357
0,0768834566901332
0,0761229350134361
0,0787025270604193
0,0726101644537581
0,0780454619662777
0,0707037723586805
0,0800873713316601
0,0737182217512039
0,0758576227951614
0,0695452633458567
0,0748110951407095
0,0704800947558688
0,0741110070490066
0,0706094002240758
0,0762362823149191
0,0703054882524431
0,0717263336838217
0,0712949443813857
0,0765141109914815
0,0716798755771551
0,0692133134570054
0,0685896424280729
0,0745718957106385
0,0710550535815432
0,0732759748026526
0,0719440492414839
0,0735065878171812
0,0691867853098091
0,0741856201303238
0,0698158865690744
0,0752080236266146
0,0693581153028802
0,0728440335493984
0,074313200176862
0,0742591898812091
0,0688322254249657
0,0721172942605601
0,0723279562917842
0,0712238493490984
0,0701652549371177
0,0735039896571441
0,0722070927659441
0,0723525719412686
0,0725741304077916
0,0754783548640185
0,0701984161457957
0,0741021929836923
0,0718891385281957
0,0712903379189032
0,0711069912539185
0,0736188573954705
0,0720651787820964
0,0752932576264112
0,0705913899639506
0,0721832011204883
0,0692355529403099
0,0731428784907073
0,069489400555245
0,0728282056616249
0,0699103222809944
0,0718211422624321
0,0731978263552085
0,0719510334158212
0,0698728851436028
0,0729938381042475
0,0681327420125365
0,072656606620612
0,0700378016584366
0,0727340540142258
0,0708569247277956
0,0713987256891554
0,0705197183693013
0,0730842212078673
0,0700926731653225
0,0716613909821853
0,0699931587078323
0,073102576786776
0,0718636574210309
0,0716247888634815
0,0725145807838585
0,0740815145527705
0,070886905903006
0,07390923862855
0,0719139092743737
0,0722242112611244
0,0704578338845281
0,0721106897279096
0,0703428634369014
0,073215864675954
0,0703592411004592
0,0740777518027081
0,074535282629364
0,0751606498901289
0,0691474789400269
0,0731788541697621
0,0729748488517524
0,0733555985973266
0,0717016383781702
0,0734277071339944
0,0712609758439999
0,0730164047068049
0,0719239381718968
0,0762504615976363
0,0718586221085559
0,0768603389045739
0,0731526582531823
0,0743036025613023
0,0725468311635556
0,0762291048727128
0,0728203392454085
0,0753464139741637
0,0741098143395084
0,0738261223680435
0,0708670240757481
0,0739755254738675
0,0734272367986512
0,0755419744880074
0,073379636996078
0,0762088607844816
0,0751842279285881
0,0750832408353624
0,0725639860833703
0,0738120223845944
0,0726586595315413
0,0736126946004628
0,0724444989914864
0,0755390980011945
0,0712633318483572
0,0743679249087876
0,0748460774140522
0,0734619370364789
0,0730157303876601
0,074596575635281
0,0733833574674323
0,0766957845128978
0,0726228556884463
0,0753226199301341
0,073021604014211
0,0758765768509613
0,0744748714667496
0,0755397020667851
0,0707715815979872
0,0746469999997863
0,0746559034983671
0,0740070116443858
0,0760408442259535
0,0776957809414828
0,0754060044207457
0,0765099110420966
0,0762839194156842
0,0776185886679813
0,0775871522571193
0,0780942997720423
0,0774633718561008
0,0789547416326483
0,0746257140722656
0,0758069139829286
0,077502544414306
0,0799060305644508
0,0749798425278084
0,0775198697994822
0,0757630682773242
0,0773091865992807
0,076493917355825
0,0798907958833637
0,0762395080790252
0,0740942321707956
0,0738727342482107
0,0794193814096827
0,0767890668258712
0,074537609178943
0,0711932503016679
0,0770849637975063
0,0756635373061103
0,0775141891801712
0,0761431539291584
0,0768426971509007
0,074426286170911
0,078317485461407
0,0748510248322238
0,0751410945666313
0,0743963466937976
0,0767066161950316
0,072082731789793
0,0740680901285087
0,0735687340423564
0,0753975644195181
0,0725076890484626
0,0734041637910243
0,072313741306053
0,074677278485243
0,0717320722486795
0,0698812096359839
0,071454264883598
0,0741058836679717
0,0706496867595002
0,0726979572846862
0,0706771383942178
0,0721339176716761
0,0710472479589595
0,0733084953098453
0,071308064825422
0,0713024060951122
0,0723965931235942
0,0716575005298795
0,0711099003407566
0,0724832567753092
0,0720210844585785
0,0740905802723174
0,071301321740197
0,0730128819314615
0,071323602404847
0,0738166708299157
0,0717019539792605
0,0719487303495598
0,0707290580813803
0,0730409697880086
0,0720821643781669
0,0735889370916877
0,0735593873624993
0,0752108317086036
0,0705704211321734
0,0715598696709614
0,0714393033398932
0,0699526119128854
0,0707754355673136
0,0713932075469967
0,0727996237405919
0,0717266819817779
0,0721449572757677
0,0727860056189009
0,0706365232894224
0,0702707671252384
0,0712408161153151
0,0726084582089339
0,0689908460158446
0,0736940792237383
0,0697925021186887
0,0701853134513505
0,069070120378493
0,0715605148161286
0,0664855877701827
0,0708278637032528
0,0710281071183981
0,0699240579534725
0,0699105832732151
0,0703356512819591
0,07072692098945
0,0725166000123997
0,0696335793657897
0,0690713581642108
0,0693042564762789
0,0703478968068959
0,0701883088619851
0,0739618422763876
0,0717376836433246
0,0713794312391303
0,0712183498123997
0,0701724680014593
0,0717182381664591
0,071452683288473
0,0674968386135783
0,068877741221413
0,0693419746164713
0,0704139310982906
0,0679216133664494
0,0690013077681626
0,0700702633858754
0,0672200280315236
0,0679331996145561
0,0691154058836429
0,0686986588532339
0,0668650864095286
0,068625926719609
0,0681680544348875
0,069087318284318
0,07027168395982
0,0708192302383464
0,0684860370718439
0,0683976582740683
0,0725878661981142
0,0676831212650514
0,0676342784101462
0,0688118804244287
0,0681258329653867
0,067015914931884
0,0671828728401804
0,0677961142765442
0,0679615286183486
0,0689304227402349
0,0675333677045791
0,0640599231811859
0,0637105701513326
0,0647861161582761
0,0676922607015739
0,067063134992424
0,0665746074003044
0,0638987957410892
0,0664815500730458
0,0651024114557394
0,0648535037971924
0,0627512057356344
0,0638624220387841
0,0631279017051903
0,0677556458983796
0,0692387388558347
0,0756366607098747
0,0645511702551461
0,0611010132628534
0,0634945826813034
0,0644702105400091
0,0634018270115295
0,063930616674112
0,0628205523778091
0,0624343163412044
0,0612984891831668
0,0624321883505204
0,060724534445625
0,0610955029627919
0,0608515551097069
0,060109856757383
0,0609905156858291
0,0612034398162972
0,0604297774445813
0,0615438733356252
0,0604323972227738
0,0624634221776651
0,0602752236922818
0,0613924629422816
0,0607261313042122
0,0611016831770798
0,0599588616585808
0,0730631501376185
0,0792758406515642
0,0605643941099193
0,0630462529965441
0,0652673376006402
0,0643700877836827
0,0599923962038971
0,0617575585309769
0,0594864885425591
0,0604224751725346
0,059827326588318
0,058413063633896
0,0601576848399435
0,0585235362106816
0,0599310155808594
0,0584234756800382
0,0586817340694595
0,0595915602425224
0,0581370817309944
0,0594121588736638
0,0599430743841621
0,0583608425120953
0,0576775769913874
0,0582444598479087
0,0582430543510568
0,0577095978735401
0,0614063954073174
0,0717070551640921
0,0683731516126654
0,0611583590682678
0,0573870128065819
0,0561018795855909
0,0571621306748074
0,0589750472005872
0,0579785125735245
0,0592188577963442
0,0573108844079816
0,0560150551111869
0,0605363188184256
0,0585944856541106
0,0583710166593437
0,0604756727031191
0,0591624595082882
0,0567378945758238
0,0535804951574467
0,0544090810171502
0,0570533734387415
0,0585970176990241
0,0564824218686549
0,0596404579137967
0,0606694701804071
0,0603499898379328
0,0555615379902155
0,0682225911049007
0,0823825137619262
0,0607582351895355
0,0600151203523556
0,0565623828079883
0,0547734774338465
0,0553299257373105
0,0555443823554924
0,05449938939097
0,0559592936683146
0,0551528408508674
0,0562120147341935
0,0563963439045714
0,0559231448330951
0,0548646958210275
0,0557103763554897
0,0569172099971579
0,0568535898275205
0,052518206955849
0,0544312857276461
0,0544279622904016
0,0644793987128654
0,0796636402950695
0,0680154474296861
0,0585584130408871
0,0559150681287767
0,0588583479921204
0,0865450631190655
0,0664170165854878
0,0544217901767911
0,0610619530777663
0,0565451116813952
0,0562362411527753
0,0540205938706624
0,0541022767014426
0,0605662502175094
0,0673838951845215
0,0609169523559206
0,0619247729724255
0,0550126134023401
0,0534681730111542
0,0557757353526283
0,0553705422329053
0,0542551140426747
0,0562746475234774
0,0549876881355804
0,0537882635575956
0,0544526093083563
0,0530448809116614
0,0540167317171587
0,0532482852667032
0,0638149211911607
0,0658886681289513
0,0518574519756496
0,0569972345144254
0,0555160667247655
0,0518794441588397
0,0726035332282023
0,0798751090904015
0,0585688200426509
0,0562588327095724
0,0538432484373736
0,0581299829831507
0,0559009386869344
0,0530898543275889
0,0546104602275179
0,0523524512690762
0,0534314854139476
0,0556212626866322
0,0563314316118238
0,0532085361745532
0,0528042624694027
0,0542538914487881
0,0534050935432758
0,0523381561322224
0,0551397794763209
0,055682669471334
0,0564881631357716
0,0640813762087031
0,0876312773838871
0,092340738253189
0,0780352495975245
0,0727786336867234
0,0622497012981981
0,0585755236318631
0,0567595420558643
0,0549662156560422
0,056712557379882
0,0616343903385422
0,0574017198427092
0,0541405199569608
0,058238810152735
0,0556151473651734
0,0534964331090025
0,0525581398026882
0,0539899838788993
0,0545018206786321
0,0539790196285146
0,0529446351889459
0,055452089295469
0,0527941433692904
0,0586190507401592
0,0700613321764967
0,0667700041751628
0,0570212191046728
0,067620396171202
0,0996598231896397
0,088706629515635
0,068265896547849
0,0646088388569332
0,0577250558956517
0,054870464176796
0,0543990039828984
0,0636674849700845
0,0684374217785616
0,0557981464509997
0,0540494194331965
0,0550393674115285
0,0601792478343762
0,0583221018510937
0,0578435654657217
0,0827081801921684
0,104764919740651
0,0758941767051493
0,0588565770950961
0,0544133257018717
0,0796871875820278
0,0974635386727195
0,0653241477327826
0,0604214703281029
0,0649013318881942
0,0567079041528638
0,0561418794398503
0,0523434913131453
0,0611651270652745
0,0681991419671647
0,0594009368698791
0,0585845603295788
0,0560614400192771
0,0553807260002817
0,0643547117792837
0,0659935364358574
0,0759965352294111
0,0725375225501615
0,0605343359922213
0,0670192013872244
0,0664921550012879
0,0588908371147267
0,0608563328140792
0,0572933289833582
0,0608032102320109
0,0804832116694326
0,0808684671403481
0,0767258602213019
0,0879313860679281
0,0749269269039185
0,0605557518041619
0,0677826735856278
0,0843423376212267
0,0721218281704736
0,0612088566831388
0,0873277126715327
0,0995753061946324
0,101058371519941
0,0831470352318157
0,0719660945488752
0,0589020529003728
0,0647566422706505
0,0550612106222595
0,0719034335709761
0,0817703561688942
0,0723615152484092
0,0593713093265208
0,0659913848651442
0,0779155708860849
0,0833068310460798
0,0718413562632904
0,0673971724896566
0,0594999020671742
0,0675168099921362
0,0877750328842415
0,0706603256153075
0,0793088207795739
0,111166288114616
0,117096581837773
0,104675849543678
0,0712880063223629
0,0840006273033529
0,102543063278901
0,0813376329230215
0,0659412356679604
0,0670112911759141
0,0676153948173506
0,0634039952230747
0,0881997623281648
0,112647462305762
0,0783585382564315
0,0698239333726335
0,0720454095936365
0,0812808179305918
0,102943578101139
0,0879175279385155
0,0669724316804407
0,0745211309641219
0,0674719117539392
0,0875502273184584
0,130701873919593
0,103578299782396
0,11061190888156
0,120083139225461
0,112431568722034
0,0963756833698001
0,0957384832112009
0,0830462311216607
0,11300711979863
0,112480085955938
0,0850891491406914
0,0758820687090398
0,121774576382639
0,102659648988309
0,0937680329767498
0,0844465633913561
0,0877320522135247
0,091069068221955
0,164265564972112
0,178085391396277
0,134948653068073
0,0941446979475663
0,109427323789223
0,126824205184857
0,104000786478384
0,0870859704680608
0,088733188086273
0,0919807336977192
0,0892462046686213
0,0974809952504465
0,108176217204711
0,0971207258661489
0,103794715468909
0,0920871584558225
0,106925601823708
0,145897317838656
0,204020167056732
0,140465343851769
0,143996259485527
0,141831833726854
0,144364368314942
0,120391534990702
0,1091989702248
0,106146058732874
0,116871459321764
0,11607567130941
0,108366187692679
0,123866859957941
0,14836972328482
0,133079470838398
0,163408678697804
0,13856514728778
0,136500429911488
0,124227550739363
0,20161852750674
0,261914894044499
0,193069268369232
0,15039644020628
0,158965438614151
0,20333534032361
0,213807724879167
0,171707595429871
0,149526113544727
0,148239734223409
0,149634900352871
0,167416805622732
0,175957279637874
0,183593720104414
0,196667614516086
0,177332434989159
0,18813158577723
0,227907640075158
0,32786594907175
0,289940394789214
0,218180515569995
0,215265245167163
0,241741079820026
0,235649108825005
0,215260234247183
0,219428442620294
0,214952265284307
0,273609376195573
0,278327543589426
0,263255249470988
0,231938692267652
0,2795359053902
0,264541973494313
0,284005165493915
0,320724504510814
0,313830226228825
0,282168183757407
0,268669264940876
0,28670234387515
0,275397890295607
0,304829950920088
0,321418910417146
0,328983627905146
0,310363639646868
0,306854430429931
0,310193991655003
0,314529958087641
0,327821565093221
0,319433764682945
0,340327624268394
0,392449555486104
0,457921405653963
0,535551831526108
0,369296072254764
0,345686772243809
0,322930535004868
0,361267437337622
0,380595256631894
0,404143280710526
0,420001683425262
0,368351015480866
0,344844168847337
0,335814562693384
0,348266886408654
0,340608468411445
0,351781010730371
0,340216376161071
0,348270346417826
0,379087302401086
0,367323549123061
0,440113853915075
0,414955005787645
0,368202900153899
0,336850663482594
0,353054594900803
0,333145997086854
0,348177389361097
0,327313219792346
0,368177526449839
0,346468004648225
0,355912362692009
0,328122571630158
0,34704575119861
0,37485185304801
0,37120087549238
0,344317132993139
0,328227617048438
0,330811775079812
0,333949433999214
0,320166607860092
0,384996394625055
0,363077303579677
0,350632706294891
0,313793595150448
0,320545220940264
0,314042939646832
0,31268450633602
0,307640564494365
0,333080641420369
0,306615508568018
0,323634437552894
0,312649779838406
0,311871101979231
0,301644645390978
0,315355093138936
0,31249356322134
0,314093558107312
0,310711421189513
0,310318941319129
0,304695006159371
0,310545015295504
0,301986342179487
0,305252534218132
0,306567231284878
0,317170885873176
0,305740314867761
0,304231617221515
0,303556838580812
0,303398411749683
0,308793214953155
0,307202005682077
0,301636312511107
0,301960476063083
0,29532558658539
0,298415122498578
0,294681130734678
0,295101070070696
0,299628504143678
0,29750887764402
0,293991273343384
0,285425619245515
0,293777822122698
0,28665428197405
0,320551787265011
0,369509962035767
0,314847109589866
0,304578696312499
0,276271544807764
0,297954383471542
0,268745981412995
0,300704770032797
0,345234933856755
0,320564342729986
0,276847437905083
0,271291244886679
0,266382102036106
0,304494001385041
0,268043898446347
0,276494866398695
0,250539431780833
0,275289834456988
0,333150196369626
0,36334613816271
0,473372440228383
0,367692845445654
0,287563583321591
0,248988877134804
0,319983930539743
0,281232414430961
0,265970958550308
0,233765810838682
0,252472319448905
0,301657241122514
0,258301749077982
0,251057661022861
0,226542470753952
0,244345816953532
0,29175778765109
0,288262837499926
0,270970957094416
0,307400587418192
0,274957866803912
0,301559043170795
0,33377023004384
0,374703800211457
0,267135271370404
0,230184252150792
0,224644133263931
0,22288983423079
0,274184231731372
0,278862537193091
0,240394701802368
0,245923363532522
0,207147428016874
0,217693738378254
0,223188784074323
0,269527063633796
0,207531290460975
0,269149518631619
0,240384119997118
0,233531841439566
0,230847701925886
0,258248774468572
0,301174429581611
0,297296574139829
0,221448326693052
0,205355655057461
0,283766381279134
0,249711087932062
0,246878896033088
0,225585640497804
0,186356674861066
0,228810584969877
0,212104403040763
0,20669512066404
0,235013464553001
0,239051717550702
0,285235139355074
0,292870791526149
0,350676531695303
0,272368730936592
0,202588584893245
0,186032530318371
0,181809346171822
0,202900125266291
0,179083760944764
0,192536561202127
0,246117664475477
0,186599836341914
0,235149951366671
0,226049926974154
0,207599722530915
0,1915847544542
0,191699314023845
0,186708784511031
0,214498424223915
0,25485591357517
0,282385924705923
0,220889633402372
0,24376473932633
0,227545314865679
0,22976732880573
0,205114688526269
0,218067130192363
0,209392645079197
0,231426465231855
0,233196143622421
0,230605609555532
0,22974680715124
0,236313358416496
0,228817947331904
0,321247093279234
0,256074043534927
0,280121254080316
0,295256209831651
0,335338605865964
0,341003742839418
0,291162358293157
0,290618179172383
0,273476738356645
0,284874411859103
0,290062684124069
0,285318455309209
0,34630172382768
0,329303167704048
0,312877486105064
0,306057714959808
0,317511847037727
0,31055227061478
0,333350068961479
0,367046363694469
0,376357427840267
0,464883864693683
0,37492202213173
0,39402670116096
0,334849573336021
0,343321703769285
0,346335391541147
0,352904045853896
0,342296389458376
0,335364691306234
0,368536551113025
0,389082717452875
0,355027091499231
0,355158468805512
0,344939961782755
0,353784997352688
0,35021144426468
0,356096919364609
0,359621108779635
0,36286858648269
0,368206796136923
0,362851001310575
0,413655871395202
0,454821318708964
0,40766524428376
0,392234191995841
0,38378047772412
0,406445768313657
0,378342672310486
0,404446947613057
0,422512086169369
0,412661383844844
0,406763954163401
0,39920793821803
0,410509455238291
0,401068617708794
0,447270797065426
0,435285624398294
0,422108210221494
0,428820627774433
0,404039349976566
0,528173453962174
0,454089135350826
0,478871705776489
0,445941787461934
0,456239170473829
0,431905812404032
0,442801113999374
0,428838978447711
0,446456652633381
0,43746513694937
0,446124101821669
0,440376601803712
0,44229861058433
0,439857164425082
0,436203850172559
0,461168197673264
0,476770639564948
0,443084760124278
0,441835445695974
0,44098131722101
0,437798847919691
0,437674421262467
0,494878449222604
0,461492186081865
0,46097903820633
0,437916783228008
0,474403593328752
0,482135924578785
0,461551626068627
0,436059772362373
0,43584421292596
0,429036419600341
0,4516503565521
0,42181383954933
0,473820557801438
0,469416302359673
0,467844043892288
0,439577842328804
0,455575824808545
0,436698779956125
0,45932935073615
0,447683109618778
0,459995968198905
0,453750648312636
0,472695380144638
0,47218598676656
0,463041900185117
0,462476406543741
0,484285136938053
0,499888087771927
0,48977176466423
0,459289251079809
0,467458388815089
0,449369218832809
0,470437100285749
0,462510720489436
0,462495152439698
0,439207034033591
0,45991090421679
0,428390039076473
0,475907707419008
0,4769586978411
0,456618100849373
0,455239108477463
0,429092217355799
0,426824961241616
0,420581697027394
0,42077868213304
0,415007766630321
0,417661150101948
0,422077230729406
0,408777649872527
0,408757688320342
0,406231364874689
0,404452007217582
0,403659060779621
0,406493304735211
0,396721937427322
0,395333419901026
0,393417699020035
0,402753205412206
0,392447565416056
0,396964944128284
0,388315039494931
0,398092731126065
0,423026108042977
0,427905879543565
0,424522021130614
0,403205216341597
0,415351999978101
0,398139327834686
0,39646590133816
0,392644686069759
0,396895674072541
0,392022538919997
0,389668116054717
0,392119176432611
0,389128463920789
0,390424675363579
0,390446172535399
0,390990525189403
0,390517413935859
0,39133677556465
0,388421330699995
0,392561100317618
0,388733430577129
0,39952314637148
0,389974930726008
0,404237883131496
0,388766305854786
0,400894780512813
0,394559490792579
0,400166402526357
0,392565369971167
0,395885328217526
0,399359538130216
0,392902499828111
0,38926657514863
0,386659905445648
0,389888037071252
0,391563098613317
0,388348569322958
0,389545201091635
0,38608974987327
0,388048323356412
0,384556338245954
0,381825191861341
0,381093999155092
0,380839991635553
0,372968680356224
0,367861869835133
0,368578682223001
0,366782166536945
0,360652840245038
0,362864838275147
0,354216715725639
0,35493068998237
0,346966989199824
0,351472998712993
0,347889040327236
0,345177143332507
0,344105493745599
0,347658676105926
0,340178057273292
0,340358299503938
0,332377882787493
0,340290029537017
0,332639526178026
0,336605950975656
0,331521051008109
0,332129367998873
0,333807124256169
0,337960910692998
0,332932989235281
0,336587318877408
0,331695769530566
0,339057290542465
0,335876326984592
0,340324228989086
0,342318496163917
0,346059277619157
0,342496638338656
0,347108859132763
0,344849419078194
0,344726970206562
0,346621639176917
0,351507286083613
0,348173326612647
0,350574970784083
0,348428913615318
0,351225665644015
0,356288551852069
0,354335198981182
0,353108496037385
0,354697024433447
0,354251070404727
0,356509896899013
0,354013991951198
0,358579805778441
0,351670592792331
0,354003473056973
0,347384255126713
0,351190871201782
0,34986275642196
0,351662069367846
0,348710242369193
0,350104652169487
0,34557085025174
0,348384861082934
0,340255500090847
0,345157356172009
0,342607387192884
0,343094426780828
0,338882927577986
0,339022908142754
0,334522792765138
0,33811983400852
0,334202900647145
0,335960375448434
0,332208226502574
0,3349121355581
0,332155551295668
0,329915173558351
0,32933249427476
0,330140078363225
0,325959370816897
0,328023583356639
0,324165952273994
0,326159627169436
0,322818849677386
0,32217059890499
0,318717629112127
0,324555227306445
0,316166997043634
0,316985386064065
0,315475070023258
0,313101024015206
0,311765139864379
0,309689723588581
0,307195437189194
0,30811943952831
0,306261099330396
0,301256092232242
0,299597541462453
0,2988724740625
0,29300434711571
0,294491010775221
0,288677639565894
0,289927271800463
0,2875084721983
0,285699161959555
0,283598105869783
0,285302539276178
0,281407076638109
0,285918275729581
0,281431953822433
0,281862713154296
0,279127936741475
0,280181694160975
0,276463594473983
0,275204749297439
0,274377717298746
0,273034617919886
0,267196850599298
0,266421529530438
0,260029160295889
0,26026753492659
0,252813997023069
0,252257087044826
0,251656807611543
0,25226556327203
0,247616021610311
0,251238490164906
0,251238211909826
0,254544869475094
0,255901892074182
0,261801043578115
0,265377078791234
0,27615417178473
0,284946693683211
0,293717762423428
0,302504629937679
0,314685192808552
0,326750442219135
0,340700277816711
0,348281318412112
0,365897837838076
0,373241812595378
0,388066503415909
0,400872687720595
0,415791885334083
0,422626918985745
0,440085811545616
0,448569720536414
0,464549362097161
0,468881578442489
0,482865260475063
0,493029763718714
0,501007395541221
0,510181489579438
0,522198641744952
0,52419574043166
0,535258949223256
0,542606938975211
0,550983726195682
0,548465978608692
0,563377388718896
0,567762045801687
0,566887976563234
0,571897882916596
0,571331562716204
0,568664371069756
0,576141025873353
0,575190106391066
0,576039210206443
0,575771794521345
0,57686102709571
0,572907986508482
0,579035237463577
0,576101760301785
0,578706721162256
0,583912100988028
0,584889627164353
0,586255922896883
0,598772018318289
0,598087624087451
0,60617964729101
0,603690584755024
0,613015535364698
0,612557667532032
0,620882241904596
0,626402278365466
0,637470075971613
0,640000855107489
0,646026709266569
0,65753005948791
0,665652661020857
0,670821562347137
0,680011995850968
0,688761322511737
0,697824315531529
0,709250512556255
0,712374115719662
0,722445267869199
0,730680267866791
0,733582681298376
0,73985660142464
0,741392006325341
0,744933573228141
0,739032370139598
0,738669806074038
0,744206517855543
0,742952234630851
0,738958361735695
0,735445243064022
0,734246153836026
0,731383319132649
0,727811179483999
0,738949684433864
0,74055638481284
0,746487855299965
0,753138386660625
0,773340613344188
0,780473709955884
0,795116543488715
0,803883832351112
0,820498103830915
0,822842128043628
0,836595495604643
0,84255397885059
0,85537444522797
0,870576718046952
0,887740202399268
0,896177379141909
0,906561872700565
0,926960112538402
0,945909180401083
0,95315296583666
0,970370267489444
0,987564234185962
1,00132093938634
1,00776198816059
1,04493666595945
1,06110195861443
1,08556259054807
1,09027841164791
1,10764824440333
1,10946997439618
1,1402750889616
1,16891340885762
1,18434367117241
1,16595324308444
1,19406651539121
1,22419372594941
1,24351894180163
1,23129351529379
1,26079463679384
1,26307118604045
1,27175497400957
1,2968464362604
1,25327012407549
1,26739810030821
1,27950608372431
1,28857919987313
1,26206567292053
1,2594030728848
1,2597220366971
1,27121740233975
1,2468629790108
1,27502329913684
1,29493305428439
1,2849104792874
1,28872907653709
1,29419960518986
1,29889671638063
1,31944386873211
1,31591002553749
1,29967544641958
1,3322745457579
1,34533625823479
1,35045978761737
1,4029163439324
1,40234491184514
1,38341548526695
1,41132753908117
1,4339276260251
1,44940030339921
1,44929085316125
1,50682120965784
1,44663574230117
1,4373871887197
1,48044891839969
1,49766740556739
1,48016576191755
1,53128346360224
1,52816318516259
1,46875344744638
1,51526005363897
1,52267027078583
1,56430374741709
1,52534837033287
1,47764945440321
1,50215514711402
1,57831140346
1,57294201037276
1,60847061752265
1,60831605772219
1,51426291877681
1,575975210342
1,55143494669928
1,60137182210817
1,6557094791762
1,56169585600355
1,57155873645246
1,5769545762929
1,52012146239991
1,49546978575529
1,5158303668326
1,48769434788322
1,45337774631
1,39079461683378
1,32810093383866
1,30614952070464
1,25251133619696
1,18746696077161
1,13363194066375
1,13107285341825
1,11623169999755
1,06279273296245
1,04280853375504
1,04351964879418
1,02371922897779
1,00349497763705
1,01749927171366
1,0023269408161
0,992103550614514
0,978109429265616
0,962454914271904
0,975732965690087
0,961446259722963
0,943136735015375
0,933670079628441
0,915321641951778
0,908099156977058
0,885428739085022
0,874387542997571
0,8535845679798
0,842045252547944
0,813907297654811
0,796267542668556
0,77283465620915
0,747287262533192
0,722666395909596
0,691260245346614
0,663658929128253
0,630613440482157
0,602116746705414
0,574296755017357
0,54915722626058
0,52592479709019
0,498585712953134
0,471481438894745
0,457794603106996
0,439035754253327
0,417578518361162
0,397463106056558
0,387275842741631
0,373927074677743
0,359682862592919
0,346702795517405
0,342099266199066
0,329308802907402
0,325944366199348
0,319633347217014
0,315917039676152
0,308388049994838
0,30902619637653
0,309718451450501
0,306213194889301
0,306437647226707
0,306671048318577
0,306739918983686
0,306050473179503
0,307606925476504
0,310554115670286
0,306092898712432
0,307311694731452
0,309538925092155
0,311212623742054
0,311118147354536
0,306829116404944
0,309478834123264
0,304591387665248
0,303646915225415
0,300080739662819
0,304079008042741
0,297642949093327
0,297680952903262
0,291409118668226
0,289196696914628
0,285705612142003
0,280497272042903
0,281133245299797
0,28351743084465
0,282755709904494
0,284452430912213
0,2845643552802
0,285056521257144
0,29011287413663
0,291969836931448
0,296784381872753
0,295611593425645
0,296578287349331
0,303574322763938
0,307890698271021
0,307067054723836
0,308188487707859
0,30723552982698
0,309965465936548
0,317323649497922
0,317023815877736
0,315712370765234
0,314757524445458
0,320017113014635
0,316912630846178
0,312743574223728
0,314148918106564
0,323083403429648
0,323095856076503
0,324306789789438
0,325554813428747
0,328833547783474
0,327515557774428
0,337552180754411
0,341769533686039
0,355551007305348
0,359321825313517
0,369269885635766
0,381034945917997
0,384452346011395
0,395586054857795
0,413432975091296
0,414652768131516
0,430618446604689
0,430406444663318
0,440707699057301
0,43084399863121
0,438081676100458
0,436150012586537
0,432118005429454
0,413201152534853
0,40970660420555
0,405467850551124
0,403868226771287
0,395456349042083
0,386477946342577
0,384346901195295
0,379368640476495
0,374239135968371
0,391177037666835
0,376396891129356
0,389642483723663
0,388856833930095
0,378932627711634
0,36964369119413
0,385002796730321
0,372521609697911
0,378910004900487
0,369631620174258
0,366374233236479
0,360523281333928
0,362948512852895
0,352538414596841
0,357890914880545
0,348740792978342
0,348425868343373
0,345907459606538
0,343058299907418
0,340704096936872
0,339225594863525
0,332893994050915
0,330097823191218
0,323241021009366
0,337197208566734
0,327112424857112
0,320232437125484
0,323559684952486
0,317254470076878
0,309374428955352
0,311953150188961
0,31101799755155
0,312763365040715
0,30281465696338
0,309375672414851
0,306618986782271
0,294791504677446
0,296759202478628
0,307955575409758
0,296987891314804
0,291341517202231
0,287833477276224
0,287383150287732
0,293395670735187
0,290479806791148
0,282267864753405
0,286445277214436
0,276857208265389
0,277564675447834
0,279582023585676
0,275777573174652
0,275392244343467
0,273190844089952
0,261397830697672
0,266846514200534
0,265895539611117
0,271640741881492
0,286768979916143
0,279131506822721
0,282172899684301
0,270993235116619
0,274971619192346
0,288661532864354
0,273440165034665
0,280786257013579
0,271652261355663
0,292566893263858
0,293016936644664
0,289219428922839
0,282134326225283
0,28652966579737
0,28864685331691
0,291784176228339
0,293986202283368
0,297698269472519
0,302732236805048
0,301077496565089
0,298673757973805
0,310885491829701
0,311920975120815
0,321351268516582
0,317958189390936
0,310897683806936
0,335125231887206
0,326735591364422
0,325584792645111
0,343356098984383
0,338872582433621
0,365066981833798
0,374559863307692
0,370445848975205
0,378131531596843
0,398266526242249
0,403522901132646
0,441041101231346
0,437892753979588
0,45373782865603
0,466498117466551
0,483740531949887
0,485230318505249
0,490905352483539
0,497559875231994
0,513905506539453
0,501524963980313
0,519807790363908
0,510291037442246
0,52350127662841
0,50163906610173
0,48712145265952
0,507209936608733
0,512253451650322
0,496682653235071
0,495205695252637
0,491891577801178
0,473982057085048
0,459916541763781
0,508682033595669
0,481327484067416
0,487588105232073
0,473289481221322
0,490281969298843
0,487918010711753
0,458626265337677
0,450258716471367
0,478754444467251
0,457142917531016
0,464598595853427
0,445679856613971
0,463426437992422
0,464630891493303
0,457173207402063
0,455469281017629
0,432605524525312
0,424448721642509
0,438020733159432
0,443306197037254
0,432495201759914
0,421126092148211
0,434521408972963
0,417791192030971
0,428688983004442
0,408950160842969
0,443261100758882
0,414299645862075
0,427801149226362
0,437253185276281
0,434650848738804
0,420058249280814
0,456753665972991
0,446103159108242
0,46112899155058
0,440735832079794
0,41081914762097
0,421012446251467
0,448506634312607
0,463674927124623
0,466283667724651
0,44635724820947
0,461642774489611
0,447806069825401
0,445537836188071
0,429540994838557
0,478332501870471
0,458133805393948
0,464267593462776
0,496338010354522
0,497402351225089
0,469032770894716
0,484177032303961
0,498266639163488
0,463052978029016
0,489902196482726
0,543696421498879
0,479984689403627
0,508789470977687
0,51460233369948
0,509654814041222
0,541059396290391
0,591404773174678
0,585329972441539
0,515377434604981
0,491071681703938
0,574890558488669
0,591543729072829
0,614450681730696
0,591250345429345
0,603290231877172
0,61078637849692
0,662009352391713
0,682976453245064
0,64857354380367
0,559658681526563
0,677976447410768
0,637428342625597
0,647927245299763
0,626714001842474
0,620419581155694
0,57457308116673
0,631927381809397
0,61068499339103
0,633828560841115
0,555154475721215
0,607833602844426
0,651805461982861
0,61345048051401
0,530974664696999
0,574388746383943
0,499912673881325
0,58647169331863
0,605765922807316
0,596041199078077
0,485243874252216
0,569608028002283
0,673858945552839
0,616437304605498
0,513068043837262
0,587497382228137
0,583702502221525
0,671614625661084
0,597994896474665
0,703854549958259
0,6292610110572
0,656686467248923
0,628321799574312
0,722693816833438
0,583809010649981
0,575426495688977
0,536596523712637
0,309382368914211
0,796503549443898
0,696723612404538
0,539408506101731
0,545268078121688
0,62494173316804
0,781962690283912
0,570331010332717
0,555364165821823
0,467842561784521
0,663154287895968
0,789122821259353
1,16806466355653
0,629842378491697
0,839911693151876
0,81717533529969
0,94279616587112
0,397013742237638
0,548784162561732
0,704402573105272
