3596
4000.36533379555
650.420452594757
1
2
2
0.0196622581575384
0.0153270823155517
0.0233904375912329
0.0196706704957643
0.0168893814358765
0.0137299414469782
0.0270589555094122
0.013801813822148
0.0171288921886557
0.0245206117316677
0.0200493773744056
0.00439771447781265
0.0238536150795508
0.0153317800944434
0.0254963942090037
0.0129005816823815
0.018493515394932
0.0145072798152877
0.0257052907570657
0.0173866887280713
0.0202721208600858
0.0181938458867946
0.0167191080159284
0.0145771579990984
0.0185893107707646
0.0106640460267466
0.0220464325325261
0.024217482494152
0.0249360785846402
0.0191726363832915
0.0194294681745538
0.0213257619265235
0.0159399635156962
0.0134959133631414
0.0125907075441315
0.0186030516924043
0.0252159712840092
0.0132932247154644
0.00623558604534176
0.0141904943069311
0.0196322768599982
0.0158012512267653
0.0164007974238473
0.0199087598071034
0.00890073119365747
0.0121687927765885
0.0158269341307376
0.0231407330305987
0.023568553899021
0.00545480732162315
0.0155585065441203
0.0167485901994378
0.0258878446490019
0.0122821651353419
0.0191937640942819
0.0141593188516029
0.0122253572435954
0.0152005826020698
0.0162520366240025
0.0122250439892221
0.0254736439479101
0.0121340596990565
0.014429843576881
0.0142680558347227
0.0256857424626183
0.0232099025709649
0.0163905991921629
0.0263074250837131
0.0200609883299625
0.0221865597357261
0.0142238987573314
0.026724679809617
0.0189319362998506
0.0159183532869047
0.0154488169233967
0.0168611595280235
0.0176656680686797
0.0137537309603168
0.0186640223989848
0.0137836084918811
0.0120738417414607
0.0119982447487658
0.0122149504302467
0.0161062986021031
0.0161979338463823
0.0151240024527343
0.0236543982138277
-0.000929990200055652
0.00252539326186032
0.0149500152803102
0.0153351409127568
0.0152839595437566
0.014863379579902
0.0178480573487716
0.0245202550656453
0.00843913901762077
0.0136719342815239
0.00886686594597689
0.007986562860858
0.0196717983594771
0.0123151986092988
0.0173965693295472
0.0172870972268456
0.0197195369118494
0.029053159777722
0.012549227149539
0.0281646307172647
0.00923818132127898
0.0162516541857502
0.0115998865105937
0.0194446237939717
0.0157025842196479
0.0154964581535003
0.0225154817514174
0.0186211941595878
0.00678474895764551
0.00903853287149818
0.00702130831147112
0.00642038594102409
0.00561997780380985
0.00970858616367997
0.00744323407009363
0.0054977406909218
0.0128851272724826
0.0106037901764444
0.0174467838329046
0.0152038980428877
0.00260891980058312
0.00862209739655006
0.0140873652195651
0.0085406964247909
0.0112361928820992
0.0143229692906742
0.0127125796539686
0.00883090588362018
0.0110586107921882
0.0162301101908976
0.0155269416520647
0.0260132162160582
0.0140053102932001
0.0158839860302735
0.0109602170593412
0.0127686966822292
0.00297694910464821
0.0129656704904194
0.00801169403299971
0.0104665795929616
0.0144861739098632
0.00776217634389831
0.0138089319043942
0.0120844666731157
0.0137472918054806
0.0135651362706979
0.0105062065885126
0.0175992403932253
0.0289784252482266
0.00667990129798954
0.00438856351445972
0.0130419124392016
0.00306655256436173
0.0224539209220655
0.00720433079250268
0.017386376604401
0.011305467502516
0.0206853609573503
0.0119840067832619
0.0160583070381065
0.00919438421338024
0.0139230425633062
0.015149831687869
0.00978885246449503
0.00708355566207161
0.00933924286758571
0.0113010937604369
0.0099060170898748
0.00956850753595052
0.0121437193088442
0.0084218156613692
0.0108317930745312
0.0192111859235058
0.025533240051819
0.0122455105108665
0.0151563212065082
0.0123152376763552
0.0123125815072593
0.00757362594815252
0.0176948031568679
0.00967834467984303
0.0169022329849144
0.0187776500643373
0.0229534619256491
0.0116292477399814
0.0125604860005505
0.00831999115571326
0.0117142367030839
0.0106666311582274
0.032435608827903
-0.000807169728551039
0.0119141509379959
0.0065821811597487
0.00952225586173081
0.0184311676228269
0.0176073251506511
0.0145655873379226
0.0154627061935111
0.0148993168366339
0.0291958463008525
0.00158330766628378
0.0156937611131415
0.0117304847069179
0.0198515952900074
0.0104501810382163
0.0248829109122041
-0.00102610969182845
0.0151749759658135
0.0147835971272163
0.0158337188990503
0.0145987579237622
0.0124362497333681
0.00419387939255778
0.0122259921363998
0.0134684949252421
0.0189966468021633
0.0196263321902851
0.0105737010330094
0.00499910148993855
0.0117882129649308
0.0102581282858614
0.0171535657214922
0.0152463443496792
0.0227619985992028
0.0106896848330383
0.0127606668578641
0.0167629892078666
0.0181898676800548
0.021123611252512
0.0139386766231072
0.00415171088649447
0.0131072025980526
0.013074049836128
0.0178825103869101
0.00637655423968074
0.013258735800244
0.0120643145337638
0.01537397471403
0.0164184396512673
0.0314707570182884
0.0041163687861936
0.0150239434173404
0.0130653334780299
0.0215138901794824
0.00429716352683074
0.0175392052319872
0.0186916319518454
0.0192179370716574
0.0162338352367355
0.0250366225610535
0.00696901682618546
0.0136977220791943
0.0214890976872879
0.0143896983183294
0.00900573231859913
0.0151502637140484
0.009113382207852
0.00404865690514628
0.00554174743166029
0.00140424552795117
0.0191636538552705
0.0176841702859334
0.00531445297293444
0.0173884088760083
0.0135684061141418
0.020771554972268
0.0120819509744284
0.00850755208689343
0.0146028970394144
0.0127684876815692
0.016185801695818
0.0120307103139416
0.0189393012830362
0.0196898253847371
0.0210755119524955
0.0200311109309104
0.0109035387135237
0.0234570798830644
0.00707643550887845
0.0202786405371861
0.00726205583252241
0.0232556844198722
0.0124770101289922
0.0230112173601185
0.0237276273307095
0.019191689282232
0.0115933855783424
0.0124285617377126
0.0152270363325236
0.0116098077155358
0.0201964167864513
0.0172122095401249
0.0156333448707451
0.0182290237153327
0.00916676073620974
0.0162294272473703
0.0222086316657846
0.0222021581172017
0.0190010267069608
0.0174859252800135
0.0174732264985424
0.0281976939938364
0.0156818467332012
0.0163942169560409
0.0214314326173142
0.016557386010313
0.017552970136304
0.0218691486184571
0.0241501806483107
0.0205926989431902
0.0158288308616344
0.0176583835419825
0.0250232677935824
0.0200529478345306
0.017591509000081
0.0174532267679571
0.020571657632475
0.0215492907692816
0.021038643127186
0.0204971773273435
0.0213862482952412
0.0260344099496268
0.0244260897027103
0.030561773041143
0.0256282034343193
0.0278635736182282
0.0421811515306002
0.0304515706461189
0.0162941889724098
0.0263152003599311
0.0280474204545719
0.0350629159149791
0.0333449993567168
0.0363136226250777
0.0295331764117779
0.0372988220494089
0.0375178450161933
0.0369992817606243
0.0288596607261001
0.0461003397472085
0.0347562075731972
0.0206458032736781
0.0271335330374069
0.0378412195249381
0.0340230331175401
0.0437198693126814
0.0417107294258058
0.0313626560423689
0.0381377748168497
0.0443054221475447
0.0398651380623386
0.0417745917333095
0.0487832790868295
0.0480173024006045
0.0500770537571239
0.0492830077675995
0.0489438144587675
0.0459814976851042
0.0467913012830215
0.0545116537562599
0.0605142579189621
0.064181514646015
0.0499129936813427
0.0533526333298132
0.0613762352888014
0.0686084314139999
0.0736003885992025
0.0762545048424532
0.0589293695780971
0.0735240598986094
0.0646469262229364
0.069347132832781
0.0597879839125259
0.0686003250499894
0.067077668491597
0.0836674982797997
0.0771711391167138
0.0756410942256426
0.0815195017599684
0.0846895968635544
0.0859618286605003
0.0849306404991941
0.0780723666293022
0.0932413065445487
0.0863536802794755
0.0946448191337472
0.0976637829934878
0.103182510497448
0.102249301728495
0.108486816943118
0.102468132796344
0.0971047307428634
0.104230413624331
0.107414919041681
0.109665393742701
0.111913398828188
0.108342871143955
0.113915672909989
0.123224516367456
0.124114757171255
0.130471787737169
0.133203754784782
0.116710435282892
0.129123396152223
0.124956372871107
0.130681768343809
0.136692036090737
0.138738849438148
0.136738052052115
0.145642479064852
0.156436179856045
0.14580333972315
0.154348060776266
0.156307005780664
0.152693523148846
0.15567421384124
0.157716194666371
0.174218679163068
0.167625896602747
0.170992051190659
0.174134416075307
0.165757016472427
0.16747971950653
0.174910005199284
0.187346252830925
0.199826556351346
0.185566669682407
0.200825408646048
0.200896392508984
0.19912516103962
0.197942426307675
0.192910834937524
0.205222926978857
0.209898638998823
0.210816806745889
0.198577032385888
0.20871919987473
0.206578227819077
0.205083646069133
0.221579099974471
0.22120437621206
0.234834346491432
0.252799041902305
0.239553618065044
0.244208194865996
0.262199340425779
0.261317747017359
0.247359623681301
0.244641444037844
0.263625357879578
0.268646684384371
0.259529220678086
0.272040670002121
0.283707218957339
0.279433876078828
0.292231921046338
0.300117109047384
0.281517350106943
0.290539116993768
0.295719979047602
0.292165165511039
0.290877738835572
0.300031451715361
0.304076246082212
0.308262503308022
0.308516049272192
0.32551033614981
0.335097097337006
0.330138448038761
0.325482113720313
0.334558965575626
0.334593060139573
0.34167363759448
0.353685162216029
0.341510958469717
0.341944260735166
0.386197722949127
0.380319357705374
0.360562694826533
0.363235904872733
0.343066752661293
0.352892786326333
0.380274631247744
0.384543551522937
0.380729342481735
0.400031011081788
0.413608638624052
0.399363048480001
0.3956338992186
0.403822110757809
0.415961402838328
0.42760271134967
0.42515757923033
0.434288763518215
0.4485797123665
0.418829213601695
0.455674469159793
0.465174799925929
0.46244831676194
0.461758315925651
0.449191313496735
0.438243781130736
0.465841687768884
0.461618248827112
0.465241605214981
0.484576734654613
0.501506087784189
0.484183360816304
0.515266104606705
0.518518309952242
0.509204279961225
0.501864303711193
0.503887109090112
0.51813504062473
0.522308955664281
0.505486887589551
0.561039443872519
0.547459048213834
0.552092640739942
0.529119333724464
0.546563865348017
0.554272334652484
0.547022833862163
0.543682158030275
0.569929635328031
0.52570876605081
0.562127216325596
0.578655120601388
0.578704713549898
0.573537942474304
0.57488759046769
0.592255455257916
0.652710339014543
0.642374534531379
0.644038907194747
0.619597437086301
0.6378422305866
0.605244533480531
0.63906090555938
0.665294108285053
0.67223697775236
0.653688645417415
0.65016200265033
0.604214280950209
0.653496150010842
0.711004420388341
0.730116148324645
0.662995703241443
0.718089818983479
0.671427284805517
0.706511041410135
0.711131584972809
0.746506522186331
0.727212948047584
0.73198997494103
0.665442332626839
0.738187950284819
0.726068012934382
0.746403144499179
0.717457820527341
0.722997271713719
0.69071468639938
0.745321717556299
0.741485800836412
0.79180717605597
0.778704551139273
0.816886152098451
0.739935367929536
0.730476732070876
0.733606828491697
0.815070018163673
0.810221782072233
0.847272225051798
0.823140048311548
0.82404195522374
0.822644757966908
0.822607828299513
0.810836547827548
0.821289530798339
0.804315526355848
0.850814708540135
0.883102710560618
0.856841011113583
0.810539156924752
0.822700470980782
0.84514477298624
0.888421231637445
0.842467350734728
0.878381152547305
0.842024236402954
0.89580405683032
0.87918063865677
0.949530978428974
0.843817297257659
0.858615157611178
0.849524217549475
0.897074479870946
0.842963660559049
0.892108758049321
0.921750761512724
0.972540393013318
0.928905274799444
0.917506686314968
0.908362956860632
0.928661220527555
0.898755437197927
0.989954013174729
1.0001041929989
1.01606123182671
0.88446653974125
0.971506272718098
1.04513380442929
0.987980661117509
0.929276989710596
0.928767275925091
0.921082051735609
0.981650664283967
0.908516318040101
0.953049391444912
0.96973344719767
0.978471034341583
0.993374134723861
1.0577419502863
1.0272267767469
1.01514459515593
0.924871433781182
1.02655320571981
1.0579399960156
1.06287322224963
1.07061813508911
1.02905439488838
0.973302301735054
1.07903413846424
1.03145256885866
1.03630774667962
1.00478847354565
1.07562807547657
1.04118239064214
1.0710173300157
0.984156866993378
1.07722878716835
1.05285815444909
1.10147178915669
1.01888180173929
1.14013345932168
1.00485322407824
1.04305679798418
1.05716180193478
1.04210948072993
1.08204172985025
1.20258624701434
1.06972194593243
1.15797081508146
1.07485290924333
1.08935195330684
1.08527329018542
1.06993111608647
1.08841122676414
1.12368605835345
1.05294633539422
1.13756733876347
1.0913260040295
1.20355447731725
1.10879092707437
1.11152412947909
1.02926373495594
1.17410681944526
1.06965181740611
1.03217835278269
1.06842996198226
1.25263863156052
1.04518216631823
1.13889504190373
1.07862514825568
1.21229197945943
1.11416724740856
1.20913425736948
1.11251115902725
1.13667968609969
1.06928298240166
1.33621286040067
1.17504000180167
1.29386889846197
1.12586751181327
1.14089496557502
1.17005801586711
1.1985156028284
1.10615156063713
1.15601461942071
1.14279801531337
1.19123254027432
1.06247674411807
1.3163555920149
1.10610956516603
1.18570201010368
1.1166820527149
1.15135429365838
1.17231437964532
1.27552042517492
1.05556809331987
1.15056410613539
1.09985594250712
1.16819659334584
1.11299641181618
1.22963523220239
1.20404207262744
1.23409724282741
1.14561124277762
1.20783766859387
1.06246478771012
1.15460797909237
1.10901385405825
1.21057473456311
1.17952089067236
1.26015865684384
1.20490071672728
1.25174255453017
1.1581332840987
1.23563515810801
1.24738832679364
1.30460202114265
1.19107571559374
1.37488540527532
1.17909799789655
1.20064698679511
1.15161935903537
1.2225559784761
1.04615362296446
1.21036438385505
1.12694295497852
1.25998581867664
1.12972605760434
1.14917842639576
1.14642580237253
1.26942106027615
1.06762066519824
1.18727958383341
1.13319509508904
1.16115786619331
1.11916437038926
1.13944358301655
1.19639273946555
1.24467935112486
1.088332574416
1.20845167133504
1.21876840647634
1.17284265286421
1.08689495508731
1.2111921925329
1.12651058875525
1.25678809724158
1.11953818885464
1.17513062509129
1.24438597100849
1.22038257923277
1.0512120506089
1.21497300097211
1.11463662035109
1.23321679199247
1.09851782130519
1.27131476019902
1.23339607693588
1.16306738709127
1.08351532448341
1.1693123516685
1.05975486137339
1.19906100004598
1.16988028578651
1.20072102537904
1.14976332346931
1.23116019620966
1.05254480867916
1.11574352452092
1.11614774790456
1.17787764031267
1.11108691063422
1.1405503634543
1.11090349570523
1.14182602524168
1.05173447079825
1.19030755746713
1.11661044730328
1.1455039531053
1.10973140629411
1.18235706230726
1.11891756825413
1.12885089758675
1.12845507405862
1.15305566327085
1.1119601097955
1.13556683453733
1.03649369739522
1.12608025440136
1.0857836639858
1.05906196789188
1.03872772262614
1.14793195437578
1.12526892141265
1.11048956790995
1.05782030372853
1.09939071241425
1.11271732422725
1.09444358030101
1.07100909887563
1.11013946067647
1.09896245496151
1.15015417906019
1.0307201688998
1.12404513649319
1.03634894505001
1.07629544688921
0.974669485463855
1.09123177296356
1.03306559686132
1.04424818494496
1.05337086486138
1.10372846351271
1.05088377077663
1.07586050765847
1.01009428380657
0.985088346619883
0.984579428370052
1.06814859014715
0.99246546769066
1.12411042432494
0.978289645995923
1.0709956530985
0.963826397049764
1.05973745554773
0.990761225740513
1.03624213662784
1.00531081630919
1.00584036421168
0.966790124729904
1.05749839512034
0.919621263803682
1.00486767702284
0.9448645517855
1.06159684885182
0.959914811457274
0.988620601619784
0.985886454439982
0.949509302463567
0.888912123986743
1.02286543963307
0.944624575803956
0.933533725762417
0.968474989269387
0.973538705399047
0.96275037219238
0.906540217077354
0.902713598580751
0.957297135006692
0.946318874718606
0.91630993940233
0.931981265143497
0.903723405662322
0.871297404327727
0.938135960099692
0.891461702500754
0.93616908018797
0.871301568147477
0.907221629962563
0.905248237867558
0.895909665306936
0.883293750982748
0.882879247984526
0.837440231949294
0.899827291205489
0.86456880489548
0.917410133801092
0.843198322113285
0.856822111587937
0.84665213754159
0.886238244077388
0.828250766203623
0.866293669420193
0.809478313117327
0.861545796207677
0.826304500973171
0.841385621853042
0.807510483398335
0.884432962025035
0.816249100659949
0.841067353770045
0.785018563352283
0.829004005376319
0.783880211897163
0.817774515843022
0.79452882752594
0.82412625371827
0.767051090332327
0.793419996076768
0.757226151301901
0.763809214927954
0.758595590600686
0.747180010801724
0.77585778979608
0.779588359028543
0.732580146167939
0.763013799837068
0.734347567200095
0.742794814833096
0.719627222338827
0.766547704436936
0.747482806516851
0.753455971855494
0.734485815596607
0.7305023825319
0.709175782609987
0.748420183083315
0.696626381158486
0.739750616380711
0.698181575675913
0.703170854874673
0.681093828495263
0.697753653727634
0.657510796686931
0.703794438096235
0.660866235852247
0.690585507152939
0.690609251241442
0.687581866188646
0.670869915549924
0.685219992923064
0.678559600784722
0.668059780735592
0.65488181849857
0.674482512211045
0.640474214295926
0.657806361384668
0.633502274077839
0.642207091416918
0.617366829695977
0.644143289629161
0.620894364030451
0.631162900066161
0.609533871320935
0.615997006336658
0.595202714108994
0.630157782868228
0.592415012195732
0.606968782777442
0.582783666995973
0.622501387426908
0.576591478986917
0.604321795291661
0.581681542022599
0.587944916936116
0.587301427311737
0.607212485514012
0.574104864104467
0.572893849344167
0.562070902931557
0.569278742191882
0.565745971891887
0.564229885337548
0.555428844376786
0.575181296545111
0.533244887553187
0.550060920018779
0.556852173641188
0.544717627853613
0.537490217008012
0.547411410914246
0.542402465334069
0.540893858356069
0.530331460373494
0.54136316884749
0.522921306339069
0.523102749820631
0.505771317026395
0.522960033278898
0.517558038373419
0.525044349349573
0.513742601950092
0.522019448581518
0.503979122386761
0.509535256004253
0.511396033979381
0.510383356711862
0.492551346278883
0.50496992659996
0.484713661429144
0.497021547836229
0.481610753955394
0.499105212175786
0.476343230052772
0.476367481495701
0.46918307808798
0.473550549445752
0.470690708042731
0.474601238343304
0.464443381379612
0.472581840238135
0.451137464678438
0.462878428125798
0.45490965531529
0.452060835735868
0.449843014124865
0.460835407119621
0.445260533887699
0.455871594332346
0.430637692622127
0.443025004145313
0.42932413060462
0.436857851295719
0.426915062172399
0.433728524499149
0.417929009190762
0.431543385877815
0.428783626263978
0.421943216663688
0.420268283425005
0.422824018377472
0.409204757088444
0.411223377137109
0.408334155361523
0.416280029759694
0.402193098223293
0.409992836281034
0.377623306685485
0.406155732647267
0.401294003574824
0.398768986735022
0.388883628104375
0.391490926043579
0.392882556046064
0.387342346612324
0.38482840173048
0.391278061502647
0.377565049769333
0.378072313248263
0.376233403927475
0.374205778036795
0.366702667570566
0.367615485968191
0.365540622075279
0.363477480950552
0.35963780511512
0.364975752285518
0.358196837493346
0.353816368721873
0.355663192607736
0.363243578931333
0.355495964369754
0.360186908748185
0.343722217386587
0.347005038332184
0.33814123779736
0.355452035090914
0.335378730157125
0.345588818962469
0.337423055920663
0.336043121259008
0.338752395623011
0.33799812932689
0.33170146839798
0.341105568390947
0.322665575990661
0.336483131371378
0.326968794892638
0.33219858342975
0.326399459952
0.327497755137455
0.323980448010547
0.328346343540733
0.325558383493682
0.324588132572138
0.318358864997205
0.321657971667615
0.319605620197683
0.317224386275705
0.323232209560375
0.331903470322366
0.319689465350941
0.325782708453895
0.329388753136733
0.327327425234205
0.318714189200563
0.328750561290018
0.330314435987091
0.329623653076579
0.328160755232941
0.336547696278144
0.330501792465662
0.340672769920874
0.33632583384192
0.338567084243552
0.342480691534079
0.347677951412965
0.344471260639681
0.35717461173405
0.343871590952832
0.348334747575005
0.346438292622477
0.357651428514725
0.346076479335139
0.360214773398181
0.357926747749343
0.369244189209894
0.350903949215375
0.365634429581238
0.358136346963867
0.373079781636235
0.360331185499753
0.386833366259935
0.378439641478206
0.382554728415165
0.377725685718297
0.385068547589186
0.382510872145933
0.389255629536758
0.396733327806112
0.390436761631541
0.394115130574158
0.400645480896858
0.398456592477369
0.407911855610815
0.408449364956387
0.403249172399181
0.408883043149696
0.417904041132788
0.412677715550378
0.414086379125854
0.42517718587826
0.427721685974843
0.423596517979155
0.433885111362024
0.426937230513537
0.44728340105767
0.440014223477273
0.44067718569346
0.4450262582325
0.471849776163538
0.451792681685912
0.45618686107716
0.446990176706532
0.463881268105246
0.455777341333185
0.479432695151262
0.46455641140508
0.479750510973605
0.460690922976409
0.471394596658413
0.469419056218341
0.467196493663762
0.465234204196812
0.473011919821412
0.471223868722349
0.478348620695115
0.465921290279968
0.471857686811292
0.452468892492761
0.474482952404168
0.456529193479596
0.452139005658128
0.458473037662638
0.454133149067121
0.456019612689981
0.464450814841857
0.466721045397292
0.466438082387614
0.45562561204119
0.469106245210115
0.459843451594281
0.460258602154746
0.460790226454389
0.460705734610594
0.450444497557163
0.461838116873294
0.460277471055275
0.46439257870777
0.457643652208844
0.464827329499269
0.451095923034906
0.456654035893712
0.46275913733992
0.459504387208068
0.461710130525051
0.46911496024989
0.45763379219383
0.466507937015442
0.464906177072214
0.460327125873194
0.467382575437407
0.473216513504805
0.453860618247685
0.461721549083147
0.458113744518774
0.465644808252873
0.467630136133882
0.453295019058952
0.451030975400366
0.447828174176976
0.441687335736504
0.45319000386379
0.447430671451117
0.442143272958357
0.450191971223002
0.448862192419244
0.435797720968592
0.446774105883341
0.433623947540883
0.43375937371393
0.434239651851062
0.441145235296554
0.422728863156752
0.425527077792943
0.414658408208396
0.427632927874951
0.40854971634936
0.416850452600922
0.418606020650739
0.415075398220289
0.399152734167976
0.406512196442378
0.391551036472648
0.404334258303753
0.39342079584309
0.385847653262503
0.388583830469732
0.390206395267851
0.384088987732333
0.380252250906148
0.370864529534893
0.371730318326402
0.362060077008477
0.3736928146168
0.35185154698799
0.35646428026887
0.360024084296263
0.346618446541313
0.337478769683318
0.343186745866327
0.338782020691023
0.344463863224105
0.337645639376111
0.338789355563171
0.335119109135884
0.329339571617841
0.324673301104811
0.329007617754049
0.320423410642421
0.318364597483459
0.316145005065016
0.31213281618238
0.314548248668062
0.315668768417089
0.311133699800634
0.308095285462188
0.308350774325061
0.302077914326569
0.297997770419873
0.306018307055579
0.304847614941305
0.300653967140959
0.290962472510022
0.291648105691894
0.296863840546195
0.296254237174647
0.292177030610904
0.29218448714757
0.283549707653869
0.284102675765265
0.283366670794846
0.287383320621042
0.279830874654764
0.282553172426975
0.280890481331346
0.282010025936977
0.276016462710609
0.269179071474021
0.273319793339779
0.277654798861055
0.274221370947131
0.271954516912772
0.266721959924133
0.273802681087714
0.269313247007543
0.266151288540826
0.257133787501515
0.258048268348935
0.261964274060993
0.261736971350085
0.263171861364802
0.262608517500544
0.257926573303045
0.258853302713355
0.256758951639307
0.258215922720128
0.258470913665449
0.254342127006768
0.252631275704433
0.258066718468494
0.247314437965927
0.249717124603205
0.244664365558881
0.248529258169652
0.248380558288868
0.246962278854069
0.244892561703745
0.241814925010129
0.237975547660094
0.244893682638033
0.241565537130532
0.234266164698304
0.235494577632707
0.24175228818027
0.239705289806377
0.239404342375371
0.230895201846919
0.23596031747627
0.233493402781403
0.235395257155855
0.233458880439097
0.234113746995179
0.228326232877689
0.230439784145378
0.230640824270966
0.233786173334937
0.227290367333158
0.226754547644651
0.231534496505576
0.230216644736607
0.228260484726778
0.231557033122409
0.228255522199093
0.224729853465103
0.226245753165359
0.225244493030825
0.224843303789132
0.221928923815408
0.222898304741566
0.224726913559229
0.219176953574108
0.223574366098531
0.21992701327953
0.222932677158578
0.220053519556719
0.222887422241808
0.222858436284305
0.221849578341113
0.216869322270607
0.221989563300851
0.219344630904796
0.222318864453255
0.216087384580989
0.217064415972889
0.20976101483161
0.21856328692275
0.214516167721485
0.209738465415089
0.2148076956576
0.215263251416879
0.217835902869229
0.212452626744587
0.210062824376267
0.216443375043843
0.213372410918178
0.216522018355271
0.207871131740753
0.213651155167267
0.21250303249725
0.207088889517156
0.208458555795394
0.208594131344005
0.203984850415138
0.203763333084471
0.206318644262822
0.205119610420159
0.20177785332514
0.207800859042782
0.20430135156888
0.203603281721619
0.205008008855051
0.209057885575345
0.201847594343427
0.201272900849394
0.199219940625892
0.202841599365161
0.206721407269529
0.204982198587939
0.202728796911128
0.200434187351981
0.199606672477001
0.200675532086412
0.190866131672389
0.196961529988311
0.197131341858235
0.196824786771228
0.194304391721405
0.193446244389295
0.193003706522773
0.198248405254598
0.193502525734932
0.193872714520769
0.196144111139154
0.195026175120789
0.19336846891242
0.193588605242139
0.18918630023631
0.191551259196992
0.189475176734883
0.186691728033651
0.188652896937308
0.187226374899084
0.181872225040104
0.182264556967298
0.182916892591579
0.18815472766882
0.185575803952071
0.186761721299831
0.184005247843706
0.183464935888834
0.180056660788005
0.179278507880219
0.179589955196925
0.180296112077133
0.17856683120064
0.17848182570696
0.177571243245966
0.17874023623045
0.178347815430825
0.181151946418138
0.172786014629421
0.173750979345572
0.173132418488842
0.174035044195449
0.176465940841927
0.173615955771763
0.171697083617585
0.171267207938628
0.165485169940159
0.166840272141845
0.167488046206535
0.165403343193363
0.163509262902254
0.163189757799606
0.164796717231787
0.170662785299484
0.166312242613683
0.161518374149432
0.159390398787756
0.160810575911563
0.157613031295797
0.158051389929683
0.159450038564398
0.160762558917984
0.160129992751736
0.155945412396145
0.153714711328193
0.153968479822212
0.156139828803092
0.157229740979027
0.150455985397342
0.152523267704813
0.152242720829493
0.151379347629785
0.15238766461096
0.149018340706971
0.147813005120361
0.147852481333037
0.145034505146593
0.151819793103279
0.147703252779323
0.144189006861745
0.145501932544156
0.141754300892773
0.139709566439989
0.144871127698713
0.145411914924726
0.141806950001676
0.140677484502023
0.143029442966191
0.136417841209018
0.136297586790087
0.139957373631732
0.139620048284972
0.138563173476706
0.136939210012398
0.132132705513791
0.134475716964424
0.135138712907649
0.136367926426152
0.135200377848012
0.13131449662901
0.135118039588011
0.133755174638113
0.131571332553698
0.135937003834831
0.131259836001414
0.131507264389534
0.128242037399191
0.125625487058005
0.130089692701961
0.128991795222534
0.123783328452758
0.126940527443342
0.125057014772835
0.127085466539401
0.129638605745894
0.130193949123757
0.128176032391295
0.125696445017355
0.126050966830972
0.124807083452178
0.122170401689208
0.125213354863047
0.124490635482883
0.123273033126707
0.124148250984459
0.120922221690087
0.123048747252945
0.122997354892625
0.116586643244285
0.118052488935696
0.118638240216518
0.120188225532787
0.118977899836911
0.117932587195442
0.117786857044328
0.120474752622364
0.117997041630359
0.116972466192159
0.116863337478181
0.119086657462992
0.117117382302479
0.112874535563767
0.114141217256926
0.120141496098554
0.115293430597121
0.117772959290248
0.118988430883269
0.117945383241339
0.119755478517447
0.114220455187661
0.113949340274576
0.119828172222133
0.116877326266234
0.115394174038417
0.115099797635381
0.113578434957532
0.109497432467854
0.110656386470533
0.109445716670089
0.110342409603746
0.111807119228947
0.11243672466162
0.111927857234628
0.111391683118535
0.110513926975291
0.110668151531867
0.109499661480508
0.112680968061684
0.108999441720425
0.111329764253917
0.110017667880075
0.109345179272991
0.109342156183723
0.10908500670372
0.107966581906541
0.105846735130767
0.105182805165997
0.107688290838523
0.10585330923792
0.107204636225628
0.102660154496333
0.102919908159822
0.106125281177795
0.105915869992002
0.105343525626317
0.103859160424908
0.105964914790194
0.105530872214605
0.105223570088254
0.103192518259897
0.102602232183677
0.106764217272821
0.104274431281224
0.104279772176001
0.105199592306846
0.105678705529654
0.101877602716524
0.0994993798025874
0.102690375469193
0.104532401075919
0.101683892101306
0.103140179322994
0.101578775820533
0.10217009573084
0.101969304003622
0.100502898001872
0.101087190724232
0.0988961338551482
0.0997517190680415
0.0982951528508572
0.0991773882520472
0.102048203159315
0.0998456716866844
0.0986827901647963
0.0947411979823063
0.0973853675217083
0.0977678875298653
0.0936497560275843
0.09671324243227
0.0972285986995003
0.0952964777901791
0.0939181663103504
0.0940751759107656
0.0943495922819585
0.0943440904177209
0.0989048291028893
0.097255485097809
0.0932498177931534
0.0958290692918522
0.0921733536286867
0.0914644106379074
0.0945373304432537
0.0916517067409812
0.0946348327619075
0.0923666955660898
0.092759051891199
0.090998314672278
0.0880070308946526
0.0944169118977192
0.090725804305338
0.0900487661482978
0.0883566125007694
0.0864892456949881
0.0887557292474471
0.084160316050164
0.085429773100942
0.0871790099155272
0.0871733307718576
0.0885240596230018
0.0855182511988117
0.0833375103608087
0.0872975009869621
0.085512793671089
0.0825936386896429
0.0834574543975692
0.0848680545234057
0.0842667170114941
0.0834969781664284
0.080829440434578
0.0825723987896021
0.0828819791171003
0.0823801242719727
0.0857796981440719
0.0801845278021073
0.081863028979142
0.0833192716625206
0.0789549253524128
0.0796089771392104
0.0798296157777798
0.0813200949428088
0.0797492222554096
0.0814827403393754
0.0776290229726985
0.0779421286103159
0.0801652289310738
0.0790275127948698
0.0785483585968775
0.0757540204931019
0.0760607578359546
0.075862129776613
0.0740557829548768
0.0768791727684534
0.0757424135502719
0.0719036859677327
0.0744343900217284
0.0743359833782049
0.0763646774702769
0.0729351655528206
0.0733303082572091
0.0701369005623934
0.0727238837596897
0.0755049551872948
0.0716684961976741
0.0728094509029275
0.0711076446330417
0.0685565689279333
0.072909064839188
0.0718287650663952
0.0675475387735587
0.0728937447242013
0.0713836241256232
0.0666107809494456
0.0686030892264925
0.0709116082413038
0.0682523603162535
0.0676228115988363
0.0699523245364758
0.0675026063224898
0.0663580774867734
0.0680876788251735
0.0699988487922264
0.0644482906393127
0.067356076643788
0.0667316379645745
0.066438318671723
0.0649214219901905
0.0641785668104004
0.0661956806639549
0.0667392238884669
0.0650330825300856
0.0673387777677606
0.0680814878178578
0.0646884900017854
0.0646071898804679
0.0633650934896353
0.0651781220476861
0.0630910052077348
0.062952740207638
0.0641944353096678
0.0633017246719614
0.0626271481727912
0.0612713060761258
0.063241648574654
0.0631538254450452
0.0614607829107004
0.0622637843202356
0.0592176708869137
0.0589549820285712
0.0631778407110927
0.0617456795857895
0.0641731232938466
0.0612358469789004
0.0638013785303877
0.060400437401809
0.0612539245092115
0.0590008182832925
0.0616548275196219
0.0586512271103648
0.0580692131577216
0.0586607886049
0.0602816625096239
0.0617227706184943
0.0572272008943359
0.055085210560506
0.0587019668448779
0.0573203573636329
0.0564349484947349
0.0619812590837108
0.057728617961584
0.0596566015145531
0.0605486255225243
0.0495471064589032
0.0560938749011733
0.0512176637254763
0.0571818916100269
0.0586070016315427
0.0639361677468828
0.0563982222418128
0.0529289847383546
0.0528756657766598
0.0546791048840979
0.0582373525588555
0.0527641446146748
0.0536188856000603
0.0606981001560008
0.0558255189289876
0.0554817472409552
0.0549052240694993
0.0572275488469492
0.0516707956144103
0.0593746678259782
0.0564785065729041
0.0574545759134504
0.0560285324731129
0.0612378996130303
0.0508408152139795
0.0574495350591247
0.0482615430155033
0.053677269015775
0.0551315162425559
0.0552657358241725
0.0481949082347248
0.057536965335111
0.0540210203954267
0.057382464117743
0.0502081080788089
0.0601228604687952
0.0434498045252958
0.0575965159726266
0.0497858957284602
0.0573533865034181
0.0491464903826495
0.0567626434686743
0.0455636555739417
0.0571886541866314
0.0447285594264896
0.053913593633083
0.0466583426353704
0.0563224803757064
0.0508459536397089
0.0579395887966586
0.0515668290678339
0.0480132334267522
0.053977149356256
0.0492024746274375
0.0580727999259463
0.0449257121018047
0.0544648191936389
0.0486766177719196
0.0570585675399359
0.047733857904559
0.0543526609474751
0.0525087364447531
0.0544493603283932
0.0537801344551149
0.0518551311534857
0.0484803004755155
0.0531806609122622
0.0503676472972353
0.0525024323255888
0.050561475222723
0.0490572901000247
0.0530572309694523
0.0540226970485739
0.0498074209595647
0.052557782688266
0.0500002921303279
0.0502947482734742
0.0500030250457642
0.0500317277847301
0.0521709678629634
0.0490147187498215
0.052075321228824
0.0540755347680282
0.0484221175147182
0.0535355243314376
0.0499794378672491
0.050924461051682
0.0502975493183514
0.0540634385985955
0.0534960753674686
0.0523531204730944
0.0540086588563623
0.0500868020204999
0.0525364375294506
0.0489739430625642
0.0513883422718689
0.0499340893411101
0.0465656170917005
0.0515993268876071
0.0507557564315055
0.0516278920706029
0.0511983622844055
0.0540140492980043
0.0529012680088187
0.053117263636082
0.0504728212200278
0.0506419758276362
0.0496713624220248
0.0502771624151913
0.0511051792296006
0.0529843027004403
0.0491885476847295
0.0531896367728117
0.0514131399721969
0.0506503357496341
0.0522356654424607
0.0537567496029613
0.0488172128440211
0.0512267663416092
0.0498259375294701
0.0488853130361944
0.0490597515618179
0.051481062694765
0.048843982042817
0.0525202625470932
0.0530265118433536
0.0539701817541224
0.0492602766898107
0.0518727082745004
0.0534635411392865
0.0532887378628916
0.0507510799093885
0.0497942673181914
0.0513673879844398
0.0507738953731352
0.0523919828650864
0.0521793410720164
0.0495980807479124
0.0531755121254697
0.04927154734171
0.0529863732275647
0.0509930451916023
0.0527017085389654
0.0538246346522152
0.0528716591013965
0.0529725687951418
0.0524744502086973
0.0503241588378785
0.0516793292702519
0.0510913617975681
0.053227696385263
0.0521512413740292
0.0518376817919208
0.0515955104375249
0.0534446705992663
0.0508468708678992
0.0510009261087887
0.0533804298778517
0.0525679647365154
0.0525864186200555
0.0516659915698983
0.0492049098028904
0.0538910031465629
0.0507287489421468
0.0508748420734451
0.0508857363149366
0.0522642484043692
0.0532732526650516
0.0536296684289432
0.0546601503196412
0.0537600446002435
0.050420495207942
0.0523091045793623
0.0503947202502538
0.0548986280433441
0.0513287282777969
0.0555530914463968
0.0544763351438734
0.0532442887222603
0.054251281602663
0.0563245052619485
0.0516226170251175
0.0579055510252402
0.0534997784627067
0.055077084779422
0.054636739109181
0.0545644028377735
0.0559109264408344
0.0556683428673967
0.0546080682525671
0.0577623481711128
0.0550479783191526
0.0544066273429535
0.0543801467905886
0.0540975322551121
0.0528381146061246
0.0557492398222009
0.0554601441128516
0.0546084256338861
0.0520549101543669
0.053262975287466
0.0557810896208495
0.0540108706335744
0.0526716205894399
0.0542828062259806
0.0565656732295053
0.0566592056580943
0.0572813601565841
0.0554254077165486
0.0542822932155283
0.05572950018767
0.0557193885750057
0.0549609900493755
0.0550888679761276
0.0554345087758945
0.0541439559620226
0.0578957306095178
0.0554866294540812
0.0580925332724397
0.0542817119680271
0.0569497150646718
0.0569511229021315
0.0568128503357822
0.0548627546496812
0.0559477307650674
0.0592086827836308
0.0577534014336539
0.0554172872571981
0.0570341449676303
0.0576168407345179
0.0574825982924939
0.0580382191463341
0.059821189175
0.0589757081073443
0.0578265351033499
0.0561243856622517
0.059802359352792
0.0558837894201094
0.0544918453947884
0.057661233544731
0.0559154924620055
0.0552466049210826
0.0549882410616966
0.0552440519440966
0.0532129430097994
0.0546560041985496
0.0545364606164161
0.0550536607425516
0.0548066648967212
0.056640091238167
0.0520555386834514
0.0550088254891553
0.0530103819092759
0.0535511110350497
0.0560075541627119
0.0549425957853229
0.055618850441248
0.053927872989341
0.0554634314236239
0.0533325477036613
0.0524257867592228
0.0540593538057488
0.0567000658493917
0.0533838716409151
0.0532615829373383
0.053734001443223
0.0546195029854313
0.0565726290344514
0.0514811206522581
0.0577665240021377
0.0514189121487533
0.0579038758868782
0.0550205264909488
0.0584637304106089
0.052100258090957
0.0552251044511531
0.0502962262832151
0.0532066395925686
0.0523093527660619
0.0499253207905538
0.0529565626426309
0.0537335760467246
0.0539968393774298
0.0513857119398756
0.0523835399775502
0.0515548104379434
0.0539993567094442
0.0557860284301638
0.0533242912967324
0.0543668822071131
0.0510336845185617
0.049332212411212
0.0524201864596981
0.0531088544812618
0.0524649767916986
0.0549700524965521
0.0504714681347909
0.0545681038004322
0.0525195092414861
0.0535115703702123
0.051746784867231
0.0529282637601739
0.0524401500389702
0.0502487927967965
0.0529246170895192
0.0508066286515602
0.0503223069584664
0.0506174782550933
0.0508289913455655
0.0520457560604227
0.0530122612513439
0.050391954728077
0.0520622746422505
0.0509695637896699
0.0525005119355572
0.0506940829738789
0.0487140329875176
0.0504737248811169
0.0526917458860955
0.0509326792844017
0.0527543430945583
0.0530941303241985
0.0525195155787195
0.0501990574947551
0.0528004037668567
0.052261475960007
0.0509555951454823
0.0476033651933725
0.0504947831314414
0.050778254956094
0.0512273100770985
0.0501240142063404
0.0534748556405434
0.052316915071744
0.0515822102729686
0.051656518413862
0.0477339441434941
0.0509686328475394
0.0524617718158488
0.0487697996016059
0.0504763169842438
0.051112456153752
0.0504883901221382
0.0491690046877447
0.0523546446359177
0.0476201501481201
0.0497802965164177
0.0498495928978596
0.0499377069205815
0.0513996540240219
0.0493766449674145
0.0500923871659368
0.0479021351876864
0.0534905158873551
0.0487306457799272
0.0488162886650169
0.0509810529385376
0.0451114377881019
0.0469515097523478
0.0492644638335684
0.0472370667821097
0.0472030513055369
0.0472095902956253
0.0447284641984097
0.0493402986525327
0.0461540609260599
0.0486602885538094
0.0456923486695208
0.0448176698257641
0.0456267634309218
0.0484081758359998
0.0470170636574016
0.0462384925783977
0.0467418210855274
0.045835309740185
0.0443106755568985
0.0463805440311343
0.0484307870861328
0.0445238808103019
0.0444474653930661
0.0459450920512084
0.0434381758136545
0.0436103142159309
0.0439279210694472
0.0460478811012729
0.0469226508204255
0.044765387814839
0.0428308358128692
0.0436487161334633
0.0435154190344139
0.0424205090772107
0.0444694966449938
0.0430165323910288
0.0449896161974915
0.0445605275246386
0.0422559938976838
0.0409514008765177
0.0423731897973708
0.0437775599129896
0.0435788263120018
0.0397556482654195
0.0419488032675395
0.0417068640407319
0.0431457238583815
0.0408494353063915
0.0408829231479898
0.0434945378427951
0.0403360501557404
0.0426305976375897
0.0420014019979031
0.0430738453797462
0.0418924070309911
0.0394564388616564
0.0408078670738815
0.0407506856998091
0.039143306325653
0.0423649003022658
0.0399829093999229
0.0433607646833486
0.0416826167531991
0.039971511023425
0.0430836947257151
0.0391662338531329
0.0404295499656874
0.0408861551626509
0.0400725316197722
0.0395859343663624
0.0419403995084697
0.0418516018878907
0.0429358419508761
0.0434342128800691
0.0413636245151954
0.0408857685899459
0.0413010777155903
0.0377901078499707
0.0400328225245711
0.0396438798279674
0.0398824412564111
0.0383527517316139
0.0429238695383246
0.0378649702589252
0.03922281087599
0.0396998604690956
0.0387222239278486
0.0409130228243943
0.0401886612377267
0.0381171742568875
0.039151054190668
0.0379178097775351
0.0386248512602796
0.0384495018091141
0.0388683183744812
0.0393705418726975
0.0418772918610058
0.0385447416499017
0.0402506948067966
0.0369890326945182
0.0382902009319696
0.0394159219839244
0.0359901704227442
0.0412174657463781
0.0382264413453774
0.0405511121796442
0.038429712940065
0.0377806452434423
0.0394634764049908
0.0396665576092216
0.0365861989661471
0.0360785391677513
0.0377881749710833
0.0410357286467616
0.0412578050154767
0.0367223553618753
0.0384461125210272
0.0363168668441999
0.0365977062503693
0.0411366114259095
0.0385551316913113
0.0368747529141418
0.0380069595356564
0.0350750634232412
0.0403011322672871
0.0389764649717994
0.0403959195498953
0.0392987460334935
0.0405987074218565
0.0354736221310161
0.0388414553578346
0.0367203749423332
0.0384103524078732
0.0417724964439784
0.0383439689800778
0.0373288799089407
0.0385528745968746
0.0375268314531045
0.0378144165749241
0.0383177184761578
0.0381659435248311
0.037881899604454
0.038272248964732
0.0390139488638346
0.0370549186634377
0.0378256716430057
0.0367910100910126
0.0361419347632553
0.0387841762741904
0.0399411404162194
0.0383933403332479
0.035455719263551
0.0404855800530766
0.0402488388486021
0.0393128153126341
0.0392166590941181
0.038316836660416
0.0369622469341702
0.0363907527222477
0.0369130029767556
0.0399025579836923
0.036651104009665
0.0387344748195255
0.0380607572090927
0.0395990424158477
0.0366752552911252
0.037311737610748
0.0392017548087725
0.0374632976799372
0.0388996019732661
0.0368204734006459
0.039263886535301
0.0370910400376646
0.0363959779640304
0.0396409106206051
0.0363218512219156
0.0361617014423847
0.0371832704136666
0.0369297159801394
0.0375891866491866
0.0374785236742926
0.0379349212137451
0.037674634032556
0.0382670073013786
0.039658506721986
0.0390576537144495
0.0377273449460631
0.0395954910410882
0.038399177933677
0.0388471041910086
0.0407424939939573
0.0398788573986893
0.0376247051230025
0.0374812628366104
0.0372706675871432
0.0380998661462754
0.0380549520228181
0.0411932557832566
0.0405873043223225
0.0382503118778344
0.0388232328419955
0.0448234255723587
0.0362355824890544
0.0359964971020265
0.0371054184086759
0.041355128954461
0.0391887739366231
0.0394181643147409
0.0407892809121714
0.0373892858835434
0.0402958116642861
0.0420074150723048
0.0387839876640998
0.0404177679718557
0.0396323589003855
0.0360739452989221
0.0409345657139094
0.0389746242448387
0.037572177524051
0.0412651012388653
0.0409419741449268
0.0400627739026886
0.0421138813599493
0.0393263266294443
0.0426368433776049
0.0399889563269105
0.0404638351205533
0.0396769041817765
0.0398656336719758
0.038419987120623
0.0426152375152053
0.0431877712758404
0.0405009765527252
0.0415461712776252
0.039579090403366
0.0427430694281037
0.0411834223772952
0.0400928672898338
0.0412513928978396
0.0436253955333725
0.0426154724982528
0.0403048089627752
0.0419012178852925
0.0442080549236104
0.0409713848811871
0.0425902532947294
0.0404162072026083
0.0425286074192409
0.0453796865627926
0.0451497713994377
0.0419319696719957
0.0434487512981703
0.0445766108850037
0.0424118537966048
0.0447847631609065
0.0440097074789542
0.0501344275887234
0.0477709078161215
0.0444095878787654
0.0480517970535388
0.0448939606088726
0.0478204046931228
0.0450640596993705
0.0486496599971773
0.0441144123255506
0.04841174701936
0.0437664523517459
0.046356027923195
0.0438248587011361
0.0529805175700581
0.0498517522804808
0.0480805581674886
0.0473818815975914
0.047482016822343
0.0487729993596419
0.0486749611324173
0.0489274602540181
0.0464941865268458
0.054581867695606
0.0427241975615018
0.0507887584054135
0.0503692716566059
0.0521622954594182
0.055030771850477
0.0468965537548361
0.0524846258351318
0.0506638710089577
0.0513847158851641
0.0513904569292171
0.0546624724934808
0.054374736933582
0.0540073794624353
0.0528628875924428
0.0554425673883111
0.0531934412648936
0.059978159034552
0.0571618834683868
0.0578343143210006
0.0588142381059291
0.0594883124071462
0.0596038089979207
0.0652862553742715
0.0592777543637446
0.0637891936376896
0.0635344243187317
0.0654118019663256
0.0634686232103733
0.0638649147291382
0.0682178568229799
0.0665276783039957
0.0680700780210806
0.0668298117574199
0.067747353874296
0.0721717286551321
0.0704494477259893
0.0705048246103636
0.0767868287327806
0.0722923329217493
0.0753666562049909
0.0791326262573613
0.0803521470799962
0.0753527105951706
0.077761482555376
0.0772092370425224
0.0813648586015645
0.0771971247396929
0.0796569517733406
0.0818845865041956
0.0844216183849009
0.083631791907145
0.0853275990870106
0.0885839145699471
0.0852275449413234
0.0847121043452949
0.0888536065368013
0.0901040492326703
0.0965146699505846
0.0945587852895157
0.0959787662723124
0.0920389050020724
0.103104954188025
0.0959187392385523
0.100524120044358
0.101736792824548
0.100414179420998
0.102761422005058
0.102753217115528
0.10383970554332
0.105360429215038
0.111277238773707
0.111395452231181
0.108478052665625
0.119164738250141
0.115930429912433
0.121971560252307
0.116697494866901
0.135136796744727
0.124596951277885
0.135302678273954
0.137314476946777
0.147408547237297
0.149467274639155
0.149840012622075
0.157478170024444
0.16078332199638
0.16747505750673
0.174370234584097
0.177524505785439
0.183148303365443
0.184984529832289
0.197077489935855
0.202710431376068
0.211053354871334
0.207114199518993
0.213470861881773
0.223269729300648
0.226972566894528
0.239469085712042
0.250946710697818
0.251228444853043
0.257799010137019
0.269106315206101
0.275279440849518
0.28464161456615
0.283214451841913
0.291339343012002
0.298083514329614
0.312654600107855
0.308697233561671
0.325366107226375
0.333039804734578
0.337938771298511
0.349139463161306
0.34606511036802
0.358386689883154
0.366234617715281
0.38030344430751
0.3786162049278
0.3821317524624
0.385654485349132
0.398437627355609
0.398660782847545
0.398385892707776
0.406056390968875
0.407062227143287
0.428844257923788
0.415949042117582
0.432938341184519
0.431447759679692
0.415345143307331
0.42524017109235
0.422825006257247
0.440346287223796
0.421639809119023
0.431403677624101
0.433053851063724
0.426496115103036
0.429004924717947
0.429927380197015
0.4297788553414
0.429927201428286
0.427734498931279
0.42493979285619
0.435358398681036
0.437098013274964
0.424849255102774
0.457173417250155
0.429597592699775
0.428452519249269
0.426843181915635
0.421179814403559
0.419360539665725
0.434079044975344
0.427570718915877
0.422875661579316
0.420219655147265
0.415939702318155
0.407353095949159
0.417962412166719
0.411592810763754
0.403364293753325
0.397313407363442
0.392326167598332
0.392431043453468
0.38780668196824
0.38604285034529
0.398484481717908
0.3795275982526
0.378859144901558
0.375261317278181
0.371209694346619
0.364026752952779
0.368440494991807
0.362936833223459
0.362809324442441
0.361740476841077
0.356113322014964
0.351426318911622
0.354695400212176
0.350358536227308
0.357112393513853
0.351634920688925
0.351469136484269
0.350218399582328
0.343591759860178
0.347343259352595
0.34863044201223
0.345462998265607
0.34504874035884
0.339729975839817
0.341613506781382
0.339594051860793
0.341532490412629
0.338321665713853
0.342731527558271
0.342293885344779
0.339160316443432
0.339582099027533
0.337912997316268
0.340863972754277
0.343175211303271
0.339061192761121
0.335524137698068
0.337563856157849
0.336830530478245
0.338674145082811
0.335651173612287
0.335262995513367
0.333687898916463
0.33314306108689
0.33222417658733
0.319045178344888
0.328816443301037
0.33070264932912
0.327014193343999
0.324747877030567
0.326792684411886
0.324564512540159
0.318198284801264
0.31186930250888
0.312137526436678
0.308536417410037
0.311750676664883
0.306789913772676
0.306718760258014
0.302966749418644
0.312652300340516
0.31052050630958
0.286791936448359
0.307830631469257
0.299961124798954
0.299797809695828
0.296699106791988
0.307075400034342
0.29519431494904
0.297070336683634
0.295138301795825
0.292231027021855
0.293182829131514
0.292885961601217
0.296286413861854
0.286561999658511
0.29248038133359
0.2987197711631
0.28775042775432
0.28766359099518
0.293345047180775
0.28312658652733
0.280919103343179
0.27894049469214
0.271859023782411
0.272445075554231
0.271355347904484
0.263766861879421
0.260753287689362
0.268521453178056
0.260324548368795
0.259876166625752
0.257071845985989
0.253614212694472
0.254907888497771
0.246638754310903
0.248181158748649
0.244812133714199
0.248275053636599
0.242489632926543
0.243598535576817
0.247675048204638
0.244663486457337
0.240145906070033
0.232798445349112
0.233559870623113
0.23428708033323
0.238091647266355
0.228880283339159
0.227695030626903
0.221659112595225
0.216805037467242
0.218257771872783
0.21716475102811
0.210652540594958
0.211737107150424
0.218036832647912
0.216035073578864
0.209378834500168
0.20905658126998
0.204788083586311
0.205250408706477
0.2046475550619
0.198881785821699
0.200038223567332
0.201393669527
0.199014964023485
0.205527936125743
0.197090063278465
0.203608350598112
0.201110588570519
0.20234597170722
0.20397035316548
0.204805661413754
0.204220139234772
0.214851617323471
0.213068033671538
0.214498208019836
0.210837294797481
0.220477527381235
0.222046862770594
0.220965952943139
0.224071775041092
0.231045821921625
0.23053268025235
0.237091201382346
0.243533948383039
0.248627756670707
0.248400040463316
0.257196187042507
0.256518292254694
0.273038082771266
0.272838492765468
0.277529188282865
0.288678750559927
0.29070971333068
0.297099133245702
0.303669222051069
0.304088458340611
0.3140925495093
0.31683269184948
0.321530063766975
0.321097065450759
0.331032586623117
0.334005190072024
0.342836191913394
0.34640732112398
0.352383194000857
0.34934135208776
0.35325353965783
0.35972650165079
0.357865559629591
0.377719396828307
0.369893645286069
0.364068931232694
0.368886198217459
0.376769284035825
0.38142545860533
0.378557869217104
0.383649237918708
0.380782201899175
0.387157553735347
0.388966771070468
0.389206094988397
0.387506146654717
0.396167806137838
0.403854474024543
0.405171893755316
0.404370161373627
0.407322374852078
0.409153978044359
0.412503893400835
0.411720551132554
0.434344718245457
0.426283321505288
0.425116769157766
0.427553905082542
0.425633245100668
0.432374762823527
0.440090748591152
0.436535690970715
0.443038289414128
0.446766661597981
0.449845699147505
0.453458321852417
0.451543703303918
0.457125517525124
0.467459866487696
0.469032448001113
0.46620889402682
0.46478071451759
0.461056624221827
0.487969738834289
0.474866462765819
0.480844061398937
0.482431082701476
0.477259719701286
0.482141350153538
0.486916993090085
0.487322907669185
0.487273835795391
0.491686381227945
0.491488682810222
0.49607689109297
0.490281626879538
0.491976229219559
0.492142682682386
0.498956242804291
0.482881342574366
0.481468093616949
0.493635532549621
0.487397419134473
0.483420135008392
0.489633524638199
0.489878930550198
0.485447099515536
0.485756712309192
0.48187978606124
0.481837653874625
0.485035369691811
0.486239073845465
0.488042600144033
0.490262722929631
0.485649063906892
0.491347929909327
0.482659499536179
0.488857551968196
0.498313753469665
0.492521235311219
0.498378252655635
0.492133288469372
0.493758258687895
0.500349731510204
0.50457814990804
0.506575712543824
0.506240895086792
0.504281861233846
0.513045364232376
0.505408109327181
0.506187641197843
0.506800414560687
0.503135138005649
0.497603283858873
0.50160116276497
0.49983362733981
0.502253380422486
0.499718742850152
0.49096715739751
0.483274306709122
0.481181698402633
0.479742161452425
0.468837826671566
0.467595376420454
0.465361871083007
0.456399556867351
0.462219601380697
0.454592865103435
0.456941650322163
0.450878886990164
0.449068949572188
0.449099871110488
0.449164054457719
0.434699021848594
0.43613095052686
0.43527308761863
0.435813964809886
0.429503196491456
0.431062859279816
0.431705901192314
0.432298493361841
0.428679764534745
0.427695641699298
0.426279672085011
0.427597984953578
0.426134450799478
0.427008997984308
0.426121014388163
0.431222736175424
0.427708047577652
0.431948438851886
0.424351890618867
0.42451833913779
0.423407289627714
0.426376342481739
0.429552997060787
0.429121412682466
0.424247511273377
0.421017130292676
0.426358791555939
0.421829227864924
0.42177377313157
0.423046973883587
0.418451030281256
0.417205606061396
0.417219675788449
0.420608204401175
0.413234936835025
0.414264318019537
0.420995475402041
0.41933071862611
0.420746235908663
0.418081827327705
0.416281020590366
0.419668884457264
0.42123811959557
0.418614739139012
0.416186218970232
0.420094369247915
0.410686996240293
0.412710174808402
0.415634045593145
0.419566994115083
0.41916611925756
0.41313525565762
0.415647625611081
0.41262096468178
0.413624838710785
0.413941898924394
0.410739050850902
0.401159470800251
0.398091446442622
0.400338357616319
0.392848352092409
0.390647650811727
0.388624965222495
0.387309492154597
0.383088725596205
0.381283052182699
0.378976537191519
0.378702833062956
0.369705290604207
0.367455579948806
0.368216827347597
0.365099933145559
0.366092653899694
0.365612328866858
0.365561789986905
0.36452967747637
0.359428398981145
0.356588297248267
0.362507195957243
0.357555995331428
0.359954112272496
0.364956630712602
0.364946410845076
0.360051218850714
0.363197446869836
0.364677690055806
0.364978603625411
0.367025323576451
0.369774027983138
0.367167352740684
0.367090038765703
0.370788343692608
0.370661060608464
0.374559832803855
0.377396708280359
0.38041235192844
0.382786380355965
0.382536859225701
0.382777412850394
0.383560724606975
0.385100108797573
0.384670331049891
0.383675162541209
0.385966449364339
0.385447953201839
0.386493361419655
0.387981491943707
0.383273403999162
0.383002386516754
0.382336222977283
0.378220864014041
0.385330168317872
0.382432884172072
0.37611645128879
0.376549105181842
0.376475098770244
0.374807548658299
0.377493852325346
0.375851528931746
0.376108731004314
0.367385958210331
0.37062061479275
0.37142422248658
0.368106408475461
0.363538031213271
0.364878815165769
0.363542151863462
0.36155861897282
0.360902003804817
0.359065521142831
0.360486621187677
0.357797384843901
0.355926253979575
0.355782771137015
0.353320880952587
0.354597187889303
0.352567035093143
0.352152499875719
0.348605455386956
0.348576572084892
0.349564469708318
0.346083697438459
0.345215650213109
0.340463990504737
0.336906551124301
0.334548928607661
0.334765027385028
0.339754180160838
0.33132605023582
0.330974545584454
0.325924796374603
0.325825198605896
0.324077159934139
0.317703700331283
0.31847054944678
0.313172782028246
0.312481394277939
0.312892170741083
0.31192286254363
0.310184224244261
0.311063718806667
0.307839480715086
0.310502273594196
0.308334973232972
0.305403940386683
0.306870247055789
0.30524092348132
0.304316209497125
0.300093477351027
0.297523516904522
0.294575686421419
0.293980249340627
0.292548359867473
0.289759930418493
0.281586343691621
0.280800214290079
0.276088349074609
0.273687237739662
0.273938720304929
0.270701111452657
0.270304666787622
0.274030238603463
0.273212416737092
0.277918562980275
0.281806519678501
0.290677043401549
0.297270741655206
0.304911102343898
0.310340811865788
0.325642859794808
0.333657831912642
0.351395729909544
0.362757987680966
0.376423834845088
0.391007574900962
0.407540908645531
0.422371144871473
0.432643891460451
0.449905446285658
0.458808746922698
0.480088650667352
0.487942253977903
0.508636203609163
0.516532916089431
0.528843549155561
0.540694126458324
0.549911576615297
0.564129960450751
0.573371110914579
0.589936322821282
0.600543061324044
0.607884236652865
0.608468847804499
0.624003304033535
0.630796635068168
0.633083433774259
0.640369991357964
0.65043773762357
0.645939141529217
0.646481469510389
0.657183832617878
0.652533855430125
0.653231771150461
0.656019527801926
0.655521665823806
0.647051927130718
0.651467981481744
0.657164093862938
0.654117784408568
0.663085036598522
0.660233019714551
0.662965443823414
0.663262543001682
0.666040562329713
0.674438723794634
0.678522083667401
0.686700492082481
0.68900050252017
0.692861982831979
0.695753773949705
0.698090919366259
0.704280925982498
0.72205101180244
0.727380505436551
0.737648645224709
0.752996846365206
0.755199517562832
0.778792046383347
0.774564564872044
0.788127664489182
0.793845477257642
0.803336940985523
0.814642404382111
0.817977972166134
0.827427411559314
0.826481381442429
0.841030454134884
0.829635759829555
0.832592858062825
0.838853053826422
0.826835190448302
0.82660896386365
0.822468218313537
0.821656858968814
0.825480584809815
0.828908087683616
0.822216552242425
0.834699618467592
0.822874877611226
0.85098283250262
0.845500352964377
0.872531039606694
0.886309496361972
0.890137239620376
0.90351082117591
0.919363716327385
0.922660681225773
0.943470121740124
0.959218741105871
0.98105659955505
0.986255341418809
1.01853098149813
1.01860932615805
1.02457908237515
1.04682383484822
1.07457114618467
1.08436329835926
1.08906834487184
1.12588377251756
1.15543030167579
1.14115430647676
1.17657757052396
1.18681210055947
1.21267803831943
1.25319985291915
1.2565339559838
1.31027018702332
1.29859566907896
1.32458285006716
1.30556578736984
1.32714692880436
1.37474116138969
1.39974502110142
1.3849342205289
1.40951284889151
1.37190548023965
1.3821904837199
1.45158847150051
1.41263913002974
1.40350822781542
1.42360904578709
1.38574815781053
1.38175352647404
1.36594369890834
1.39563561035599
1.39021074025624
1.37163113726918
1.35893060046275
1.38900239994195
1.40564873126271
1.37101986681129
1.36309148468992
1.37581891341662
1.41002764402046
1.41154024202139
1.45973685792272
1.44455986753591
1.44044253811893
1.47248821081043
1.52778343239985
1.52656271142237
1.57131220309015
1.56422918086082
1.57365572150034
1.54510799925607
1.53310600355391
1.56461986851391
1.62379939282075
1.57507095589151
1.56716091534951
1.64920848522886
1.61136924578149
1.62487689566453
1.64074966888593
1.61128175648635
1.62057491842701
1.7138390191493
1.64663480498553
1.6845187769006
1.66244037778303
1.63489684405841
1.63214336931381
1.64039346728925
1.72435918139632
1.57817935165045
1.66843960625668
1.63443124152609
1.72875162863018
1.62505095216134
1.76118804716348
1.67027656118387
1.66076975042771
1.64448518028117
1.60952616282117
1.48517052575372
1.61311750048298
1.43704035403013
1.40566042854783
1.40476988281868
1.33397950508573
1.31702760561556
1.28886278078045
1.22053009420261
1.1735248283731
1.11109939134183
1.08924023637161
1.08736580191832
1.04559324962231
1.04690633483263
0.997453755684581
1.02359825863951
0.978538698843644
1.00125674247401
0.971304998227952
0.956462860839276
0.947724926390826
0.936614373270951
0.926641983766642
0.894154115769326
0.90938616368286
0.885778914879446
0.85355308246811
0.84623505972528
0.847835852810298
0.820252747354324
0.778361925106451
0.763449696094136
0.739498917755171
0.719094666671372
0.693786742657875
0.666012361460584
0.634353533117525
0.604102952796551
0.58120249320257
0.56369535219347
0.530192910626904
0.511369269418886
0.479247340433076
0.461531686335336
0.435117581799157
0.424874144248951
0.399887472868238
0.38076906276252
0.369162235894735
0.350431564651648
0.337965783894058
0.326840131244483
0.320271427544087
0.31113708306294
0.302214529514477
0.295097730976293
0.290037036238645
0.2853088584169
0.284989549578873
0.285461457748285
0.281820217776587
0.279783718730054
0.27951957119274
0.278477936984824
0.273031846992447
0.276701160448374
0.273563243218592
0.282832288809232
0.277322545354407
0.287910388231175
0.285748182400272
0.289321766059311
0.286385830388512
0.28660446172662
0.287713511196383
0.287426773903453
0.288736274045205
0.282514003382803
0.28113439035635
0.275641219836392
0.273403231923498
0.276666004711407
0.27570094505366
0.270536275697498
0.268171021033684
0.268532859952049
0.268422872234561
0.271421733476367
0.266380618853475
0.268865382067054
0.273841052248865
0.276568709945486
0.270104193966918
0.279269540710882
0.27964083272242
0.285252682050077
0.288315387642116
0.285095368503217
0.289024494506095
0.287616267331133
0.297946781873421
0.287273852321986
0.304430106285234
0.302123716368494
0.297563432539058
0.3056658001116
0.299732237107011
0.302377415992424
0.304916773227453
0.303598900392358
0.308263770117378
0.311852480271017
0.307288292742519
0.313978468177175
0.312427230920192
0.326269100185452
0.319298066994096
0.328347954264103
0.329421906620199
0.347559278815185
0.342485333619259
0.360259092304073
0.365745100490954
0.372765133622566
0.380105209679844
0.398709775830836
0.402130524173673
0.414923000818387
0.416385573843774
0.421116510044535
0.424669238097686
0.415185085494232
0.406672951628301
0.41222364734903
0.403457046395077
0.389421176457049
0.38739346929043
0.383207064501293
0.372741726118121
0.372709291016381
0.374025401866862
0.37139770922102
0.35982867697675
0.357118494663156
0.364024107814913
0.364857001008714
0.36491779803769
0.368352603933624
0.369819361396084
0.377075065052804
0.354285884645556
0.371179275808137
0.347563061070054
0.356812118687067
0.349952310794885
0.350883418791278
0.340653448597512
0.334386780815109
0.328644046048548
0.329670439423596
0.333602694307725
0.321841353652286
0.323477269996317
0.315482703390759
0.324868717005895
0.318373134109976
0.313746894730991
0.319257319363386
0.309425244681019
0.322218005402235
0.306445254345192
0.303544503323671
0.293776514708558
0.300904449112673
0.294570233610823
0.299348766644239
0.291948284023328
0.305250607348732
0.291833392882211
0.299575661564988
0.301132071240047
0.289730956431058
0.292527321776089
0.283958550129865
0.290698332819211
0.292043307978263
0.279644729272701
0.283576631949795
0.285374972913421
0.279985478477756
0.273139704008173
0.280836991835962
0.282903404297697
0.279100635435841
0.268451909722424
0.268701744644936
0.266078296676881
0.273784964135306
0.256667445026628
0.267742666851735
0.274949173241332
0.262299786969893
0.266019457904757
0.273774816979894
0.279825656098819
0.279647016777484
0.268073952404905
0.280041891676487
0.272173355910737
0.275906489317756
0.275968952009492
0.269385625988266
0.282580784766855
0.287615757112318
0.279143650672778
0.281996794329845
0.28138187793671
0.291937487320137
0.290964262813824
0.299860056279119
0.29924635097563
0.297525747285195
0.313404684118188
0.321698695666495
0.307434026193826
0.317354443987693
0.323496532790511
0.348384642079851
0.328962441067401
0.335865106245558
0.334472351260974
0.363461028079924
0.361826327871098
0.368611535516228
0.383213054975115
0.405494416020565
0.409030073843206
0.423546095348712
0.430497474521348
0.455066241654043
0.467637916798675
0.484349118128323
0.471697368962885
0.485110464866282
0.494294815456878
0.476768187443562
0.488021101434521
0.528923859275489
0.500615349594974
0.523539032092853
0.492729659878252
0.534626080096783
0.487823080527965
0.503297341683958
0.498347609707297
0.495001375717461
0.473300530482837
0.491894851171408
0.47205008506342
0.486146907599413
0.46934676347666
0.491752906278388
0.512191456049599
0.471079424721513
0.472979698246522
0.454474914691725
0.457695634021161
0.479450627992092
0.43674953867762
0.465959482802331
0.466875635273437
0.43334664989841
0.425081112110814
0.439345437619592
0.41397089182316
0.420523913845187
0.422664921831198
0.46361727931499
0.425542978042474
0.43126704991347
0.43259307307981
0.434175798483282
0.42998625533542
0.431770995548145
0.426198043383495
0.437975216020491
0.414916586098971
0.409066349950703
0.438546756098464
0.429082544021983
0.428797947612324
0.406158450915755
0.427243498211939
0.453734490096317
0.422971748847457
0.429433024304661
0.443212514144558
0.447392364335134
0.42616011662005
0.469297926294636
0.474238633432909
0.459715551157561
0.458187932331275
0.446713212149978
0.424830796158104
0.462779258531882
0.45726231431162
0.488068862631317
0.505338903678533
0.51996342330464
0.451294000811473
0.461062436210387
0.451387438915808
0.478582163307281
0.425975993980868
0.497070600396749
0.481952234520173
0.496002140366769
0.470806962324724
0.503078862868527
0.508602371244488
0.584570970907796
0.55328808777024
0.598998347080797
0.591638391909975
0.631862789837799
0.628579958324115
0.56050294065075
0.573739275179789
0.560614296633576
0.60961746352493
0.64834568343251
0.581547167674148
0.622240239736009
0.624411177184761
0.594132571004702
0.6248537869113
0.661145398428458
0.637605546022132
0.69297196070943
0.531043363775828
0.641999999576288
0.580851205426199
0.521617533992959
0.628683748502849
0.59508299606648
0.523782681082012
0.523558706089652
0.581970704349539
0.650579172366464
0.557679941077742
0.591583920912803
0.654880871099007
0.621519697186623
0.574909795489408
0.554391786667656
0.427387922279454
0.598778602360607
0.633774414796372
0.623209824501965
0.600079821682656
0.533366449473355
0.543100593730607
0.617641460500571
0.491025714264595
0.507302914522376
0.534518160270663
0.722075772847052
0.594237402341481
0.506666717154359
0.556472579743733
0.219205752236478
0.55712981385564
0.739502143640268
0.47685353786149
0.609975211497263
0.461358589694629
0.629051317049238
0.927997480935456
0.564045710280612
0.50880902072087
0.438758221793014
0.71857820287366
1.53892883312578
0.606175908078417
0.690146643892183
0.521763882753217
0.754511273143496
0.544106713008039
5
0.781008657606684
