3596
4000.36533379555
650.420452594757
1
2
2
0.0368550578487295
0.0319568453839599
0.0426594195700393
0.0388866763756631
0.0350765085209541
0.0307818005902809
0.0471768671795838
0.0311034961108138
0.0335570161219051
0.0388260093529332
0.0418388979513689
0.0365176402004925
0.0340335661721592
0.0259098377326268
0.0435217480973894
0.0303931921074548
0.0330432323362024
0.0322156145226391
0.0383185023645926
0.0281149101034608
0.0420199004516803
0.0295590863112862
0.0332502767288483
0.0309551361851757
0.0410743252618145
0.0232638692761887
0.0341776245331392
0.0381112871613202
0.0365344858288863
0.040634486738073
0.0359505583889303
0.0372379819197123
0.0402222733557152
0.0286218413682668
0.0367140895394613
0.0437910338800888
0.0403344955670204
0.0390990533761623
0.0308650932202664
0.0290069222617498
0.0338328583604934
0.0249589217319691
0.0404898607346309
0.043696619900169
0.0289297735143693
0.02541532075168
0.0375647728662421
0.0369326899156505
0.0287986739859138
0.0272144250605649
0.0325639372408357
0.0349788901563235
0.0455430056902948
0.0328193308149381
0.0368958061029582
0.0275935022915707
0.0271491004829847
0.0319893249714428
0.0357427355255371
0.0359540739438679
0.0489500435230617
0.0319145231128941
0.0258962875919308
0.0262914675280107
0.0389947810396009
0.0361813591810703
0.0412815240874672
0.0390372225534586
0.0340080138564872
0.0337020747592666
0.031102890043779
0.04497590411305
0.0234628815342953
0.0376080984717428
0.0350887792362466
0.0336121154111394
0.0345512507671936
0.0363696185809145
0.0399293951162849
0.0325628202663884
0.0335924617668188
0.0385246079304038
0.0284166909540228
0.0351373645765529
0.034211909948669
0.0261309332021773
0.0297513732447393
0.0192955507539127
0.0258863682928525
0.0293512984685261
0.0291391400898743
0.0311651042274218
0.032382438900614
0.0345189562367866
0.0415164187643274
0.0281300441137997
0.0330732949989266
0.0289622607502281
0.0199121866663433
0.035939382227792
0.0247043096434679
0.0343840612913532
0.0213402209320734
0.0321411147639278
0.062453269246709
0.0252239548255799
0.042309644108813
0.0340230781603482
0.0336809085191932
0.0336384558369701
0.0291509601083076
0.0261605078826886
0.0340262644491405
0.0314726667034438
0.029439608612397
0.0290305982779296
0.0168185092926804
0.0233548415835039
0.0211759060151645
0.0347449591798357
0.0285424109752072
0.0388755264515098
0.0241514309086777
0.0272546235130924
0.0318854658823831
0.0357184704478843
0.033683671166787
0.0237572100831796
0.0284285869334725
0.0311648458235173
0.0276960484676123
0.0250924161396466
0.0316174394264203
0.0267531471792346
0.0203995563760101
0.0259895763415839
0.0274854859021935
0.0301926482712757
0.0466396843469434
0.0239749617575045
0.0234937767301806
0.0252080706754186
0.0264796118292593
0.0206045048217992
0.0301325127552885
0.0273614162414388
0.0300825230996331
0.0386628729247836
0.0214447369916859
0.0311365131345531
0.0312134658103196
0.034173813473724
0.0257723521239453
0.0221436483491605
0.0303793500488853
0.0308772504355934
0.0209717593878482
0.0209232506245413
0.0326756476933367
0.0175301105810066
0.040591303610988
0.0161933082607235
0.0282794656066156
0.0281936895112464
0.0323106900263276
0.0258298734579508
0.0381696267306963
0.0201255783592222
0.0226641370453476
0.0329953696065365
0.0331541746247266
0.0250951810588259
0.0349375276886445
0.0252187685584833
0.0268834297991166
0.0238826692406482
0.0221091244744538
0.0315019150723592
0.0294261588597626
0.0311172179981622
0.030540708333055
0.0315019643831227
0.0327162560796491
0.031164096286423
0.0350101802502839
0.0204033421262081
0.0340653732239542
0.0362029876860375
0.0345565658254345
0.0397609678726776
0.0437410239603677
0.0265676576593376
0.0330603457013892
0.0226939572224115
0.0330438027464978
0.028082062290013
0.0529487095335401
0.0185827456435524
0.0310739943146679
0.0299755484705065
0.0343888304148984
0.0313024906789078
0.0341359527590151
0.0246141341851947
0.0272328290917264
0.0356487639322885
0.0382505954734253
0.0103503460246692
0.0355177914765009
0.0263149204024213
0.0369590327406728
0.0383701738786316
0.0442165995326355
0.0211910507980064
0.0423409724295008
0.0344451896000823
0.0281748369416795
0.0367546245476405
0.0337074214699389
0.0223409768762979
0.0300426431364351
0.0322550073024118
0.0327887795668762
0.0291933171574594
0.0307254925477592
0.025930348097092
0.0315289055235503
0.0284378551103805
0.0323796943212846
0.0364284943270829
0.0394825662017111
0.0266494541777181
0.0392451848769776
0.0306395855304547
0.034632170776741
0.0401370195533934
0.0380777184073248
0.0226500471644042
0.0364702559953278
0.0285087659421007
0.0366732915993331
0.0324722230223194
0.0304113864946604
0.0268661693388997
0.0354116075663165
0.0368280287617908
0.0510112441931498
0.0242916086414641
0.0378495419518458
0.028470245885293
0.0533758764374927
0.0335338373202263
0.0392485907927824
0.0319208679542145
0.0411064107814854
0.0348436182126625
0.0338068918026688
0.0220069986140744
0.0371964256036395
0.0413101873549932
0.036200962489158
0.0244587492956554
0.0399740601137801
0.0317393170994743
0.0310044955776475
0.0373846826342861
0.025482383825862
0.0488431141290288
0.0425289128825906
0.0168734434040848
0.0416275096571758
0.0399166089269318
0.0424986310081176
0.0341481908268046
0.0267154965836982
0.0361646843834211
0.0363058559807488
0.033316938003288
0.037958095683122
0.041388043638471
0.0415658258598675
0.042236465703858
0.0490478667725906
0.0313780590137216
0.0555749257855443
0.0298930787771861
0.0518738881198266
0.0297271790833936
0.0423647668383456
0.0365510302269238
0.0448699240694573
0.0394055860528511
0.0407754645374642
0.0322013879843488
0.0341930199340239
0.0390752872604605
0.0404220799417125
0.0412540142536393
0.0382030004307277
0.0373883317131181
0.0449695310278799
0.0390987364937178
0.0406741565489351
0.0527012450065325
0.050347538034013
0.0379599957150149
0.0421091232083514
0.0577671729243981
0.0517634747049133
0.0366839742004884
0.0461330161745413
0.0438867576438644
0.0427706885674591
0.0490757724321772
0.0494417456019586
0.0511424314032719
0.0429628944852656
0.0442246180154951
0.055616959217322
0.0501935101529979
0.0464223838700591
0.049835330824681
0.0503548923366071
0.0505005069247864
0.0571100199411781
0.0498103710918528
0.0525167631745796
0.0522108623140137
0.0553090417024948
0.0556308931920885
0.0634884725678832
0.0534511001833404
0.0588686650124537
0.0690778522719822
0.0526818283175977
0.0438416757211653
0.0589281650309022
0.0610914997594404
0.0640761858839566
0.0629102899199091
0.0724794328175475
0.0660707258472288
0.0711911556025744
0.0743195747115828
0.0779037208963482
0.0728703775530938
0.0925560972819463
0.0851281572027653
0.0677024285534581
0.0577773852246463
0.0733564826894008
0.0778498964193995
0.0899321155689993
0.0634468767851869
0.0721377277597567
0.0831323069392657
0.0759594193323271
0.078736670403723
0.0841717949871889
0.0840770110429277
0.0841198394761606
0.0889205499164688
0.0904079196720242
0.0911080393460956
0.091833403910853
0.0989000789300396
0.103481438609253
0.111373761649577
0.113872368686441
0.101463520896275
0.11472249894263
0.115426048840251
0.117108073764467
0.118722732755866
0.12095975578131
0.122051107587097
0.120750674408846
0.107696532650066
0.123400339090055
0.113839525428058
0.131245882992189
0.126413192224663
0.14297349407569
0.134226412733585
0.139049767475791
0.139987779012195
0.143433112494803
0.142803586115329
0.14831884981667
0.143267361707754
0.149922926736246
0.154487631508327
0.172254435592986
0.16080191226161
0.163493817049127
0.164544884320798
0.194259724401708
0.189060078743889
0.171682341565046
0.172776182016247
0.185682279043861
0.183886150363735
0.182882443123494
0.182118688900108
0.195770008757194
0.200461119230459
0.199840406192185
0.216846895531118
0.221219638222541
0.197066594738687
0.216364832393971
0.212372409574768
0.207045553629027
0.220111910801496
0.229545328007227
0.218445556721908
0.237759015018693
0.251882527272261
0.240346034555628
0.23957973023089
0.243767581584416
0.247741875603177
0.244361858335468
0.244187097314744
0.253935456514482
0.253631589708574
0.275037616844598
0.283751279322548
0.270925958148264
0.271652320767623
0.291897722444575
0.285724536259265
0.289681510098956
0.297094049996319
0.299626580225994
0.280751215880431
0.2945401706622
0.300241385600448
0.307759133234342
0.31299865679649
0.317436767900268
0.339315151053721
0.326472697759666
0.312532422213382
0.320109315585133
0.325019690770129
0.336208640335865
0.32995477178666
0.347187829274526
0.358152293427017
0.348447904317297
0.362053839178487
0.381211224255732
0.374986784363303
0.369156506255121
0.375055674543439
0.375900144977324
0.373119337164167
0.381919356935375
0.389797789976989
0.394442495791898
0.401360061455536
0.408427958471163
0.414966165632851
0.407996284037147
0.415278208926212
0.424203542430848
0.433734465198773
0.419418398180948
0.409746422844412
0.451993881207567
0.453287594384509
0.440726006910519
0.471303082987483
0.492363535394482
0.457755896946821
0.460453495191243
0.458585275259036
0.4813839524687
0.493212942718777
0.487023242939414
0.483438082388686
0.478491816652912
0.515837123238844
0.523730881120553
0.508650934955287
0.496846275184023
0.521591175004273
0.522811742209795
0.543320458017506
0.54561877833962
0.539803506273426
0.54834109214808
0.542689072758455
0.537303310122273
0.545272239303277
0.56754525000797
0.587972515881652
0.567160945351498
0.58208517298946
0.550921983039297
0.544103381882444
0.586868749230237
0.610165405494269
0.592399644274207
0.58441865627282
0.619501191959607
0.63454708267247
0.625162117162175
0.613692318252997
0.61496444741092
0.647830089498842
0.656372039978737
0.645452737373484
0.613585324613019
0.627386082509838
0.643497729598723
0.675759127463374
0.661162114951274
0.699926000735892
0.684337329005223
0.661095601234217
0.659464802807883
0.701369926988521
0.705243958259017
0.688196446955195
0.694842385206317
0.727011159491469
0.692431735468564
0.673153378986865
0.699559397430675
0.744073624132634
0.735924741219281
0.788679428104351
0.789190595277574
0.737995445513549
0.715842613993305
0.754396279821032
0.782130614193393
0.808305392134292
0.795167473653079
0.774363778405824
0.759047010861844
0.833022330493932
0.811643409957963
0.857299172491723
0.837873129002008
0.801353567081578
0.828088024874682
0.847990277544207
0.832049691675052
0.81349023585322
0.807205569638731
0.83648156694531
0.804788909668318
0.877818769721285
0.819227092656258
0.883826144200033
0.921921835194414
0.91132409318926
0.846717007688924
0.938169770378536
0.876306170513868
0.877990151871167
0.875982191086486
0.933955958203263
0.926215708231864
0.989055610599942
0.922951137780415
0.971454322349456
0.901359570838591
0.906111365725084
0.922235048068548
0.909873541510961
0.927602987163688
1.00090581336508
0.977274354975915
0.987825340817717
0.934944146954942
0.996616634009741
1.00302598515998
1.00169031229464
1.01500110604445
1.11355421088139
1.04372246416654
1.0681164934259
0.949187886060094
1.04947420624681
0.998869795819123
1.00738504512252
0.972720155694402
1.06054058490997
1.01747191694826
1.0579149331495
0.980830829351262
1.01909664726685
1.01413667342188
1.12539161127535
1.05163829803232
1.06643339406828
1.0012278529066
1.01201845854354
1.00774563740682
1.11563603915494
0.980214682219683
1.11718796038135
1.12631526280034
1.16873612760965
1.02930189873694
1.08200367658789
1.10501371515129
1.15884928763331
1.03503318484883
1.2135608674352
1.13580215151089
1.21702928779631
1.17165853750512
1.19443981131419
1.21896177190726
1.17916601456545
1.06703640201517
1.22809127702507
1.1916467016947
1.17852980623083
1.15041729885353
1.25931985465081
1.21779416203579
1.21545746877889
1.12405448472126
1.30714004364233
1.13751638375608
1.17637429644809
1.23795910905672
1.19269326708274
1.06302798402106
1.30481352971144
1.14841148727531
1.23259449146588
1.1061652526404
1.3194475314509
1.15519525032703
1.27667580551952
1.17229691497347
1.26035603624451
1.25065427718875
1.34666058640021
1.19995650068772
1.22785685644613
1.14611887746262
1.38942553579369
1.29776604650952
1.31913152853241
1.25744616335161
1.5042005429677
1.42061268519744
1.49967363345737
1.2474840217178
1.43614588048355
1.33760998977206
1.28424496392657
1.25724353456815
1.53411519764653
1.34619460834771
1.22588653710254
1.30318239649675
1.54571622347055
1.30315266040238
1.39485753273393
1.3368345411783
1.24433457859337
1.28042981528039
1.30384922186373
1.34286516978864
1.39481055747094
1.12771942861144
1.48192782665707
1.29048701900808
1.39715583672333
1.31091818005665
1.3767063329826
1.35463191567654
1.39139072902455
1.30550322657031
1.46806004986729
1.41959548316438
1.37446666190901
1.31960980367748
1.64173580629681
1.26466900546604
1.39456347014997
1.26402548780187
1.37806656576006
1.42930046591907
1.43688264250623
1.26821025450369
1.60658224324673
1.5073262347782
1.55492641424895
1.30228013850201
1.40810196205841
1.41285958148312
1.45180429232936
1.33900589174099
1.40636495868839
1.3475982220782
1.58695439099953
1.3179962607068
1.47207665373604
1.31044866691404
1.54322379897521
1.46789536112073
1.5460169840483
1.3289354587279
1.60443818792314
1.35537508616713
1.67950533415535
1.37626721643235
1.38449539997479
1.48230113640104
1.44069516123077
1.3567469234452
1.52820176631116
1.44334056750117
1.66107772678366
1.43819976552235
1.52515532864308
1.54406697334593
1.62166364365759
1.30343553489968
1.54750404794167
1.35479833634628
1.45140390501898
1.2709578723623
1.62464964875543
1.35851847597358
1.48848778190802
1.41928961031651
1.51264406580726
1.44984422825755
1.53618640762369
1.41100695219857
1.46858124364552
1.35416801495277
1.44292333384954
1.30442876581523
1.49701024627376
1.48099599869739
1.51110195526029
1.49100333522139
1.49762940202865
1.36754088247682
1.56450945104181
1.45282033137108
1.47772365318478
1.25485823882771
1.54748979703338
1.49423890391462
1.59325715930514
1.28736537874356
1.47264227793042
1.42465124128066
1.50077231110306
1.42045770780039
1.6372204015247
1.38615460649648
1.38051953503639
1.4547652524544
1.39659865796049
1.33853002106274
1.49373182212852
1.48927073308301
1.51798494511704
1.39510223603614
1.54171208484906
1.49113520952997
1.6803314476908
1.49931073611331
1.45041870972037
1.31099361516362
1.65586442023555
1.38863224196068
1.3967588820246
1.32174990082364
1.54250005838584
1.34207005090902
1.51611997232063
1.39669836096935
1.6046247989065
1.42683260559979
1.55277441850087
1.48239568649767
2.00301178053945
1.38545066050498
1.51254845772321
1.37588998260881
1.72086580925354
1.4757336152932
1.71645260775093
1.45837809887298
1.44840392519986
1.29992202395999
1.4586241354935
1.27900839132519
1.41248229378346
1.41773813676522
1.47695173928227
1.23941775189303
1.47506734288763
1.38206736176837
1.51114077117008
1.36614577778122
1.31072331600351
1.47120432543444
1.42132038958421
1.41371860989396
1.58693890249665
1.40566661371299
1.48040732900135
1.45126772291379
1.44384114465157
1.33380553134779
1.4124062650229
1.35441364448892
1.46369120923808
1.31917158005817
1.41989522552873
1.34860489545865
1.40846606317204
1.40143566338879
1.47422968791148
1.2919532741975
1.40444134205556
1.25248006541725
1.42719747629585
1.29016607691845
1.38773087487418
1.29406024613683
1.39857305021167
1.26974771422048
1.50000163512374
1.34802744966647
1.47881905172723
1.39404683593057
1.33772189064125
1.28248643682289
1.35093409657205
1.29516118856961
1.39357572224729
1.29728477951698
1.41613602134463
1.22628466287516
1.27040884572058
1.26739586132586
1.31638011697103
1.24426388114395
1.24531973361835
1.25681121946143
1.40886515521327
1.20630188087447
1.31675025327506
1.21429595249878
1.26482657169289
1.27822372638901
1.25568567177031
1.25259903514309
1.26146328900083
1.18573829222332
1.27656453707728
1.12881988874366
1.24629483113586
1.18308062273789
1.26811303623397
1.18570967852271
1.26329607668235
1.1285553501555
1.1839696995763
1.17653838619396
1.2504956705864
1.17525976675897
1.23714951696127
1.15039863335529
1.1779445673794
1.13100257854098
1.2006951972512
1.1260740577815
1.23090560381842
1.15161589025511
1.15815332446613
1.12142320075051
1.19145457674781
1.12325023328607
1.15494724613382
1.12481379376975
1.223595987741
1.06428681501827
1.19892676976425
1.1160183165234
1.10447078967507
1.03630383023177
1.09321279721729
1.0110717587004
1.08922850157942
1.01760382973618
1.12301533002284
1.040408972871
1.08023754420517
1.00288401975887
1.01369244967288
1.01514032103323
1.01517956363994
1.04026183937492
1.03315340055052
1.01081205652709
1.0826967133214
1.02056796396523
1.041031655066
0.997556589991529
1.03293277818949
0.978711640346116
1.01709642020395
1.01841124705039
0.983342801918224
0.966503588238477
0.964341518653821
0.990231986790226
0.961189300425354
0.95235459838877
0.975331104389839
0.941993268251021
0.997220162068123
0.933702482317766
0.973542173726086
0.868752409596548
0.928060425565111
0.9112764264819
0.940747907125013
0.915968175940727
0.883726908069129
0.922626901877472
0.913571181565034
0.889292186859155
0.896027339186687
0.865917589149327
0.903016277845548
0.855827191286553
0.889167210702762
0.838435781631501
0.864391163818073
0.835673825413736
0.843175976151771
0.837525734812014
0.871627390174584
0.837228516706267
0.870396068713682
0.834759323523222
0.827798503125227
0.797585182904754
0.835558745757868
0.814729228144574
0.84150473225841
0.796868255012698
0.797135188903817
0.79453093914593
0.817864965147629
0.77878953082974
0.792852030579779
0.770215481872751
0.801321898098203
0.756933579971029
0.777860340641771
0.755854030808445
0.775752018670709
0.750851241339529
0.759605480612463
0.746465672775868
0.790476772621767
0.750346462138004
0.741124556719058
0.717945938236129
0.753147759126653
0.722049142361699
0.729131507749543
0.739161440142551
0.73530100300552
0.690967192898289
0.718982251686002
0.706642849561707
0.728428636964188
0.693500282274086
0.723877875033233
0.696564248390265
0.698674853860837
0.683120565756988
0.704226861618007
0.670796500538991
0.699291895624345
0.663854972830695
0.669143821277994
0.664621914427335
0.666474661199143
0.645088677045152
0.670912070584436
0.671001058044177
0.673075112410035
0.636998657418128
0.661945574386253
0.629699854751893
0.665229590029638
0.641563328224967
0.6396716033768
0.626189756194577
0.626338880403749
0.625394659432694
0.627155030727152
0.618984176754304
0.615017192092365
0.598533813482034
0.61399362992363
0.600329341312708
0.601781291651755
0.593618607841394
0.585067561538425
0.582005085616543
0.617381088179288
0.576932487784109
0.587915616872838
0.5748126828055
0.59237586777334
0.556159392290694
0.577732549902376
0.579348166741547
0.580282156771085
0.561543666540523
0.563535412083386
0.55467873303062
0.566047899104439
0.536333130743502
0.552859061859853
0.550133902427714
0.558023842350001
0.533497142235866
0.536186277679913
0.54576398659756
0.536166089652163
0.53474568013395
0.527011610741752
0.526903711411547
0.51258993158386
0.511405898805588
0.519074706393599
0.501391968248074
0.507125473871681
0.495657663262573
0.511818036509968
0.513733368029873
0.505284024417515
0.504050277971308
0.510627550456585
0.494621075977127
0.504959976775735
0.489743498804978
0.489364682180591
0.486557921476309
0.493151443258629
0.485624474979332
0.491618234418996
0.47552389223581
0.481064832980901
0.477760868443252
0.484944696301447
0.469948326993929
0.472165335852174
0.468111825274363
0.475338156125896
0.464162699582762
0.485353592634847
0.461244006005113
0.479162911360967
0.470474484830512
0.477077900703342
0.46884150124045
0.478056840667729
0.464253316314209
0.464508540159584
0.471978543442743
0.467926227723845
0.464630263034669
0.467714836562243
0.466378518151116
0.476724620642045
0.46935528599577
0.481367487794522
0.471288829360985
0.485752317608175
0.471017201312761
0.475706664626347
0.482559406294225
0.480399629808538
0.484210164188366
0.493396769285498
0.487314134713466
0.503974545336513
0.48600462490996
0.506537833019516
0.48436136597011
0.509287357091268
0.500771507471221
0.497666759081726
0.496579719508031
0.503587125363566
0.501655259726428
0.500821022789984
0.508599751366471
0.516001049435461
0.500759239295292
0.522781884022259
0.514943825497136
0.51301529226772
0.512918559892708
0.535501814872105
0.518663839376228
0.540999443813391
0.520175127499893
0.529860313594086
0.535158302632074
0.548742185256226
0.544806599505195
0.545609324128749
0.540656084275899
0.55931327761593
0.547373215763521
0.571151930435106
0.559175143704025
0.575160737416612
0.57805505330921
0.58384041443885
0.574756045085936
0.599417289533774
0.582688297208198
0.588152534216898
0.586463160039804
0.597860438082907
0.587425570541148
0.61247433502025
0.597109824487751
0.605002327150853
0.604801517481734
0.622655268901922
0.605536668573493
0.618628215214638
0.599517119798483
0.609398450544658
0.610292539920291
0.610657651183846
0.606123210975228
0.615310295598301
0.60596775754531
0.61772122253808
0.607341345922446
0.62071639291301
0.595835158670986
0.61986574269923
0.605763560775215
0.613279649114691
0.60757327634958
0.61062807133158
0.599676079362839
0.611988557395844
0.58994300306875
0.617192444837713
0.614443654738917
0.620510831593341
0.593469258767323
0.606478496330326
0.606486926355572
0.61717749303245
0.592579111038888
0.611066806885917
0.6063790688079
0.604040334353243
0.592910608520664
0.617042238152965
0.604322102478947
0.610462245868782
0.61004905959503
0.608786012535431
0.592894906105716
0.62069861721822
0.610986134866679
0.608294920613465
0.602050781313829
0.628094835285728
0.612869121588881
0.617784012973744
0.595265703388685
0.614011985038995
0.606411006583953
0.617663930850489
0.606157479206429
0.611437161105589
0.591873144124799
0.619287044739439
0.589100207805409
0.607914518580716
0.590222085989685
0.590349348376213
0.586607340650208
0.594084514913592
0.602083442471611
0.598376600739769
0.57943489665716
0.585749699792151
0.579591873969332
0.590172156772087
0.573965843088068
0.579742954503749
0.577705335494738
0.560858201325331
0.572262891107838
0.572112404169738
0.551552898992826
0.560394667705207
0.550325311171237
0.555343534304687
0.5345298938173
0.542478799638032
0.530635936141721
0.533390552157509
0.521025695105952
0.527512186792234
0.526662742482646
0.515394797729375
0.50863219021622
0.511137409029022
0.509130234096003
0.504561826262202
0.49328107907365
0.496299241733203
0.488137595582751
0.480382961105941
0.480307625258404
0.486574926257074
0.475317307081518
0.470412984037322
0.472612563230765
0.472190186953627
0.451861929138947
0.474271383440416
0.453499525890468
0.460008398935993
0.450645823667535
0.45159871258716
0.440816641848742
0.437848835000979
0.430853801372404
0.452475945639337
0.431528563980918
0.431565591363568
0.427227623139315
0.43433292360333
0.426388615615856
0.427074354790853
0.425184716667811
0.414661386249783
0.415352615364938
0.424840164265939
0.421267388859709
0.423660919613971
0.421615825216076
0.41772423018741
0.40839232151058
0.402521785090788
0.40607414355628
0.408276491880116
0.40017744746636
0.406086134120922
0.398776212203907
0.402939140616945
0.395725657413626
0.394749794196811
0.394438889319728
0.400841483019532
0.394804908274574
0.398062616695754
0.383694402110697
0.386410213515124
0.387075589648623
0.391101776915283
0.385125979220225
0.381583441739667
0.375530174806558
0.380969518529098
0.377035164141125
0.380261430540186
0.374514556547495
0.380181300072317
0.373460769685757
0.375447832848165
0.373615707992133
0.369923037656775
0.365941204133141
0.373620802838
0.36221177271179
0.368145358299538
0.364654912608066
0.370792005668173
0.367348875474152
0.366014795156546
0.362326301871413
0.35673039348482
0.35827264037635
0.361120292413779
0.36380590864871
0.356074745280117
0.353582215485477
0.358156703292153
0.353091528568611
0.345943517833772
0.346958426809372
0.356577725972843
0.350207812362126
0.352108349074803
0.349657780627138
0.351877641001861
0.344160319575126
0.344334636584216
0.340747615938754
0.347694512367927
0.343073638465421
0.345524380301433
0.344658766799437
0.349635597937718
0.340105923081386
0.34933813317486
0.340963116196385
0.340106385534839
0.342126634014638
0.341918076941865
0.334414155249794
0.339668931881092
0.339271139858875
0.332332652146529
0.326251882475552
0.341008254100864
0.335643302566742
0.332418300769977
0.332681015582272
0.334249672360134
0.334868479573468
0.335701376981031
0.331028949598643
0.336846307570851
0.329030175206478
0.332124791250658
0.329882523632179
0.328740544750579
0.324996954569992
0.329001384801325
0.322659967025648
0.326251708577351
0.324808985043814
0.324220918270805
0.325567259027645
0.329406680116872
0.321435740647705
0.327093845634212
0.32301765527648
0.327960558080804
0.323020666668636
0.322734634595473
0.317959748543128
0.321294211792198
0.320217911185909
0.320833453830276
0.317797618245667
0.317977458429403
0.31335951447523
0.318253966387757
0.313242701799563
0.316905761609741
0.314476904057328
0.315170856385364
0.319520268618062
0.31946357581374
0.316529935481455
0.316191325337282
0.312128272066662
0.314406823371727
0.312390877088391
0.318387992404837
0.314251274980051
0.310137311556129
0.308121110249046
0.305229178010398
0.300020680881642
0.307754454968065
0.310034869698473
0.311453707480158
0.304648731840139
0.306999167535374
0.305634907869309
0.304098972925977
0.302964369944757
0.301182480170387
0.302837899641559
0.305861442019736
0.300966420661106
0.304355597225832
0.297272771301789
0.306076665441537
0.301935880754054
0.295737455486555
0.297176569049194
0.296733811729506
0.291202598125727
0.291070417755443
0.290210928022037
0.292042805457457
0.294739094155488
0.294543286271668
0.288286785116693
0.295382532417765
0.286545901543072
0.288593435408432
0.289391226326393
0.289695116365759
0.286876167597181
0.289199403710795
0.28797733660111
0.280388837231751
0.279615143492299
0.284565183725836
0.282159397873475
0.281349500553306
0.276481191937014
0.276192605722061
0.278226345660266
0.28492552477817
0.275972595670554
0.278764750253036
0.274646595069645
0.273084059963578
0.276992361737249
0.271916156962785
0.26885026643682
0.271393457705811
0.268142389997788
0.268563104232235
0.266023465701992
0.267236369945149
0.262477734306699
0.263865237121885
0.264840391967395
0.262288384028453
0.262080311088587
0.260099340324813
0.260044186243976
0.261852922040189
0.255020119444901
0.256242731137754
0.256865780131493
0.260604617826142
0.252433470244004
0.250961153768125
0.255285295769404
0.258716306762569
0.250352802966475
0.249462010580716
0.248600055984427
0.247678970608065
0.24849864885438
0.247139334445899
0.243708854672465
0.241807748504949
0.242785909866192
0.246572331268081
0.241395605650286
0.247718797454153
0.241674254945376
0.239455884951044
0.239799126212539
0.242121816230663
0.240661160238892
0.23779688122816
0.237358079090018
0.235911762776657
0.235091791095011
0.237718511926333
0.236126069617053
0.237088310872167
0.233161252424248
0.233736216028857
0.233636121476748
0.228832237332548
0.228414693857258
0.232575654715176
0.227651445792399
0.229109157940559
0.23188104376055
0.231494676916849
0.227111445645241
0.227526828195078
0.230694196928724
0.229523796054174
0.226127144710557
0.226727666793259
0.223275355472233
0.225841210762354
0.225922147836779
0.219479525350503
0.220484825648545
0.224168457632825
0.224360830070178
0.224805472447703
0.218769438467286
0.218564167405952
0.21973878449147
0.218958024473412
0.215669007446867
0.219553238799025
0.217418913766069
0.215895287317899
0.219895227423035
0.219812959327263
0.215420560863888
0.21677894152896
0.210567691155755
0.2134199230657
0.214191151731506
0.212941296312728
0.213649375182645
0.213594130059125
0.21174206945955
0.209813503829748
0.210926908113317
0.210362934919045
0.209554857068556
0.215200737347906
0.210412311022585
0.211031561935345
0.212164158207877
0.210836289024752
0.208785137897725
0.209829086473289
0.20670774694926
0.205517476427658
0.210691288098625
0.210507412086503
0.205458412101334
0.206712017846658
0.204856614410756
0.203104820394622
0.20240556118891
0.203116980624446
0.203634159517068
0.206944028353512
0.204741242545885
0.203702643262645
0.204629469163512
0.204023128741753
0.19994554457955
0.203690815636143
0.201468882839942
0.19951918582927
0.199396319861972
0.201869008887061
0.201610199031139
0.198753257504831
0.19465954220264
0.197159302042078
0.198533352916014
0.197406400672633
0.195101660133634
0.197505302242057
0.197531168425039
0.198218365999617
0.194945293359468
0.193602026794698
0.192831679671009
0.195604760576744
0.196044102445241
0.19558922793937
0.193727479291384
0.193451911626725
0.197321882910282
0.199011347352028
0.192962036736932
0.192859547093433
0.194958201424743
0.194155910507143
0.192232186510443
0.189715904011567
0.189287765307639
0.192731033236625
0.187493307845857
0.1861156341777
0.189912859003464
0.194537787281948
0.19159231875222
0.183780320616339
0.188917401340298
0.188551369169513
0.185342295749296
0.188122857165194
0.190052185792269
0.188936151036286
0.188665166642309
0.186407112250621
0.18425350271423
0.184781802833877
0.184199383204341
0.184100331421066
0.184063326811856
0.184588227595268
0.182416862445371
0.182960822695521
0.182842293437369
0.178485038703727
0.179523888426906
0.179501233406795
0.180223528758057
0.179892737114489
0.182241520158829
0.17902937872988
0.180256692478731
0.177702558770637
0.177057982332452
0.180558078691964
0.176593033126535
0.178377128949588
0.174237874146579
0.171851967804267
0.178875146962049
0.174703202513312
0.173032607662337
0.17163115381401
0.171988368971467
0.169013265247579
0.16408714614241
0.170682882055291
0.169545311093635
0.168200855212177
0.168937109639091
0.167196087372012
0.164315793562865
0.169943924616454
0.169314436488874
0.164622080775502
0.166238221609091
0.164135414427559
0.165008998974257
0.160383480570318
0.161930089348939
0.164311547993737
0.160968900845495
0.163384801024311
0.162377416049257
0.158501428028324
0.160077582797524
0.161691030818335
0.160468926138219
0.157608037820283
0.160279689480262
0.159729621494889
0.15704927061832
0.159205786690325
0.158173468628326
0.155344098133837
0.156877779113235
0.155670519436162
0.153020948294703
0.151573271809854
0.1526554245474
0.156480672042196
0.152579191364351
0.150527903469309
0.15379624868801
0.15038746267966
0.147762310731826
0.146636593475652
0.148165915763577
0.148162708884588
0.14904389597955
0.147437536325427
0.147101860765434
0.149920404384891
0.148918605930386
0.145828157396903
0.14398041069148
0.143320449973628
0.145389844428349
0.147278977307585
0.14275908044253
0.143866028876671
0.14442054815118
0.141320258328621
0.140383248652917
0.14324705749201
0.142959583825066
0.142593197203986
0.141534888006674
0.137398390406125
0.143056013439049
0.1385139622986
0.137641282498373
0.139596443557255
0.136937526350688
0.135149307723165
0.136158775250791
0.137363260857909
0.136052491352402
0.135389403189062
0.137191301413396
0.135219341476426
0.136408111791542
0.137410955660556
0.135651167136702
0.135470223365599
0.134790143069691
0.134183101511217
0.134362363410818
0.13328129231881
0.131674089391453
0.130169502811128
0.131207769517431
0.131321720729737
0.130720815602224
0.131030440845702
0.12945623166591
0.127957685968611
0.134042207777358
0.133394971070838
0.132499443214909
0.128608218255853
0.128223481865191
0.126335376126603
0.129288689670424
0.131866956816831
0.130772329560859
0.125232439180946
0.128811409124604
0.122791487689332
0.124318194514048
0.126276947895974
0.126835693089535
0.123776848400924
0.120156795734436
0.126369968781129
0.124645816819631
0.12130876111924
0.118250544017383
0.126868537557362
0.129157587043362
0.123091211842433
0.121439330050824
0.115105629679867
0.125141448431628
0.119546104758873
0.120687076635521
0.123124067675496
0.12510129731517
0.121910102233625
0.118398744101487
0.114572811972284
0.121756287242684
0.125705928715129
0.119283689834117
0.118547921413423
0.122043148001495
0.115045871861706
0.118614052068878
0.117360352399746
0.120045025226499
0.116660844396483
0.122046811720402
0.119601161145087
0.121453253862045
0.111614030479592
0.120489795698889
0.116803676958105
0.114957624694119
0.111803800786297
0.1144273863251
0.114142808594132
0.12130859704756
0.108851267370867
0.120938135928874
0.114882376779851
0.125484094959131
0.110992725152632
0.119759270859982
0.106276864644975
0.119898064185457
0.108565111850851
0.122799412263821
0.105976297731652
0.119258978302302
0.105403893483655
0.120712477875312
0.10765930129467
0.117948787008575
0.103642523250265
0.119926295132504
0.110273406887127
0.113980982938665
0.111844052561212
0.108514540802765
0.11543423498487
0.10775123733693
0.118005646769039
0.105662875246448
0.118783505528852
0.105780134560249
0.117085939407948
0.105759316989745
0.111096728262437
0.111788250565681
0.113218375741086
0.111309258112234
0.113178696392758
0.109893214146521
0.113410182280588
0.106878746772105
0.10789882892103
0.110077503218696
0.113170088150869
0.110109188981023
0.111886863798916
0.110486831495311
0.114752262333087
0.111451139798842
0.110005675988053
0.108158360268386
0.111127432384445
0.109975758543705
0.107708743624309
0.108198039057165
0.111208774957198
0.107578435434307
0.111867548116626
0.108174090728335
0.109381919548555
0.106183632502328
0.110394475098667
0.113901201546459
0.110966026667897
0.111477763795031
0.10938321405567
0.112107009221586
0.108925986304871
0.110820090856602
0.111293430875223
0.109954215038263
0.109465899448342
0.107513244119047
0.108731392015029
0.110353093543307
0.110750418979662
0.107776316278037
0.113427075946792
0.111706574271563
0.111515443403484
0.108362224190439
0.112308321778161
0.109642922428798
0.110673873993997
0.109492419386269
0.109919804086576
0.110243059402107
0.109338746508752
0.109213759362463
0.110091084313718
0.10994811488823
0.110870255874564
0.109416055251241
0.109281451243141
0.107447982933411
0.113486822885166
0.110589999723862
0.10982321763149
0.113499504677482
0.110942457436973
0.109081402564762
0.109856175681023
0.110291655607907
0.10897430071746
0.110692470752994
0.109010700022452
0.111924616605295
0.107659153763646
0.111212016597511
0.110365954615809
0.110551197949487
0.111446129454775
0.109966002415289
0.112368256051999
0.110448664713129
0.111215840044026
0.113758333592259
0.112503587080214
0.112782750320138
0.114043473608362
0.115682711235116
0.111748959422687
0.110670614009546
0.117426555142951
0.114162550829906
0.112006932331352
0.113986743020928
0.110966397462821
0.111424037088126
0.109587334784198
0.111597842467267
0.112287510197189
0.112592081554052
0.115492872553663
0.11315819141775
0.115457801935628
0.113189649055063
0.111258200857411
0.111148473565526
0.114741902639044
0.113520106682294
0.113089016507964
0.117880134607681
0.113998591148954
0.11588952383752
0.113391024162018
0.113244940509828
0.115931345572168
0.113334315747371
0.115327515459974
0.11445358773388
0.114832534949915
0.117217446333963
0.115079213594369
0.116482711897298
0.118680673918806
0.11660802994403
0.11607999743737
0.117300526609536
0.11429938544862
0.118914290394979
0.115855007515473
0.115115347615758
0.117625469986326
0.118872072342587
0.117620719803047
0.117830349237337
0.115538337433769
0.116872820815223
0.119598667837009
0.117925183290017
0.114995661946035
0.113693832205535
0.116414067504321
0.119829482221031
0.116993624202228
0.116094265802653
0.117537031033127
0.117778282083428
0.120055336124642
0.122248892396187
0.119950097517523
0.118156597247472
0.119240522768785
0.117561547151142
0.120101425091098
0.119570085928189
0.12140812705522
0.119250588675361
0.122669611996108
0.120648658869449
0.121807220034956
0.122218438486655
0.118075798994848
0.123504615523969
0.121488587315083
0.119414448627733
0.122756295573513
0.124452678129618
0.119595204054991
0.118902464843197
0.122553023157974
0.124931453405207
0.122037290974345
0.120602327918472
0.123125117324466
0.123750742251005
0.119734898219982
0.124186515836899
0.122232544352935
0.119439162391992
0.125199946345453
0.120941428605368
0.118587767704343
0.122568541668817
0.119333704664912
0.119171580521783
0.122102701734608
0.116366747977021
0.11601118981612
0.119756730029235
0.11755490201249
0.121078032446207
0.116371914108009
0.119038914108406
0.11770675905516
0.115767202388175
0.120620920455294
0.119277099480974
0.118990982686428
0.11900528526165
0.117634575814745
0.119726488903741
0.117881142167285
0.117923437363692
0.115447076538192
0.114890279999854
0.113728704029063
0.116703755187307
0.114641256499399
0.114889712839123
0.117653630187939
0.119813487448155
0.11522394392527
0.117293298516124
0.11639801816771
0.119110008871933
0.115587763760812
0.116928412308152
0.112839198768423
0.114783317924775
0.113526936493419
0.112632310619813
0.116778271623223
0.115354561551863
0.115466819197801
0.113449775678134
0.114799239839303
0.112965651889827
0.115136999029604
0.113920255120992
0.11333188614432
0.114866022640499
0.110931235409635
0.11141159082142
0.112498010380429
0.113989771418537
0.111929957762306
0.115690437988733
0.111509510439377
0.10987640227742
0.113518307557556
0.112149677032404
0.112149198112018
0.113290046784493
0.110032880757995
0.110902822666739
0.109824895988552
0.110428791999976
0.110446092088461
0.110616778150848
0.10817112363214
0.111239891612167
0.111778938524204
0.112293884846675
0.11202219222692
0.109413582532452
0.112256168425619
0.109402454878522
0.10811407608312
0.108928038179228
0.107758951561424
0.109040372567053
0.110001585542392
0.110933277257152
0.112332239401699
0.111404324890753
0.109806057134843
0.10899293594593
0.108618921554351
0.108980379361384
0.106731446325374
0.110001812874833
0.108616747390554
0.108005445586981
0.1098566972322
0.107735255891755
0.108911967153229
0.107082391857442
0.105148444994057
0.107393975172933
0.106893275316773
0.107056828846764
0.10697952598724
0.10783674631941
0.108044687672975
0.100686944480234
0.104289985574941
0.103164151243169
0.105310231886442
0.103867177259289
0.105619504685185
0.107201539470973
0.105586557059374
0.104324338189593
0.1063898959435
0.104889283193141
0.10031870922079
0.104593188726065
0.102803455666536
0.0995894023550397
0.0996346392340852
0.101662690067938
0.0991707605680938
0.101935529060094
0.101131011806243
0.0967468052756294
0.101303237613112
0.0963122625337024
0.100448003014367
0.0963803337804066
0.0964314499947958
0.0984493971833807
0.100427829828789
0.0965123433305276
0.0974349471333166
0.0984782625332938
0.0925522295568362
0.0970741474458842
0.0931003644355266
0.0979795016830105
0.0955402065526057
0.0970446471161507
0.0961048438104803
0.0964439055798983
0.0941175821514116
0.0948835446331059
0.095119429909767
0.0932473829942416
0.0906736469817715
0.0906392713704047
0.0921589589030946
0.0926890771260776
0.09105799966868
0.0927107619649489
0.0924872085219789
0.0925645017971809
0.0914438626558337
0.0898384970249903
0.0908411348224313
0.0912326596656412
0.0909842541902877
0.0903271752375147
0.086150239838095
0.0904049688503949
0.0877429449956965
0.0909959337189311
0.088285624114253
0.0889090768171772
0.0876898553449534
0.085538401578783
0.0861797119970838
0.0880403558535471
0.0902600754777036
0.0865248869090893
0.0873672896136329
0.0880475945748972
0.086540145817149
0.0856790768154369
0.0849635583013505
0.085175757054711
0.0864455639062651
0.0858451980271496
0.084118982547535
0.0860284005033366
0.0879265620005183
0.086539291490128
0.0860242457641679
0.0797289690676907
0.0847200272751867
0.0859250995802579
0.086763762382659
0.0842422242785246
0.0887052000874464
0.0832173777994525
0.0831537893362725
0.0836996667725865
0.0832054036985441
0.0831330747255475
0.0824531355256295
0.082055312521648
0.0814008501352102
0.085346374486945
0.0799807652690843
0.0827589831030965
0.0820476833795324
0.0838068042288524
0.0828672027933117
0.0823275687705405
0.082915237682995
0.0791226506296018
0.0797530353908634
0.080951462745485
0.0809197940350669
0.080761002683584
0.0809947191666891
0.0827118549853717
0.0818382505365505
0.0809523049229163
0.079666250380808
0.0770615224605813
0.0799125725044297
0.0789169767851637
0.0816722826378018
0.0773843169801155
0.0817115330191118
0.0809398908457049
0.07847986402679
0.0786310554019284
0.0791663164292731
0.0779064400291851
0.0769401514209579
0.0788136065239818
0.080750457252421
0.0798593049352649
0.0776802206272637
0.0808474699615311
0.0767466088747077
0.0779613980181081
0.0814294819932124
0.0792269623428645
0.0782989182160525
0.0823046583464479
0.0746158020760744
0.0835513298068294
0.0791823014587509
0.07920755338118
0.077426798586035
0.0833415347088479
0.0771471559431962
0.0761710158249712
0.0795698554544595
0.0767745670461694
0.0796841347519419
0.0783360951771008
0.0772957230868443
0.0798333807914078
0.0800608939554203
0.0793535951001823
0.0787226317849254
0.0777180910607238
0.0785193417924406
0.0767386336706315
0.0782073068433795
0.0770421449503354
0.0758525440359427
0.0749998951861947
0.0775730302916499
0.0796699281116686
0.0805972156738276
0.079030628270586
0.0765761271264564
0.08060286836227
0.0802165244189745
0.0769253100032658
0.0779904569437192
0.0780877740854664
0.0767410802072627
0.0794009643945313
0.0752098496084299
0.0787776874537771
0.0786489166742854
0.0792750773567286
0.0787180576519329
0.0759288084099932
0.0766932153741662
0.0764431106090943
0.0795559136336705
0.0756972811965709
0.0744223801350089
0.0756509807750949
0.079678483396082
0.0798936391951046
0.0749993165913457
0.0810836260937089
0.077100442487052
0.0764887818114513
0.0759869562267866
0.0781893606376826
0.078063681974323
0.0772257095306089
0.0787996121473748
0.0790629508106454
0.079500288720543
0.0793011392232974
0.0775433752823537
0.0794248618321684
0.0803612937303343
0.0785788684108953
0.0806818049124798
0.0792715862849512
0.0775689796179384
0.0774601173757124
0.0775499335203153
0.0774756428914775
0.0775670643865284
0.0797818666230838
0.0827641351403415
0.0797073107249322
0.0790995009900587
0.0795746674912766
0.0895555031222752
0.0760064781552248
0.079127966017972
0.0820206429481668
0.079476129375457
0.081024787068459
0.0807049427831917
0.0826685808766162
0.0806269237612258
0.081625158951003
0.0846919167209049
0.0801861317069334
0.0822571402439605
0.0818973599040595
0.0807031059906687
0.0838047096207124
0.084645940320954
0.0806506133916611
0.0819711516950604
0.0819076483776016
0.0863342590042265
0.0868368431364469
0.0809626059305733
0.0880500754676539
0.0846708754878454
0.0837436053963325
0.084989661278474
0.0846707605048864
0.0834211205785009
0.0835470655033474
0.0851955667678791
0.0853760441239359
0.0858953499323898
0.0852776379318883
0.0865081182739123
0.0832745124588995
0.0866983260801891
0.0865897429718723
0.0852740899324358
0.0883452166925028
0.0848204948005785
0.0874121898516292
0.0891015065288284
0.0866071289654755
0.0844648707370389
0.0879392654543181
0.0900377933379002
0.0904507468800051
0.0901479393394963
0.0906723041847186
0.0887669804668468
0.0920394947214604
0.0883452917301814
0.0927460766792947
0.0886666373611778
0.0986215559183273
0.0975943924679874
0.0917000647528117
0.0940425824368425
0.0916743418496893
0.0954759005796902
0.0930019925186362
0.0967332345898707
0.0940449969679656
0.0946466513280141
0.0909395238052737
0.0964839715062204
0.0913261995151815
0.099087582420745
0.0979926380962878
0.0972048808346993
0.0961385702524613
0.0976391473767436
0.0983626586359571
0.101301485878645
0.0981508695845127
0.100726431924744
0.109898715872761
0.0993206077494339
0.103056427336118
0.10127865707896
0.103042232582021
0.110168271868109
0.10190512637172
0.107149153168413
0.103768483181692
0.106365404754039
0.104181857314732
0.106469910080548
0.113856402061728
0.104573763878589
0.105528456746536
0.109453763842113
0.106002301630915
0.115855237064943
0.111770892908989
0.112181788032298
0.111307112616434
0.114776471455507
0.114625706657328
0.122567051105179
0.11373525140403
0.117819592621786
0.122517166768388
0.122182044815338
0.123740514107751
0.124363464554867
0.128009630091823
0.127595848050346
0.128169167473627
0.127170267610729
0.1315921961983
0.135523380738377
0.136582789268851
0.130657219628437
0.136211557285966
0.134004568389151
0.140439333594059
0.146691842437171
0.143818090024822
0.138540995941505
0.143148203999221
0.147042025841636
0.15252053856567
0.148386653537377
0.153118726282085
0.150597583181338
0.155728843571912
0.155598106361707
0.159324505361956
0.161324538940071
0.16167401499608
0.160877128216269
0.167210008312857
0.16513842151059
0.171174872286741
0.171181048913614
0.173575024852459
0.169131761146335
0.179709629486272
0.176076669235077
0.183377342331716
0.180140825943106
0.184392760867626
0.186776704578214
0.186229986815831
0.191494623956535
0.189642387892405
0.199995926012548
0.204002332237469
0.198821110796626
0.212622983373712
0.209895728058306
0.218538553094196
0.210032768495186
0.255033363106768
0.220884901406336
0.233551839845518
0.234053898409606
0.245000845106272
0.268066133993241
0.253358405840738
0.260925009285473
0.268317898386817
0.277618191680393
0.289578928746463
0.297311918550671
0.304140662572278
0.30715077328005
0.315394273172147
0.319210282298849
0.333009442422913
0.352936656326072
0.350287794028225
0.354038914287261
0.363189619776897
0.379414423234659
0.392396290721732
0.388286325183994
0.401648437988786
0.409616860137077
0.426718180219302
0.445791075969578
0.4399366579614
0.447053396375815
0.451812498378356
0.474240440235866
0.476168981321178
0.497560854835617
0.513543484838426
0.506986441873524
0.518585843226174
0.528574985504822
0.538705020921928
0.537183238214441
0.571747754110836
0.56049853857131
0.573775094114054
0.586460663883979
0.593675101173327
0.603010567374558
0.605642757183942
0.610120522478929
0.616788772886945
0.635146967669422
0.676391921736367
0.689111452681364
0.644039740268
0.629419368065261
0.647139632668359
0.642555360713827
0.662268096607901
0.657624658146213
0.664812419652621
0.660256566148746
0.647431617960991
0.66536851660949
0.668165782047365
0.663258589325842
0.67176879092653
0.672014566591086
0.659213202939591
0.683261041179983
0.683954472746817
0.655697391599564
0.701404738351964
0.671875987436364
0.680866258729018
0.678769227736902
0.672359915149453
0.663694176229959
0.674748495873624
0.650791153459538
0.663365700738806
0.658467087911209
0.659240189672765
0.640818207355407
0.642316937255379
0.644511172910783
0.638486912021919
0.626827383223419
0.614685679695204
0.611644717060337
0.596382474295795
0.600635587106202
0.645374156670218
0.596882479648233
0.601618194360978
0.58068744068602
0.5646671726968
0.569463573992073
0.568774908699099
0.565284520517978
0.572499077253526
0.55286483318379
0.560140820509555
0.557953862811001
0.555880187002557
0.544719172576733
0.540917206851169
0.545172451498908
0.539316823370866
0.535221551762654
0.534547142650068
0.52903594692739
0.531233436193108
0.539184864010278
0.538796498322574
0.527166786183759
0.528029157762757
0.524767959741924
0.52554883794347
0.527585570529933
0.530989398717051
0.529490276039186
0.52167824564715
0.52312894679516
0.527328020726338
0.529618485150112
0.523319893992065
0.51554782251998
0.517521396376731
0.513593823245189
0.518773857314284
0.526359637916683
0.512321563107307
0.514826746025785
0.515735797309353
0.520878118465387
0.517175113605596
0.499765036213401
0.510933618010441
0.50595230765945
0.505819951641488
0.498601924969844
0.512321024222306
0.512647763399646
0.497669576565816
0.488520331964776
0.488389280149157
0.48715792669036
0.486506491928813
0.475414313901746
0.484558375900988
0.475142757438817
0.476575337899742
0.49981787065631
0.468464158816865
0.506227812307045
0.474104235972875
0.463134891982668
0.469638737410272
0.492639857247586
0.46455634573217
0.462616107029352
0.460944219975155
0.463892934528596
0.461777309589432
0.447575907179429
0.452826929339825
0.447677227535335
0.445314324589574
0.453237550308321
0.449354801891168
0.454342647285731
0.465538924693696
0.449103712969943
0.456664090884117
0.462515570548979
0.434441016103964
0.420837720954313
0.420301456548973
0.416532179114168
0.417281437169802
0.42896804895042
0.411878306337894
0.412237912921116
0.405474055939472
0.396903873438635
0.399960612306998
0.400996811789209
0.393728709335185
0.384270819506153
0.397451768947231
0.381315008429667
0.382532276172337
0.383266531478789
0.380425552640432
0.388955914504659
0.370168070045963
0.366163752959722
0.377160146388715
0.38028837962212
0.361803834285502
0.360995963001704
0.35530287531847
0.354959095279363
0.354861151826502
0.347503142235558
0.345218769865967
0.344336664003771
0.345247669343792
0.352920803830276
0.347869302913633
0.351008069152308
0.336365255592363
0.331294923360128
0.332895693195795
0.330097898857945
0.330339107779891
0.329566382109151
0.32864079899021
0.33238080873086
0.321150731676566
0.337423086445221
0.332252698081922
0.331626337293781
0.332793818597356
0.3324596668733
0.336885130072448
0.350954036192422
0.347074812047757
0.346747069908657
0.344906162542224
0.3564531532767
0.352630474499993
0.359652516404194
0.358730237399328
0.364546670379202
0.374826677024142
0.381612902127473
0.379708517782116
0.390868618716799
0.392868972320832
0.398819140734361
0.401387741111664
0.423853773927765
0.414906985135414
0.428144735133885
0.437902223131966
0.452613506035823
0.457598572108181
0.463437322144246
0.472156398458269
0.468858978843195
0.477773212210718
0.493057448879207
0.483804499228901
0.50873525255181
0.50364282154611
0.508151539414184
0.513613445476498
0.518826047249436
0.516345924281982
0.535655986100674
0.540011200014882
0.543727994126585
0.565394945013367
0.544147186333047
0.545963583984159
0.552440175165552
0.55477981427038
0.560736372172395
0.561394764462587
0.566508784874147
0.563707814454679
0.574158382872174
0.57130986146806
0.568829963263437
0.576800095722269
0.586420502453192
0.58123790147257
0.581837421958407
0.589176053058422
0.602802207518095
0.599642166004726
0.601806762725811
0.606267936742849
0.644423598757593
0.621541878433186
0.611434108941698
0.615575465925066
0.615572330618247
0.631310013027596
0.623256985093617
0.640144830993057
0.656612313497265
0.644601502351373
0.64594516740997
0.660044808095625
0.671408944675849
0.669895381941884
0.680356030170384
0.674678956815563
0.682717173208689
0.664550714524225
0.670514048112613
0.708019434719252
0.68653906530977
0.703360426027401
0.699305366769983
0.690907883320232
0.699401265971524
0.703900466852886
0.704680836651858
0.704758801580389
0.711703425274356
0.720583350889087
0.711560121500231
0.703863458717637
0.714950326464948
0.714248139403964
0.738691697344044
0.714341695587294
0.716263173207559
0.721326674895599
0.710698087865232
0.717012140545171
0.729034142992321
0.723472736661856
0.704389158497261
0.702974706167654
0.710086322501873
0.721865421160105
0.705501690659438
0.712940428153595
0.71981067215857
0.717361442849724
0.716088387759136
0.711950032946393
0.710653690314505
0.724019077125147
0.73472239517625
0.722929971425357
0.731371552405406
0.737594066647734
0.741836614242611
0.741611535630684
0.746214072200599
0.746510337421464
0.752496221759092
0.754026114244766
0.759040907254599
0.751805377940446
0.75007500362612
0.759692132544943
0.765127195823263
0.764870665857669
0.75983848451751
0.741348145680883
0.739742907020045
0.744194063745981
0.746060779596431
0.738322957308006
0.731887121245745
0.724721833577089
0.717592778795155
0.732919944394147
0.708421434959373
0.69806615768365
0.707319575564707
0.701919344152406
0.698211924199657
0.693928933435353
0.692201138641522
0.682606646843777
0.677706442109188
0.672129447729344
0.682222683239352
0.678799092175707
0.672524381678442
0.663174848326784
0.673890131997704
0.667819858468743
0.661780413341446
0.658806588057651
0.662874496057115
0.667858398749707
0.669882660477432
0.662030429041985
0.655004786362433
0.659729163541767
0.671359980517081
0.670093976630362
0.660850541150525
0.664708162827997
0.663062400597016
0.655896121953058
0.661794415122532
0.651582769271367
0.663355484434979
0.659074954117171
0.664652825288485
0.661837751190357
0.660044145547732
0.661028184476534
0.64964258290474
0.651572498040154
0.660010199051389
0.651740550443544
0.648386379770666
0.645815629979148
0.645572366498652
0.644428574190181
0.647046989408651
0.656876158284883
0.659745086829279
0.64858201785667
0.648466682341143
0.650647267282072
0.653039630022003
0.657990045269337
0.657210096312231
0.652486408624008
0.657037869406397
0.654319178034555
0.659102885715771
0.658166589885358
0.65848485169832
0.650577390730996
0.649238275291736
0.641313758857607
0.642657210317369
0.643330967278171
0.634583591803435
0.636040762260944
0.630664312853082
0.615199305656145
0.623819100021491
0.616501832598244
0.611662164671284
0.599905896276044
0.607298860290282
0.593471531272342
0.591064898972152
0.591221719296315
0.589346992622378
0.581884087795389
0.584435642388725
0.585146006535469
0.58022420191262
0.579124687269771
0.577754297593124
0.573487990532368
0.578564446053057
0.578058574123114
0.575460917151433
0.574376714197856
0.576952085672905
0.57753363419304
0.576366654631293
0.57370893892142
0.577398009020565
0.584184107456361
0.579839160435027
0.587055169290359
0.584334037074395
0.580855135205866
0.591787849656764
0.593076740743627
0.59685740916743
0.597596091607303
0.599650730056347
0.604865700434833
0.60580009612494
0.604028378802001
0.610462563936023
0.60630890841605
0.608044283750718
0.605542707374303
0.615380663016427
0.606386492397913
0.608779088526771
0.606081674724873
0.609212751590121
0.60512128469535
0.601555934655442
0.603152639212724
0.604976095149376
0.602017699914717
0.597853795160848
0.597716081108003
0.597719945863526
0.594467746926817
0.596525805552643
0.592288183144596
0.593885939005613
0.586168303509136
0.584259765523541
0.579091162148873
0.592159689850331
0.580778323199905
0.5787781696611
0.577330847601559
0.57418250214821
0.573496811787805
0.574690221156426
0.570296637863264
0.568953315674934
0.566513596367899
0.565534239850883
0.566138988383482
0.563945458669504
0.565178486202508
0.560902106414622
0.557423349776956
0.554550154269274
0.551673123344287
0.554131934137749
0.549624379356051
0.549030004987989
0.545898494485866
0.542353506218036
0.543160111493942
0.54034301413352
0.531511633815037
0.525565527003727
0.5265623106461
0.522244380505854
0.518169824724714
0.513060194028535
0.509298910877576
0.50368490145971
0.507450731859597
0.500218515467809
0.494788160260314
0.499303390539645
0.492694674374646
0.49303457619474
0.494121752298587
0.49380608417697
0.49235443058673
0.482042593429669
0.484357182895673
0.480176879615699
0.481141770511923
0.47437053636312
0.475695922925158
0.467591031207476
0.461024589693952
0.458300377623206
0.451264977072471
0.443286932388953
0.440868059522827
0.435268968180548
0.430841965288264
0.428112751132379
0.427322802411902
0.429802543241417
0.431028518578108
0.43378191367383
0.441278712571262
0.444464035059171
0.454439045303541
0.467557375678911
0.478130847305613
0.49252607617844
0.50455222612164
0.523893292617901
0.539452738221657
0.554039216691809
0.570639441738868
0.598746517109681
0.615097300685411
0.630040475812272
0.643753652690409
0.664668861398727
0.684379745410276
0.696456452898939
0.723812737624262
0.738425122750053
0.749992064193377
0.773327199152489
0.779775225950171
0.803143473313543
0.81424890610253
0.823858708504017
0.840779175991016
0.844627220409998
0.865077890493318
0.86930463155436
0.883880602179454
0.885767101888758
0.899015249931441
0.896947227823311
0.895865845902723
0.905866144937165
0.914081311662497
0.913717804540042
0.903794048901733
0.927562154693658
0.914301892325172
0.908088823178769
0.910104768457147
0.913198488909254
0.916934056181844
0.922604286389321
0.914336329339663
0.933458801063167
0.926484863202748
0.920516020595224
0.94202458638813
0.946213408739114
0.949972936541535
0.959292518516707
0.963157239820945
0.9779056769075
0.978453562353292
0.993097059618434
0.999684818593329
1.01221000951996
1.00839730976103
1.0127881479572
1.05179942710604
1.06127265940718
1.07032899106884
1.09225624098113
1.10265407550385
1.11230662515523
1.12619593711796
1.12947427895706
1.14027874125723
1.13696496601576
1.16345789208302
1.14616750590464
1.1445280302117
1.15414429000743
1.14841709995284
1.14193715353488
1.13514154077876
1.14115968037687
1.13856862369073
1.14168555929625
1.1331883112997
1.13972177501773
1.14627068321176
1.15015108013542
1.15311270878744
1.18956397129097
1.20511802221086
1.2033504874582
1.21787891649322
1.22903642315028
1.24041457734475
1.2703273350972
1.27949420227157
1.2814708484725
1.28026856163575
1.32566992011714
1.37049479617885
1.35011575558294
1.3788825432995
1.41923096459109
1.39287120286582
1.42741963576978
1.45288519304543
1.47081107396864
1.53632585786789
1.53004869602899
1.53359737455405
1.58565317749988
1.61181043118788
1.61692087666985
1.67097284212766
1.6656713778032
1.66411909176799
1.67553867956431
1.7761700040367
1.72137168570692
1.72212289100798
1.84622496291177
1.89979160007893
1.8036245936136
1.7871741524318
1.84654869509985
1.93390911782909
1.99730621411478
1.88368080248266
1.92369290562114
1.87075318725148
1.83364706227501
1.84876760067605
1.96977337146052
1.8036144646377
1.8282862464559
1.99401210580476
1.90095736265602
2.05139870134649
1.83909805321674
2.07980561143308
1.78229151960628
2.15104753895455
1.77890852252396
1.81461138315083
1.98945236533957
2.11626545383428
1.88224231007705
2.07324000568141
2.13942078487906
2.00505439567823
2.24847709888549
2.03919755864088
2.14450793597549
1.95362529813522
2.05879093173216
2.51958079663688
2.06654356788215
2.57525557153406
2.02196662557104
2.13461131877051
2.27082738390696
2.2075810208244
2.2104088994967
2.59684964628644
2.22742517979343
2.17219367689509
2.09024905141531
2.15233044797499
2.27702819869601
2.13127867739219
2.23681841509201
2.25234515763995
2.11751970588833
2.22360876922379
2.53961755131848
5
2.33398141229231
2.20329700793438
2.15411579172577
2.27232938309311
2.16942788213063
2.28510575137904
2.15521487427204
3.2953374734585
2.12165559820152
2.20958055400276
2.2328676690921
1.83008296662008
2.16917569832158
1.9725028117657
1.77209709445905
2.14528107125544
1.79493975010906
1.8355300036077
1.6965493439802
1.84438059991723
1.84450136260117
1.87933886773974
1.62250789333204
1.69322607285957
1.56421149099204
1.71310321709092
1.65733556500635
1.76803606042498
1.68268169376827
1.72727716769002
1.55124347094426
1.71198362309204
1.54821176547969
1.66616141249864
1.60254160387108
1.53047034043406
1.57680310348296
1.57871936929057
1.44813470532645
1.43004156609795
1.42454963548342
1.34399251205995
1.36754719134596
1.43209597383727
1.26828447454668
1.28812235569061
1.2195893566981
1.18171021503743
1.1317249504216
1.09202515786703
1.02310137698962
1.00916654028331
0.965362789541403
0.949318326525027
0.897447276765382
0.873138503224894
0.834643570427482
0.803412736157053
0.775399059679201
0.767527252862571
0.761914648400544
0.741032537276622
0.710834482714495
0.710497658879893
0.700200373732033
0.68644674844515
0.6746477058547
0.675291806368743
0.669415028853494
0.670405810141771
0.657901150894671
0.66587652981712
0.653417542126916
0.665149356515979
0.665697072466037
0.67146548855257
0.660512190870997
0.665620424563241
0.674942475593784
0.660813412084654
0.669138822456707
0.664994726066221
0.649240184379165
0.650040036909187
0.643791206148547
0.640601051080376
0.626431411644507
0.631266655764276
0.632514745674424
0.628175310920069
0.615007105978822
0.62137039302197
0.621101093020097
0.609445013625331
0.608768778080766
0.615379563357184
0.61809177550407
0.617535482337297
0.619047666618172
0.618466747169627
0.605008350691618
0.629381537114599
0.628794208695474
0.637948745339806
0.636956507742518
0.647099316483311
0.63672755975851
0.642667102458187
0.653739859098952
0.660198912534739
0.648880294240483
0.672737842008073
0.664140955417347
0.669392349300121
0.654300756746543
0.663297956057297
0.664315943864709
0.675500423555285
0.658186724219195
0.669909166266318
0.665318576054725
0.672786098991359
0.674485055546991
0.703650306233034
0.690955036426495
0.727689614178626
0.72050346198316
0.73922810027121
0.75262723910739
0.779208927145847
0.799753895883328
0.815928852156343
0.824275879184545
0.863209400240917
0.849428839461727
0.857010307018053
0.87018969764237
0.859427891322715
0.86672131998318
0.864278661902752
0.871176120969946
0.849464191569121
0.838723640890773
0.815890294618535
0.802414862306915
0.803819378411077
0.8193236571562
0.798123880067092
0.781507224798292
0.807585613599671
0.788428584333857
0.797616085461973
0.780665711714011
0.811530380374557
0.780964886357549
0.828579517820473
0.788043527987477
0.77827994844389
0.773252186089244
0.787421153971083
0.768715143343429
0.7800817378587
0.748452298763018
0.768385741613608
0.738389527296616
0.760609832201561
0.717535291643825
0.727468289993978
0.741170778087953
0.716561180899966
0.736685892652495
0.739290464595793
0.711068736658299
0.723589226033545
0.727962396839122
0.719318215377548
0.686896302161219
0.701042152271596
0.707334136907934
0.70880312839
0.699560197735778
0.694092867465883
0.67237066671659
0.683185822181296
0.690383623119339
0.699406530085533
0.677917674709659
0.684294457228134
0.673918593925143
0.660011190015019
0.666366667285109
0.680463312625592
0.668787161624129
0.677714717327194
0.651446637339742
0.674261310335195
0.694627504023011
0.661155738227763
0.662520351665831
0.677604118553073
0.671082673410729
0.652141107633286
0.643695600995688
0.647458334928073
0.648006046094926
0.667126157544529
0.652458936250061
0.639308550768328
0.63660791293425
0.664610025443458
0.653714761431939
0.660567135417995
0.654952374507288
0.693900117186771
0.649169702573101
0.689305274901045
0.67736373402683
0.669191663686343
0.664606398768969
0.716215156451249
0.673170340203811
0.714241603319443
0.681537972503227
0.697453805730809
0.68494789443088
0.716523976953095
0.682170758180418
0.707875938063003
0.736580156421579
0.752287556636587
0.694773548138607
0.732613640827005
0.748173658874347
0.759267043316303
0.781557357763442
0.794173236115362
0.785792744667776
0.8551427418187
0.786811883489832
0.81231945047634
0.836190313974301
0.849784837842064
0.840934404880068
0.902363738277633
0.869073272878414
0.956951348816285
0.913544771259201
0.933801237650687
0.943094506305125
1.02878007408817
0.99243574696867
1.00075859033988
1.06669007239737
1.09263084841861
1.07018030628839
1.1249900272266
1.06878628543727
1.0823905972559
1.04866501611347
1.13546584738938
1.05638252139101
1.05501433920409
1.04537880260267
1.11713835366466
0.9515804646951
1.09332315729623
0.977931857649927
0.987925660646869
0.922897602237947
1.10670952518299
1.10466914747236
1.1208906643918
1.01467125960674
1.04939821297721
1.08464658212231
1.17117561389691
0.955832043114269
1.02469174465793
0.973987491234278
1.0901408351069
0.985655934904811
1.02286935549975
0.960553361543081
0.899452377990472
0.991735181718223
0.957657499678834
1.01791267066965
1.06994210560499
0.914350754488325
1.00166012005704
0.943553885206331
1.06795963853595
0.925205912587952
1.00236337684445
0.926759108345767
0.997653240479529
0.964667542510143
0.978412146477237
0.9253769603829
1.1193113576063
0.942939237990346
0.991743253668525
0.973265146620828
0.90727587558265
0.991990944302236
1.19048785779254
0.962190484094444
1.06022045741159
1.03496917451262
1.12303929490577
1.01235073801159
1.18758745468977
1.08234999611841
1.1192209874219
1.04932022971263
1.09646642803171
0.955923938048594
1.10344669286618
1.09975074022518
1.21608074140665
0.989214432135116
1.1619322410278
1.07441837305253
1.08111004666106
1.05963813732736
1.16410180229874
1.1534218858255
1.37727934652392
1.14732839526926
1.16771873840047
1.09161745264644
1.0899973339943
1.15536004760565
1.28971188620507
1.15854545793303
1.21886302670732
1.44624252749174
1.89442445099048
1.30462454691747
1.69184689236338
1.22320828075135
2.67934390593169
1.36147540385053
1.1112197084405
1.10349021074017
5
3.36755889213589
1.16688694237623
1.46796815845844
5
1.05612295821626
0.957666080688731
0.896721494857499
1.52277364949188
1.34504202215596
1.02043896542911
1.28547906661576
1.79292664468737
1.2824944952418
1.18512947563294
0.961856862513553
5
1.18392281519581
1.02912209776174
0.745968511772673
1.37236492896142
0.972765034386254
1.41240672130982
1.04558682570161
1.70386127100602
1.80247152797276
1.71163175660206
0.851552228235965
1.50787231346671
1.31725234392855
5
1.65377701013485
0.589381120693875
1.04002295988158
5
5
0.925586436764117
0.721867396490203
0.835161438140312
0.760361967491321
1.99516326897464
1.19183321286262
1.40646416475402
1.0241163843529
1.60863520226021
5
5
1.28731850377003
5
5
0.868344100238427
1.06600789975372
