3596
4000.36533379555
650.420452594757
1
2
2
0.0536624078995828
0.0481495696380572
0.0595312623128366
0.038338385518984
0.0481284544010069
0.0572441520609142
0.0514709109734646
0.0450921630347127
0.0627046985809059
0.0489642897883579
0.0599533827603564
0.0483370631823107
0.0443555522721825
0.0427065236975352
0.048263240769327
0.0480109953675153
0.0600896867162638
0.0449468289188189
0.0560248718511091
0.0464584131448513
0.0591925517124704
0.0435081892885501
0.0623561970484601
0.0575017964407953
0.0532476911059602
0.0502460578033016
0.0496032626097805
0.0517645839651955
0.0636481702237196
0.0533937843419108
0.057638999714264
0.0499002777734605
0.0534341759299908
0.0443721957097479
0.0567244883614259
0.0557049684263628
0.0671658932250038
0.0511696776501721
0.041250826631666
0.0461365075155232
0.0494164596929081
0.0520441297271502
0.057734933843012
0.0573124525074452
0.0483333513580064
0.0470921469827448
0.0532469240815687
0.0545856337611158
0.0474463088693723
0.045152537278789
0.0481129779682214
0.0432536488711763
0.0641195331011377
0.0533670389229591
0.0652492142702836
0.0350513656737477
0.0457223268881668
0.0528213250495979
0.0555187566853346
0.0516810524594323
0.0733265922464646
0.03815165479656
0.053940456886224
0.0382015073336771
0.0626901801459085
0.0469594025379018
0.0525287727732835
0.0604511045373058
0.0555822809444746
0.0538004474846482
0.0605152111689836
0.0629718282580645
0.039807069249723
0.0634406573030645
0.0502975426675805
0.049083647419482
0.0560142787442896
0.0510466244332413
0.0543030716393162
0.0477359565179515
0.0503276474507069
0.0502103361455385
0.0519682710436328
0.053680173934601
0.0493982691179884
0.0373206374632173
0.0457603481494955
0.0402017174417693
0.0375681098569029
0.0469155941456556
0.0486297513445085
0.0464872599375811
0.0527850919416655
0.0517486787800142
0.0482584035843691
0.0529256410402691
0.0461867019998966
0.0443398617530021
0.0386675052658001
0.064515945131486
0.0322952475176712
0.0528689772100053
0.0465013618321387
0.051643224460961
0.0802920977603152
0.0263846205643488
0.0653020055765125
0.0358791227295802
0.0554916008804617
0.0399521676042731
0.0485047930552542
0.0503558085642465
0.0464842616286336
0.0459047580338814
0.0484056422909407
0.0645028924778192
0.0376973971267235
0.0412233569267206
0.0377062780568643
0.0422770875269043
0.0368194970602438
0.0535748053854262
0.0327165263912953
0.0386840889383982
0.0436922165672325
0.0466989570716961
0.0409241500968561
0.0556402156834661
0.0463304363724405
0.0403737573734019
0.0524657544468008
0.0400046006603446
0.0473125321282175
0.0478962242435125
0.0408294144052
0.0307162029466086
0.0526669715288683
0.0437061132638105
0.0595340376850514
0.0391028970533305
0.0476981336415762
0.0452323698645804
0.0444504168983659
0.0467268533489202
0.0459139169377248
0.0405001928051674
0.0336701372945017
0.0442496750005471
0.0404103168293838
0.0439642917164629
0.0513563131110321
0.0453533518787718
0.0556937981080675
0.0419368849867411
0.0487344530012577
0.0762244189421411
0.0199225174238256
0.0462202431568391
0.0416811358198902
0.0331228510258356
0.0561508926008498
0.0300807247830108
0.0536056560925642
0.0348983625015711
0.0579924705493131
0.0402065846940717
0.0636381319100564
0.0457602462265529
0.036630652088325
0.0441971394805091
0.0449440294986665
0.0307306888658126
0.0468960674464779
0.0414687015562829
0.0336279927420821
0.0516098722972705
0.0390052247255962
0.0390709923804891
0.0406416701209379
0.0497156417461495
0.0510960887203816
0.041326321190012
0.0433814452200159
0.0450227261636015
0.0530910693739735
0.0414465641569268
0.0512158736556122
0.0536356942268831
0.0496686500297241
0.0495962386127523
0.0488018291806261
0.0451832486728846
0.0377207792970062
0.0392919961945585
0.0513706227628955
0.034300109088041
0.0710830623822767
0.0334010143711368
0.0549438594685452
0.0325195270706727
0.046695222054526
0.0418257887581583
0.0438825714882826
0.0373884190985568
0.0465192425422212
0.0387323992579564
0.0592605437824449
0.0319441430944435
0.0503554157653201
0.0407614082665371
0.0542937301945516
0.0514123557344912
0.086095219083592
0.0311456287037197
0.0422317526830638
0.0474345771871792
0.0505711337315813
0.0440089331412876
0.0492603903814416
0.0378889144350033
0.0499477276639641
0.0416354314097269
0.0520372983747575
0.0439694503004859
0.0498470118033322
0.0425905362583598
0.0498835350350552
0.0476119672889747
0.058370708567956
0.0510171148313652
0.061870768300336
0.0349372638100762
0.0527827317858317
0.0493019166550029
0.0416719788917815
0.0514661492063414
0.0511125844388319
0.0397624635501963
0.0604828214484357
0.0442667863436842
0.0489404802502973
0.0433288060134029
0.0512965302348063
0.0444975143951715
0.05399121026614
0.0502416559381595
0.0656976343955043
0.0362824693985197
0.05563877207632
0.0378296261179499
0.0689887502561956
0.0393399678585218
0.0567987385600663
0.0445465829543165
0.0580115244602096
0.0417523490068786
0.0553803399978033
0.0367120778505555
0.0592422597539406
0.0465141764647674
0.0602929601388097
0.0398907606030214
0.0579472660521351
0.0497714653380692
0.0540381660438282
0.0556172147462107
0.0447475707868133
0.0583970663227004
0.065516033699245
0.0308335691546302
0.0633363986989803
0.0446717675760415
0.0648149311797391
0.056485634961945
0.0262437929247883
0.0444798860290861
0.0495307109707134
0.0470668893082058
0.0493609092875048
0.0591669017597945
0.0541090098597914
0.0617611845208608
0.0540172045307998
0.053230546101414
0.0671845842080955
0.0342727078375383
0.0829845365174004
0.0347489930904203
0.057738233081768
0.045024170771389
0.0649622944495536
0.0633280781241325
0.0693604459646179
0.045730386745962
0.0595250812751672
0.0515072255666691
0.0629141586155005
0.0589213957965135
0.0499770080442356
0.0493790164260127
0.0630377332729618
0.0587033955496619
0.057200731358964
0.0619451505293346
0.0621092496022051
0.0668584161710369
0.0639661571848466
0.0676169111314835
0.0746731601071187
0.0441516411128701
0.0569995097500902
0.0630148850350332
0.0593343329607353
0.0570894107130338
0.0553530297531845
0.0534012018173638
0.058389475850044
0.0552510369982425
0.0564886002109997
0.0680930561802181
0.060131300745932
0.0625127883352956
0.0667166184998125
0.0639779050167637
0.0612523261372285
0.0599210711307831
0.0674318583231764
0.0605208849888242
0.0595670064536201
0.0702998846013129
0.0831044146107676
0.0664034014060512
0.0697866999358192
0.093352734167605
0.0722470803928913
0.0587770517236597
0.0788200194557816
0.0674187236385402
0.0736729782811038
0.0729372121874557
0.0889651215344233
0.0765025633533658
0.0842786758848988
0.0841401211019176
0.0829710917001507
0.0768203221499822
0.111430930980006
0.0947049045234435
0.0891420399744078
0.0753155407907368
0.0993390290819284
0.0847457892894426
0.120395607687352
0.0877176826457708
0.0897493261326479
0.0942504905635582
0.0930720429175435
0.100454379915524
0.106151049149549
0.106261981517027
0.101218687152309
0.107524722323903
0.11065384864647
0.107731042651949
0.110296309915943
0.11331550168871
0.120674376802158
0.124871869452704
0.130083704255423
0.1187018663056
0.125777596287995
0.130472186722703
0.143385460164778
0.146197267801841
0.145088274433186
0.14002292558245
0.146615717535724
0.132899268413702
0.152473223343306
0.133077141987775
0.158659583430914
0.154457455387468
0.176868856285278
0.156595983789945
0.166525000893047
0.171668686161049
0.176345559245073
0.170099576791207
0.188044597446771
0.179475470879556
0.19083735357478
0.175891842760256
0.198282535929397
0.183293170669048
0.20586870159561
0.207367914742989
0.229134555542884
0.203087534181995
0.2139662895926
0.194667174232962
0.216322523410068
0.216288244848914
0.226862596393703
0.224925432737093
0.228792303907016
0.2322116229962
0.244234303317545
0.252956750760632
0.25662634390148
0.248135775742012
0.257159670069375
0.240929326256811
0.265493776284691
0.252936827571495
0.267050244376935
0.263312703110218
0.283640968572859
0.27934691288082
0.289356819201743
0.299489507205018
0.299181131398357
0.282390386315559
0.276826113751004
0.282920910792532
0.306760871300087
0.313566447762448
0.322776178657555
0.312456577880285
0.327374161573742
0.325312146868183
0.334644615883365
0.351282982575516
0.363129092313319
0.34377595485244
0.361715727519656
0.340487986714434
0.362711001389053
0.350176775729178
0.373337280818404
0.36789557158282
0.400955771731904
0.402089134879664
0.371146641998085
0.368093615373097
0.370495821489057
0.386263411243888
0.392311605698186
0.387403013438133
0.419504528000971
0.413126648677055
0.426516890934359
0.423295887894277
0.43310050649269
0.433742161747563
0.444609595397792
0.432178508781102
0.43879191693483
0.443910383319888
0.471638083486961
0.446848467066104
0.44325951433341
0.449461113389892
0.502920999318845
0.495225537214473
0.495631381726345
0.506211046110229
0.498337444632047
0.495192314454822
0.509107370078759
0.511590440057936
0.540286491142353
0.53086063628933
0.511096331613015
0.514036800120551
0.557228230698557
0.557605283785262
0.553380737902285
0.555554173146983
0.572295364927049
0.548200628478083
0.577910997037905
0.578308838923445
0.56823556630508
0.601233864022307
0.599566002060874
0.567768442759916
0.596335266484759
0.600435771205184
0.617866104670899
0.609757330792798
0.627260246638102
0.616153191377457
0.62583114870448
0.613620411131186
0.63162205486462
0.645745388837581
0.65314147349633
0.646259484948213
0.67287956584889
0.631245314556134
0.682425122505159
0.712773097486865
0.694329787948634
0.67578087640721
0.718611686169526
0.69976711204601
0.714368346968513
0.710824355193216
0.707098132627472
0.707411595066429
0.698640737713338
0.733911103864225
0.736157357908744
0.720815014206534
0.770931491872606
0.75115068115236
0.702163752807711
0.734176736182428
0.753233736699243
0.740982204262317
0.741634349542801
0.804290190618637
0.814642711128066
0.763812304472289
0.791675486126251
0.801488595592888
0.836818167393984
0.833183713871883
0.839337192779401
0.843545666845171
0.802210295104143
0.750836452579353
0.818455712594646
0.903563104875946
0.895793842169155
0.862691141340005
0.877627610842048
0.872855126502659
0.885317436075011
0.938697730425895
0.909773324585547
0.834106083056451
0.833006281586149
0.904104945483295
0.974840214528348
0.902234187773533
0.919579349467217
0.962296302629403
0.95191812240185
0.945125647783316
0.96955424045103
0.945345559325579
0.948710903884193
0.920453716607294
0.97977348768543
1.03737202261884
0.9431936634605
1.00602326441425
0.994587529065495
0.931961040349851
0.973793127239713
1.04090045369871
1.03300988224686
0.978267945476102
0.967107487085195
1.000106234891
0.96181508847388
0.99538565739657
0.963467642590191
1.07201677295246
1.0607056377225
1.11877983679515
1.08667012017167
1.11142411365877
1.09864835107752
1.13529714746755
1.25285594818759
1.06168971724515
1.03355249748933
1.10388538525399
1.10571628700828
1.18110977136192
1.10549561390995
1.08959130725463
1.14532821452434
1.18305428577837
1.08070851631333
1.20269381365877
1.12786393675952
1.10660839750749
1.09936095046622
1.18814986524728
1.32755006729078
1.40232899448621
1.19278555882874
1.24282573781108
1.17937627715412
1.24871217418843
1.28728162014187
1.30861916332939
1.20197753907601
1.12083425441724
1.1930935120316
1.2907723524728
1.14185781006707
1.19380567167555
1.19293166717157
1.34689719015528
1.28669865894623
1.19974710955223
1.21800273164349
1.32649949406611
1.19061470651013
1.33202063279275
1.28916024166203
1.30304264665079
1.3434693515182
1.35784793109198
1.25308692032645
1.35481325741452
1.26924048444492
1.37544283608894
1.48318897772119
1.31206383106698
1.25195803730361
1.28869350351985
1.20428297831778
1.26964839818247
1.46189218489826
1.34320272959432
1.31819545630408
1.50295480904997
1.3734066899771
1.38949863443565
1.30126755661148
1.41367780502516
1.43796034710987
1.41692494208709
1.3681619763873
1.37314418552702
1.25439149991074
1.43904486124734
1.31040643262373
1.46492141035886
1.45052401032667
1.97041950666281
1.48866912307349
1.40251963441763
1.47818849393596
1.50134544267046
1.34028221358479
1.44779518218667
1.52263248226207
1.44886557121015
1.3544244110758
1.34446617542139
1.31446240573561
1.40646891482329
1.37434691533557
1.43437363201405
1.6841366825223
1.64227309981206
1.45220746614758
1.43869148084347
1.4039817533463
1.41157481142157
1.3459437139032
1.58667974697828
1.4171271425264
1.70212570665918
1.47926098160753
1.5598363200645
1.65162189446505
1.47887149113797
1.42765678578961
1.68951180961728
1.49240389006605
1.26919248214686
1.30140601390378
1.787577138804
1.50057191475887
2.25063073311302
1.56754880710271
1.73228871656209
1.44249589891726
1.56106807545623
1.41390216455013
1.61392004547356
1.52441715150661
1.60894851061119
1.64935827117138
1.61548662714197
1.498221793058
1.559734663753
1.68856051399404
1.67658152832109
1.48985117033711
1.64753173967842
1.61061834713337
1.49039555595816
1.58791691261079
1.64724048067783
1.45714160028987
1.84685492395613
1.46366184991209
1.86724558645851
1.49420183567399
1.51761603722234
1.65647214310657
1.90674098387689
1.69397171720575
1.56717976521389
1.5866263430381
1.90048903211829
1.74752426964701
1.58135175625593
1.49385081298196
1.52954000646658
1.42133984770264
1.53339499946209
1.53884335114689
1.84234450614172
1.50318940104989
1.72671457894763
1.51256961087411
1.97276482683174
1.46434073512238
1.45347175863636
1.40659976302
1.71216069238908
1.58216285205619
1.58258276781409
1.5455242892156
2.11467914222449
1.5663124444662
1.67545253584458
1.55719764833629
1.68109554212005
1.59037697683864
1.66929189700539
1.41887952791589
1.49403688530009
1.53306853812914
1.90195551384992
1.53241244950855
1.9233647278163
1.55460477703481
1.62336484077887
1.61192251724773
1.63569409171666
1.53554000366214
2.33568410965367
1.4085819408702
1.5201804674975
1.6436711505347
1.76933508332734
1.52619470084702
1.64486314789294
1.48295688560978
1.59816623603339
1.43758454627982
1.56642520212015
1.79794080741239
1.82866599357484
1.66142608730684
1.90984898335593
1.45613933935506
1.66204703265558
1.60121276864101
1.81367383216568
1.78063848574648
1.87949773478581
1.59836480905216
1.7136099977126
1.76316875131618
1.75955215894807
1.51776804499436
1.57290826688766
1.43739759961748
1.77953701759811
1.55567212781442
1.57445832295265
1.61023646208042
1.6146360350062
1.64248078678809
1.72438199080702
1.55606150472976
1.92585393543877
1.63386714518784
1.72848111488962
1.38933788248159
1.58796591995244
1.54417761577189
1.49345233793107
1.40339888056999
1.81629850090885
1.47839035363707
1.60081389928797
1.6355646144943
1.52646944440695
1.58222582375066
1.78484846403279
1.691623371456
1.62706698147104
1.58252249729137
1.5122129279826
1.49778484973291
1.74036110060403
1.72094191419133
1.5481025636093
1.44517216268434
1.78461827540567
1.65465451663435
1.54839747314568
1.64119649138775
1.64242098738894
1.63783949442522
1.57047808800188
1.82093567584244
1.64307019799977
1.47867368949156
1.61762831397497
1.52692765088657
1.58418482984592
1.65195683230648
1.67316329809748
1.52858357922956
1.67984484870847
1.59973243294459
1.57283502037953
1.46716762505201
1.65585393609275
1.56221486551202
1.66348557158181
1.48557914632536
1.63215493229384
1.41113316147063
1.67982465988923
1.50635134683971
1.50560297980868
1.39646682626493
1.58984521306757
1.48977717967954
1.5866870566962
1.55193358014701
1.58063523218616
1.52580730561286
1.54881945045934
1.42054283906306
1.54883731708197
1.52560451468386
1.53211488747537
1.44522003974821
1.49157874730818
1.37738459409749
1.46650044452813
1.31783788960846
1.49623769046748
1.44530977604909
1.53168745802479
1.43510503004707
1.41778960847377
1.37577023006997
1.39002892627253
1.27310999052424
1.42838313671219
1.40807762757506
1.3779021026617
1.36507292213902
1.44698343596227
1.32793993702518
1.39851267091482
1.43723331934966
1.30880539650391
1.2942876377267
1.35782528890506
1.33370192067906
1.35067718345398
1.25145253850681
1.35989157992742
1.29947529985928
1.29105900834917
1.3029932108832
1.37262491570324
1.34637645199488
1.25991510572416
1.26028588847502
1.38524266316136
1.25464525605144
1.34082582012004
1.24010115375549
1.26177648786727
1.27476379876006
1.23639542608198
1.18326319959687
1.35471437722308
1.16942683892032
1.24155822621005
1.16835179703297
1.26993425808042
1.2828003298996
1.24184371533622
1.15895692266046
1.26773516347387
1.21855329238303
1.21326161431287
1.08457308433476
1.27436422035862
1.16075772027895
1.20697383843362
1.13511066087281
1.23212763464042
1.14068509795508
1.16441279842415
1.17356403254458
1.09246398793232
1.08855677845447
1.15641445621655
1.08347082134244
1.15536702433929
1.08407152777779
1.13974836549711
1.05402427329
1.18678835909931
1.07306534602712
1.11081368108406
1.03522283985128
1.1698740932215
1.01132204904093
1.0447378464538
1.01461164690732
1.0647352327482
1.0350113455311
1.05201865780813
1.01071933450521
1.04286729336673
0.981380769495704
1.06467836846495
1.01218959322352
1.03406076864083
0.96429662689522
1.00747602162389
0.987310659353253
1.01590659464475
0.973932078088391
0.981145299741389
0.913472490371459
0.990901129267488
0.925608731172557
0.990487834591537
0.970406092384117
0.920234027632017
0.959788297467521
0.963803949511387
0.937551591864303
0.967026977212095
0.911415149995673
0.939600690818261
0.904099908857596
0.929334445403895
0.887018049151222
0.916753690319537
0.852088056619959
0.939517817953947
0.881847786539647
0.890575327841228
0.84110561429962
0.870720896751294
0.854594672093186
0.867286239385355
0.851680083224729
0.857391473366729
0.848239868992233
0.860509069684445
0.843981143997212
0.851273179312004
0.855951385212308
0.849901258137115
0.822422179092758
0.833929220449165
0.829209188347452
0.840448853918218
0.817989683198936
0.81757314217067
0.81053199460881
0.843872528243876
0.796008725324899
0.827351931668654
0.789814503176285
0.799561272656109
0.754716872712172
0.804783272708198
0.772670873831542
0.761455168385491
0.768028573794586
0.763888670062848
0.738502918113979
0.756174557304753
0.746150462490497
0.747648616590749
0.757937162414677
0.771709706805527
0.710426332227063
0.749651154326355
0.734012126163162
0.732937337503498
0.711494643175594
0.73249985456504
0.707314773912414
0.715526857830785
0.693268727369183
0.722808595502079
0.678989947669998
0.690573117277125
0.682067271126562
0.690039844077758
0.663757938813311
0.686115469393367
0.675993431605791
0.681786259877792
0.664219187375027
0.660208261549496
0.650103275012558
0.660065145651068
0.647013383371459
0.660236852502087
0.637993561160766
0.65218342771912
0.631425642124447
0.654703471545671
0.653676506863427
0.631658373062923
0.626020651564122
0.635335317518971
0.621184806698385
0.616748127420826
0.618195143493508
0.616226170702126
0.609579712514667
0.617876411233353
0.598356861158656
0.612860510038662
0.593777424105562
0.587383491548027
0.59834938357211
0.594042621162978
0.590823984010591
0.583405850613821
0.566634530731581
0.581859392226085
0.563833776190779
0.575816027079168
0.573041535055692
0.568704290090535
0.559557415451606
0.556645136518402
0.573757443673864
0.562007685865114
0.552766457654706
0.558978953375143
0.553030828301372
0.538649537395142
0.546360440240683
0.550678082497534
0.543222421850529
0.533372176999607
0.520675881880476
0.537078031666917
0.527188294340779
0.542421892626885
0.522579421258746
0.528211979959307
0.526408568190171
0.537610651605333
0.526313011167985
0.534340189041918
0.526301284802459
0.532752755277209
0.514833595524913
0.52070894968874
0.52041375166073
0.527634286835289
0.517629532777153
0.538638429722385
0.512248289800478
0.534205322814289
0.512215630769035
0.5295582533052
0.513788896854622
0.526900837858442
0.533353245325665
0.538662737824676
0.521999165944305
0.532517417361095
0.516587243055549
0.529125750734113
0.527015179239187
0.538977383018649
0.540647947233894
0.550279190150236
0.528482016352695
0.557489141966959
0.545303644515268
0.552657071950014
0.551644659510396
0.574064064803147
0.549173468280108
0.577012146884963
0.553357595205046
0.566401553472553
0.557447857558876
0.567648527983219
0.564284928483099
0.572213796417631
0.555096425957929
0.594797760351683
0.575080700907789
0.583363710595302
0.579905033166944
0.580109452724439
0.567981878043494
0.596032714178472
0.590232792121267
0.594036808335385
0.582302133427231
0.606743279767994
0.604989506983829
0.601395068118214
0.582665610923623
0.619222386026581
0.609275985998789
0.613808727019945
0.628574221021028
0.629933302971096
0.61499493142132
0.653541989120619
0.623159504520585
0.656254902292956
0.633331977816149
0.665152680720821
0.659063400776874
0.65463560199657
0.643694172547225
0.671832118795896
0.669904681943376
0.676286804717267
0.658802772856831
0.684017452360375
0.659965120856228
0.673776273454767
0.673956628420114
0.683748496002801
0.650514342030771
0.673721307351033
0.662487438972829
0.683798911829714
0.658830095621582
0.673985086508661
0.649018995754854
0.688210753092506
0.6463143942263
0.688062198431919
0.660108317571502
0.654812207911076
0.665326965559317
0.661410933718813
0.644557768133088
0.673739018545563
0.647195322208025
0.671156972202727
0.644508876135365
0.692372255689215
0.644814181890851
0.656064803295124
0.660511744120113
0.660612896865064
0.640452916040407
0.661218413660498
0.644197656974866
0.64461143985303
0.670905103309344
0.689885090440132
0.654513245669732
0.670648240450339
0.649273279571768
0.648167208650611
0.66276668171656
0.666189134969857
0.652956153503759
0.665278539829448
0.665702794211005
0.661704000119855
0.657875524573856
0.676287343810264
0.667142936077202
0.682165400645068
0.648218036163309
0.650150907731562
0.636701494807063
0.659969875737208
0.642691145803975
0.651845263858872
0.651092212888904
0.660847223511766
0.645051871885583
0.66537465301842
0.642804138960972
0.650340972561832
0.637278283351462
0.641212336995804
0.630808588790344
0.645570232990994
0.627715002287693
0.637159117425792
0.610340229337122
0.623389316322525
0.605298998154851
0.61292818349938
0.619551399137122
0.613172405512372
0.595755618282164
0.603295226659627
0.588723352349503
0.591896827752394
0.574594954827415
0.594341708143167
0.568748877299791
0.57475150842767
0.563728718976265
0.566740578648688
0.555307759805971
0.55595321992342
0.555626032012035
0.553581725821349
0.552869334439956
0.541886488227137
0.528483899357085
0.529600452377841
0.519094185645465
0.526460126995858
0.514471654858858
0.523991568530033
0.512544647734884
0.509304871183955
0.517505813332066
0.514251345732262
0.496998330926904
0.504248398442257
0.48713463705899
0.495502034890044
0.495554508320953
0.493285950914791
0.488462632296532
0.482125361199053
0.475425998712867
0.482469396230903
0.476849619088444
0.472470294414062
0.476381836017846
0.484835493468288
0.459681856762845
0.463622926733322
0.461099383688676
0.458722588788405
0.452183624849989
0.451605417105829
0.446185977868095
0.446758225363314
0.451197078358908
0.455261623721516
0.43425015848279
0.446451612628243
0.43840795948034
0.439294869063878
0.435303159762467
0.442476022928741
0.437131327341556
0.438715345464079
0.429817317383967
0.436852368554088
0.423001741847798
0.424077209722267
0.420210958448898
0.423075915678569
0.422061676513781
0.421028302793912
0.415851766664022
0.424710821024157
0.417847441209329
0.417294847424713
0.415089757019598
0.416888482018567
0.409693578559489
0.422167574355953
0.404018013608646
0.397603086105985
0.40718849989164
0.406531376839676
0.394671376036308
0.407306115347002
0.39902245678377
0.4133781752735
0.392599277624151
0.400744893347418
0.385009477984842
0.403589237159701
0.389759997597165
0.40194870562228
0.389028360106236
0.393251025129738
0.390425617884973
0.396405912002465
0.38095208850287
0.394228954184537
0.382688404688261
0.387336538339465
0.38482388440455
0.381442870046288
0.383673117710135
0.379876630782468
0.373837389986137
0.378192654667233
0.371909286096297
0.385205663683318
0.377444664696306
0.371518159048666
0.369731040188113
0.380989120677138
0.37839306291926
0.368943047698795
0.366916581133213
0.376466994355081
0.363374589074977
0.36974498735174
0.370380352253634
0.374075934554618
0.358081363300866
0.364417082231115
0.361302452188644
0.364966366085765
0.358647210517932
0.361731651650658
0.36102319225183
0.365629276211152
0.359674083311493
0.361959046097576
0.361563662942961
0.366947736787914
0.358582302861046
0.35870785415341
0.354058235304062
0.360845281546768
0.355956786704912
0.361544137202135
0.356115588105147
0.355864054300993
0.353982420243563
0.355365025329516
0.352141627878249
0.352579834282199
0.348725168384863
0.353838212010217
0.352823611064156
0.360371671027062
0.35105568905749
0.355653042191816
0.350059369941426
0.354067521768879
0.347227781313995
0.354100777167629
0.349425499916825
0.349999406774603
0.345442225076806
0.342381345805936
0.345292681822078
0.347890896762834
0.337998026842911
0.341223786354193
0.335478182761567
0.34073041721426
0.341103798179998
0.345287448317922
0.337978518407791
0.343654382834105
0.332747175049697
0.333200752651935
0.33290984920422
0.338522548354145
0.336451371463377
0.338308170519871
0.331040426660769
0.343595683136668
0.339213318662323
0.332629529797031
0.324641043716218
0.332357752840126
0.330034477819539
0.335793265151638
0.333621774727416
0.331761835009203
0.322002078121429
0.331343426357239
0.32908290116017
0.325898966031109
0.322469415819969
0.327358603214411
0.325442423893391
0.327450117532874
0.319496468585214
0.326444479474777
0.325544985149754
0.322357250763436
0.32514977580942
0.326388522209745
0.314186845306224
0.317535557468987
0.307914465499948
0.314594744985173
0.313532290606622
0.31745397295425
0.314054208709307
0.316310153349482
0.312184028858001
0.31544941704214
0.307959524126394
0.315310346823988
0.307588875807409
0.310173713095798
0.300071030560324
0.303016975875385
0.310827792867696
0.305446836486104
0.299972913230182
0.3030718532972
0.296110891524654
0.302323278742096
0.305315878037484
0.307850283895604
0.303203202189808
0.300744529742379
0.295126803466578
0.296117559894095
0.294474541757775
0.291678884203654
0.293015364104728
0.294485945552062
0.28545545975344
0.290304389826037
0.291087324091993
0.288451365843433
0.284860095664937
0.290772284644171
0.282892953589092
0.28636782692672
0.287506875172717
0.286522631947585
0.278726148514031
0.284057218792736
0.28253731787116
0.276702772649046
0.277564701520747
0.282194155283649
0.272348462872642
0.28187720780824
0.280771015560311
0.274857896021183
0.27726736906745
0.276217523719078
0.269994196212167
0.27218434930043
0.26645593521221
0.275073504324511
0.272602560910017
0.268066384688841
0.264476461061636
0.269106867999305
0.264861624581684
0.265964034494725
0.264258436097198
0.26468130769952
0.262070865221904
0.263346669056297
0.262587048224546
0.25798447618853
0.251375297108714
0.258544010311441
0.260428790497907
0.258619936039088
0.255721804610195
0.261057724189067
0.25451250115339
0.260098655076422
0.257394469527873
0.254861396799341
0.25225450786722
0.254645336724121
0.254636277397147
0.253411241847861
0.253733901568543
0.251005251175404
0.245431067593085
0.248554476639283
0.248305980244846
0.251783545638251
0.250047891442381
0.250669914581101
0.247047854558983
0.250081413002146
0.245316356370365
0.244919126418646
0.246579622627074
0.24422972112694
0.242963830252999
0.246090940305212
0.245395203466753
0.247730355266531
0.241897063192892
0.247292509140857
0.241893481223481
0.240218388270915
0.239997048094828
0.243547079530304
0.240112312451009
0.238966603665525
0.236331302661012
0.239437677648589
0.23785458160055
0.237880195636282
0.231970740557212
0.238060664879477
0.236778274550861
0.234473063512801
0.236051358396174
0.236646299820936
0.234589868413198
0.235184296346105
0.238151811583952
0.244306991346711
0.235217634379055
0.238978804289037
0.237548462977914
0.234004084034434
0.235551293815034
0.235001591201005
0.228415172264483
0.234370422974325
0.233556807466521
0.233809786846043
0.231352911115376
0.231052887229561
0.229883941033935
0.230481154536598
0.226727242280415
0.232096750273614
0.228730502119555
0.230219229354547
0.226986808219046
0.227964245930098
0.232179622690364
0.228290790782469
0.226248000536921
0.230728368427858
0.224954031864706
0.225053801519328
0.222553915323306
0.225118211626081
0.223133132927227
0.223142727604347
0.223891669074006
0.225776804662713
0.223216414039507
0.223486056320179
0.222482490126473
0.225505744991849
0.221771592185512
0.220750105184015
0.218463035254579
0.222538326459379
0.217673829300696
0.221992316252638
0.22208163895883
0.219675075958329
0.220816962998346
0.21383820233753
0.215333919692443
0.223727718259955
0.218822166052136
0.219955160264083
0.221674034507437
0.217978349825663
0.217063270330193
0.222721099554325
0.215756770551287
0.21582756690424
0.217305948598017
0.219480427519134
0.219010836650025
0.220496830329802
0.218786248651323
0.218074658175201
0.215474487618452
0.212789507870265
0.20964366204908
0.215498434133667
0.211685416706411
0.212679723824596
0.213440044006507
0.213935816700055
0.211949198481299
0.211792772575432
0.209806414208963
0.209453277525905
0.211209881952099
0.213306539467557
0.212556461902286
0.208589413888404
0.211668044389244
0.209968281469352
0.20553165563143
0.209334178986322
0.207234948000089
0.20822167123642
0.20823822156405
0.211912779661618
0.207174088653898
0.206116137480537
0.204947949516039
0.207557426920228
0.203667008338674
0.205682935208369
0.206733286796709
0.203129189319421
0.205622725208611
0.204051595157861
0.20169956214263
0.201893799608372
0.199155732034032
0.200159893921255
0.197342714239666
0.199031234544348
0.197190772496281
0.195945236737712
0.196739391906495
0.198279132801393
0.197333420330829
0.197106985131343
0.194558799933925
0.195631144969894
0.195548903441695
0.19698826303448
0.196132684477249
0.193206126791574
0.192454461814048
0.19342802435621
0.192475437740823
0.195063752238417
0.192880122623314
0.187580257967248
0.191793557876844
0.191632352978242
0.190351476399915
0.192511770476127
0.189716046462365
0.192694205992531
0.189672135269395
0.191233450687482
0.187624971463344
0.186658697096447
0.187318063911345
0.185372436712884
0.185096303814871
0.183585476365692
0.184676512159997
0.187086822577249
0.184330459986284
0.184164623305123
0.183420103746476
0.185449709327403
0.18351359634653
0.181596786188407
0.186148490372123
0.180750435611018
0.182014360770626
0.182848242389094
0.181646372553731
0.181129835233315
0.180021771004034
0.181330450597865
0.175188444467779
0.175055474364056
0.180196569307536
0.17867212109439
0.17376020056678
0.179350743933677
0.179142495562399
0.174891852388904
0.174124944242197
0.175343315399722
0.175208587832549
0.178656249553838
0.177578642792963
0.175014895930873
0.176155892846971
0.173772241013945
0.172007942326433
0.170729606005145
0.172356964952349
0.173075945574814
0.170762464671678
0.169852438781534
0.170811695639042
0.170291180105455
0.171799009201492
0.169166765840779
0.169498740615511
0.171408318385451
0.166823699254931
0.165825979690713
0.166751974875527
0.169792883594402
0.168727460372115
0.167216222688695
0.168259590530853
0.166373429832388
0.166724863313422
0.165925329020335
0.165412874060246
0.168659725099286
0.167844283386018
0.170165450774042
0.168462539183136
0.167934139959438
0.16653050317702
0.166604113448386
0.163573751145867
0.163984257704287
0.166166536112842
0.165451221140653
0.163172770258193
0.159985610097137
0.166945862065554
0.163123988174174
0.16397754320997
0.164642862585687
0.167602983189136
0.161762990281353
0.152380818459273
0.158984245702018
0.159095573152246
0.161021854043357
0.162836542763837
0.16804099866491
0.161123487839174
0.155709572003977
0.160349900712413
0.153842355955729
0.163412605841473
0.159719635851462
0.160392998811566
0.160064534769009
0.165170093192997
0.157268658794491
0.153261486662083
0.160199774044008
0.158221468147299
0.159722141748182
0.158222175401797
0.15350724499248
0.153585995195045
0.155725519930717
0.156294134464665
0.15676631723151
0.159301954659303
0.152807860347154
0.15837851350281
0.15352727167116
0.157118595162492
0.153629548742989
0.158494909513446
0.151706802178991
0.15729109999296
0.149828076698796
0.157686192614674
0.149653705247664
0.162645714021865
0.145411789957496
0.160793116178198
0.14950328377166
0.16707108996933
0.148808368879902
0.165805209609914
0.142085110499043
0.158359132580668
0.144300390925245
0.167811576931323
0.142963117582049
0.165729179848273
0.137751511371833
0.167699740245572
0.142395203517031
0.163132760641951
0.136569266421511
0.163438300562512
0.14354040632096
0.157211003980623
0.146445483964144
0.151875071749266
0.152419755433661
0.146789871949511
0.156950346496713
0.145556011658827
0.160546486258813
0.146597727327833
0.157155913417091
0.145201694804958
0.155343616118617
0.151650457030226
0.15110822586453
0.14972343348738
0.153634004098609
0.150995596233839
0.152043411902585
0.151360022894604
0.150319732899814
0.149880973909929
0.150712111607088
0.150991196193401
0.15222457092054
0.152659920799688
0.156561510336187
0.147648874047931
0.149423553605624
0.150995108191802
0.148622641521625
0.148904266204618
0.149950799932524
0.148832081401921
0.152831486385795
0.147986245741859
0.150613793587263
0.149106828976603
0.153071667363474
0.147034470685315
0.14997667833692
0.153255054451881
0.148661983079689
0.151439825641656
0.152039233678095
0.151024651309351
0.151526999157389
0.149902674144142
0.148182476078109
0.152346191580915
0.152894637650109
0.14979538295633
0.151518240972282
0.149008821164283
0.14992731000423
0.152468891116646
0.155103476703741
0.152505977607481
0.154453674048609
0.149349643370303
0.148572702534797
0.150156315980441
0.149268674728592
0.153296140664937
0.152587305371376
0.150869076737665
0.153449898861527
0.149462878769005
0.151311963061552
0.148904590233429
0.152328583771975
0.149656883735279
0.1526896456809
0.146730069678608
0.15316822450208
0.14744024449257
0.153364881878208
0.152129207455135
0.153064303447471
0.151442501866948
0.15086097523728
0.151229286663733
0.154406210602291
0.152476952960685
0.151117962763265
0.150974288778462
0.152295378010027
0.152275943988923
0.15168082496783
0.149785869696028
0.155469228257786
0.151987923262855
0.152568320916364
0.153034495104952
0.157083918257664
0.154988494936962
0.153001440460521
0.154632044768166
0.153680575702986
0.152115218998776
0.15612511335256
0.152866950983449
0.155554390239456
0.154290419694023
0.152814172805771
0.155298308324175
0.154056280905168
0.156192681547562
0.151773470721387
0.152359566893845
0.155100775554833
0.152819671431347
0.153319315004857
0.152987109365488
0.153305010961693
0.153163970357097
0.152039414752021
0.156033407132675
0.156514282082208
0.156233884662789
0.155908632700458
0.155415859287014
0.155733870676542
0.158092885608196
0.154570181852231
0.15483152616582
0.158853017873174
0.150855661077312
0.15482292468568
0.157696594168319
0.157800727821026
0.159219201860584
0.157074720990012
0.158753273180541
0.159260275393389
0.157677171898611
0.158695283071556
0.158837952358098
0.157033263821179
0.157293936470822
0.154402981063231
0.158029433483333
0.161480695534179
0.155991102176132
0.160666717599479
0.15807512706072
0.157902881095732
0.158024299124569
0.158752462635428
0.157019386580749
0.157513664836662
0.157843636175911
0.160395657976986
0.159875381288924
0.160496359978833
0.156696727629599
0.159158700013124
0.160699295369224
0.162004743372947
0.162120361363854
0.157722431043987
0.156858766081849
0.161019849192222
0.162003912360976
0.160920894884537
0.162810422147798
0.159213860933122
0.163487097428473
0.16385939930664
0.16460421967108
0.162719684489161
0.161549116790531
0.162117514461566
0.160605268562843
0.162561118108435
0.160045376157446
0.163970167293278
0.165903821786701
0.165104658205869
0.161394616087676
0.164789364860902
0.163903393981621
0.164781350855227
0.160515532855056
0.161688677103547
0.167117627073924
0.164759600316964
0.166337417690309
0.161370340228467
0.160570686352369
0.162891532504795
0.161259358270728
0.16093913967395
0.16048937538457
0.161361912617149
0.161961525195993
0.162885090579805
0.158017298612793
0.161174759263454
0.161082852899919
0.158945947959563
0.16229785841918
0.161616542436306
0.159866382816019
0.156671785487861
0.159816046308685
0.159517025530249
0.162202807980534
0.161751489549931
0.159714190376247
0.16070876475568
0.161559743360457
0.157902957851258
0.155878096823342
0.158177289376949
0.159367872640385
0.158069453063238
0.1591615835257
0.158752738466822
0.160276173031293
0.158227728464046
0.159951304453755
0.158851908321162
0.157831237030678
0.156470678794005
0.156779427576915
0.153144469865814
0.156089827488546
0.15522294658852
0.157796399677224
0.156496355898419
0.155796399426432
0.157448227796353
0.156846072625724
0.155697352462911
0.156649748004803
0.154684190613948
0.155338675431536
0.156205029903553
0.158404845322668
0.157082308127734
0.156204839562543
0.152196536031866
0.152994957785635
0.154419207433627
0.155027895263576
0.152453936150005
0.157628334996664
0.15323402836179
0.152797373672558
0.153589243930235
0.152711628789025
0.153529672686991
0.153481578580651
0.153956272891766
0.152914513949896
0.156066452286367
0.151473275498964
0.151714712247828
0.152740448055243
0.1502064615104
0.153489170307246
0.149750729191075
0.151244768482937
0.151966020320423
0.152446614580739
0.149706198622352
0.151272827208077
0.150209099977752
0.149920212935974
0.150920941582142
0.151208777696542
0.150638459692959
0.151380414187852
0.15230310427671
0.150125384765265
0.150035225273942
0.149944877326571
0.147265534682695
0.14836919996515
0.150154469521573
0.151089406876299
0.150587230529254
0.146829459023877
0.151040280385749
0.148480828438795
0.147874531286802
0.147506310966123
0.145800687010564
0.15030305806279
0.149037134786428
0.145254153123164
0.146327553028826
0.144826490086734
0.143730587467263
0.147896196171729
0.144610197574581
0.144089348804357
0.148010399313667
0.144578713496717
0.147317175239406
0.146925300968884
0.143200380291282
0.146049653101883
0.145554234077305
0.144236160220197
0.142935277255119
0.143476952629899
0.143891017571335
0.141051064433626
0.13921476161754
0.141816850492858
0.14091378578251
0.139970377501231
0.140095252815691
0.137062990150158
0.138161827449792
0.139452638232031
0.138405816191135
0.140294009117313
0.136708931128646
0.135895455902056
0.141094557550266
0.13602725465233
0.134945271600485
0.138894306834591
0.136817066604509
0.136732614218907
0.135174161696615
0.13631273279954
0.1349185434409
0.137106943471123
0.134237680789818
0.134080838629183
0.133058794845224
0.131137393523324
0.134542652187196
0.132790449000922
0.132553562393309
0.129532526098573
0.130005838525568
0.130351867480958
0.128544550486418
0.132431744400537
0.128885320314028
0.131833603797544
0.12874860442648
0.129310639215426
0.126907941174995
0.128651742056071
0.128612550650425
0.130902879598636
0.125260607405113
0.129602581388231
0.126500693565098
0.12637965628126
0.125578184906588
0.124665970721957
0.124993410594267
0.124781053180761
0.125948572502133
0.126166703042275
0.127850142559666
0.124354662657165
0.123345059013572
0.125804550197847
0.121148433080013
0.123876140542127
0.124832335166514
0.121828056799395
0.125252762786364
0.124834827847807
0.122871211679913
0.122356500616164
0.123190349431853
0.123401445222119
0.122676283949014
0.122668750761916
0.122294338428478
0.122274136142272
0.12121529808256
0.121896049783554
0.121789685352675
0.118137965896721
0.119780193596131
0.121742869619987
0.118534290897713
0.121961211236305
0.119182474440682
0.118914989178675
0.118320613808292
0.121791394346269
0.117471054814162
0.119877074532198
0.118073206982893
0.119012755103683
0.120435272421754
0.116411535720119
0.116923331762256
0.117672422084714
0.116493090181812
0.11638811389406
0.119201034278058
0.114858012828339
0.115378679202811
0.119869102441125
0.115864831071537
0.11603361184591
0.11312438719036
0.112404717278881
0.113480213800007
0.116938273739062
0.115349582127834
0.113695135414278
0.115212128979494
0.114624862645123
0.114203501517882
0.114569917343988
0.113586867313463
0.112037069711688
0.110928674834858
0.111972565644681
0.116385473635091
0.115600389487246
0.110985461096835
0.114610772405912
0.10979271075344
0.112360072928575
0.114848783052944
0.111659496003356
0.112003695649657
0.117530486486722
0.108995738780196
0.117283532083144
0.110901465180457
0.113050448334849
0.112092765190588
0.114328584730637
0.111118414856619
0.115994348605937
0.11280341129643
0.109552238908515
0.113900408632312
0.113115394288659
0.10900645602855
0.111598074640735
0.110600558935533
0.114537183676403
0.109950430843005
0.109962715029137
0.110948940298393
0.110356890734673
0.110439901401187
0.10733185068434
0.107758782791355
0.111038829358287
0.108622731055453
0.112554446639519
0.107719973002676
0.111435695326983
0.107395489832316
0.113990578281073
0.112731857431696
0.111393607145289
0.111223196579859
0.108347354457164
0.10524794872473
0.107037729033413
0.110150477921243
0.108364842201475
0.10891906159424
0.109961741810758
0.110438042684667
0.108313244083622
0.108902194610994
0.106884542026125
0.107792809719321
0.105386481549151
0.108436540339383
0.106048023009081
0.107591567736921
0.107335163157296
0.104328027838056
0.11145512126559
0.109160419667146
0.108783677716591
0.105549605996391
0.109547480741649
0.104908368606777
0.106740530289485
0.104932249532733
0.104946997502065
0.105529065967625
0.109112850005851
0.10806958915952
0.107214143204099
0.107586006766989
0.106635706715035
0.110330960253223
0.109025150259117
0.107564402619464
0.105991397627108
0.105352087418094
0.105575062610024
0.107359002039639
0.10619507687987
0.112049586950456
0.105374783411135
0.109184889010201
0.106350967752866
0.120007657183135
0.103491166885563
0.105866979698673
0.104800643265595
0.106327143318673
0.109935445801515
0.107774788904106
0.107787866836111
0.104274380579981
0.108677615971561
0.111564522127713
0.108669503951552
0.109271719439934
0.109657538552443
0.106702847575992
0.111103025031304
0.109798422738492
0.104717123103667
0.109585860957467
0.108099769297982
0.111507615305611
0.113558629248332
0.108692138338789
0.113932729301271
0.106872854005098
0.11107991575845
0.107033890778069
0.109604805262975
0.108392836726575
0.111657543453329
0.111262747468949
0.109945990239804
0.110230630348961
0.109929556291665
0.111124555469548
0.109343157106283
0.112538128977787
0.111217558252632
0.112641218365891
0.114334233718588
0.10777695016385
0.110537937329753
0.112809919562217
0.111561352694581
0.108153314424889
0.112103880978318
0.11275979196008
0.117309928069087
0.117907260343974
0.114666090987787
0.112713721292632
0.114681665266525
0.112466890893894
0.118202486991611
0.11121606684086
0.122943999349453
0.119644853857832
0.115540969878194
0.11992625270787
0.112224882532684
0.117762880061747
0.115836436872976
0.120574512894233
0.11357862873079
0.122278049726871
0.112387197949215
0.121093904121683
0.112846978183712
0.125249348816781
0.119661336398697
0.119072878611119
0.118636860811713
0.120264160708743
0.119376490325156
0.122190849234135
0.121911615388001
0.121168924936856
0.132516833525726
0.121486245392771
0.126433841726583
0.122259017149884
0.124312954955912
0.131907920271821
0.120472012020404
0.132722134512244
0.122929916067315
0.126870267770621
0.126836940179017
0.129993284862251
0.136131940073975
0.128248999341026
0.128124742254768
0.132094892977415
0.128852701664105
0.138787636080101
0.134083976538728
0.136547210859143
0.13226521610494
0.139624760019763
0.131763234027303
0.15003430935523
0.133032868269191
0.142185155793612
0.144014676178389
0.143624827760268
0.146207588452438
0.147999846114353
0.152991311198642
0.149621013866144
0.153152913696511
0.147424627783048
0.149369649302459
0.158017258078336
0.162417476818236
0.153790196945238
0.163238065268964
0.157425328086805
0.160547501764145
0.167361855510354
0.173304284514889
0.166992612380837
0.171731534572878
0.169877222884264
0.179911484157457
0.170286286306165
0.173619602354447
0.176785058514493
0.180840356039732
0.181192781233067
0.185869689003934
0.191016180483533
0.184866071685136
0.189213041436425
0.193817538255741
0.193886288710804
0.204866658196173
0.20296241852793
0.207651782533758
0.198196116883144
0.222363311262664
0.20300787277809
0.210678219973749
0.210886223965861
0.21431842842552
0.221142525026641
0.219228845294713
0.224479161114764
0.223710396105588
0.237824862677799
0.236992162517465
0.234788868134675
0.248823327581272
0.241009977265514
0.257843400355736
0.236092331116965
0.308844321721977
0.260516298589553
0.279209115717927
0.279928176528184
0.28906271950025
0.305471719275347
0.304903937466151
0.314378524751439
0.325838490724701
0.332718590224795
0.345081601051112
0.350319077382124
0.359905774170531
0.369760789901267
0.378022287544412
0.377065861479372
0.395388321354169
0.411934551112603
0.416223261917397
0.425092205826781
0.430975667917188
0.441899292827596
0.463844907240503
0.46137191848906
0.480219281906464
0.479349167161344
0.492164394467644
0.537011033390677
0.512747118110214
0.527792368237644
0.532144896108742
0.569214338780282
0.560043712083369
0.586733834833618
0.597151714817923
0.597104896494662
0.614968698692689
0.613813428990314
0.634666205656121
0.630285895248927
0.6760146959293
0.677753334014851
0.674178005366202
0.688376386094874
0.695043313260597
0.714190320486822
0.729040848152765
0.729191203713495
0.734568275238669
0.761257590838647
0.79227729397534
0.840179206862859
0.785367681160172
0.763804648460986
0.76858245362244
0.732537974128228
0.789762160448668
0.770198294102195
0.805916455703447
0.808225534460419
0.777023607390716
0.781579006994702
0.796287703041512
0.794449557122291
0.797129135625187
0.828055105455735
0.803382437294883
0.807996639363005
0.814127143856113
0.780070849863358
0.851242061626964
0.797044491210652
0.814172298945641
0.806830498993499
0.818689100060301
0.814369659448785
0.824556789727132
0.79272558526943
0.811697307925127
0.790990160502463
0.788389002146595
0.752703319953485
0.781702866051745
0.790152861551653
0.740556082832352
0.7353404863839
0.748859340368483
0.725456592029383
0.702796135715111
0.695088147792862
0.744180423994979
0.696152964301469
0.681953073327229
0.666601380936341
0.670412964667612
0.662674897286362
0.656606232749862
0.639702323409473
0.629140031363494
0.63206695304713
0.636678095710464
0.629994881333511
0.628588269515298
0.613333013033675
0.621472717120081
0.608874337797412
0.606099631310911
0.616766717477272
0.607089306299786
0.590396148302989
0.60390234358777
0.601600481802537
0.592926333112941
0.595355486315836
0.589249303690742
0.597650061428148
0.604840115485171
0.592606384275839
0.595568938656225
0.590892464745744
0.589760691013244
0.590371491697855
0.585241892016572
0.586189719387262
0.593607184536414
0.587481857715028
0.588817353209828
0.585621219122001
0.585061359733664
0.586084707165157
0.585143797761471
0.584802447933691
0.577379046460067
0.602156269325578
0.608718482897395
0.579732578951162
0.591054687725286
0.574945037599332
0.576579013682644
0.579491618496793
0.60953305309675
0.595702419601757
0.581436131944743
0.571286994937049
0.565056399651898
0.572618538832704
0.576656016281312
0.567481222113487
0.581502443955595
0.560770604294063
0.580065909187398
0.577420885297609
0.55036745702009
0.601873120428082
0.562545692863998
0.560449455759145
0.537035333986516
0.581422785417737
0.561018847176446
0.555556534583654
0.55296094575921
0.562508448043865
0.559454339534179
0.543402396045277
0.559517872975704
0.541593121560468
0.541058026615565
0.562476853324229
0.546472373432938
0.545414720756461
0.559183206314481
0.53511945943995
0.551980296941849
0.543727462435716
0.537845480903801
0.525153588129564
0.520973952904861
0.517254824658033
0.513558919927914
0.533056397689644
0.514996463998508
0.510852256853734
0.499420306132026
0.484292533161863
0.490193543445812
0.491328462577427
0.491484116405258
0.471015194181735
0.497777368422043
0.474200227496236
0.471873503981149
0.47184041632942
0.469543374395277
0.488571777902654
0.459984578145381
0.450989210967305
0.461906535798896
0.476777327598645
0.452925063254178
0.447645793130567
0.444250278872005
0.432186466908364
0.431535186138311
0.429572945002891
0.422723176669846
0.421516595416714
0.41618314988786
0.416521193913803
0.424764035577669
0.422048153364163
0.408831940068645
0.404278145390061
0.402952793002707
0.398887296746056
0.397176640502181
0.385729010566668
0.385196367756703
0.399843956180552
0.385480169529759
0.405726626171757
0.392577644268044
0.386679782706648
0.387491068564865
0.391947786010666
0.393106084207162
0.400104112464327
0.402215157628624
0.404071653625754
0.396171305009606
0.411852441008072
0.406804870791932
0.414792917613624
0.414699937584345
0.421184436446219
0.421391841927923
0.43466926499033
0.437564000462975
0.444898946212514
0.447358354258763
0.458236821905721
0.461247860379435
0.48587485808556
0.473130103369025
0.490117113136347
0.495000114199506
0.519931240829129
0.518157635973945
0.508655903773551
0.528452965259837
0.535469798119164
0.544665753085795
0.553866226196931
0.552802205189312
0.581110421160636
0.569192411564677
0.576785724343897
0.580078300268908
0.584358720428434
0.590520255638941
0.601154917528899
0.608161982210607
0.626905591276552
0.644086429955563
0.609638176479425
0.623778178213584
0.621635766715281
0.627141089190997
0.632936145251012
0.629526169598084
0.633818915750341
0.621204550895892
0.639837767506918
0.644956566688427
0.642258302406356
0.649048719497449
0.655267435279935
0.657772418278245
0.655877247091215
0.657791806022389
0.65521364454171
0.66630632331887
0.679338498446157
0.659040780728196
0.700181203119942
0.695439781664568
0.681242683704739
0.695537557866573
0.699483016000205
0.705837342062975
0.693488326390482
0.705664605721759
0.720685474476255
0.718590256717713
0.729587640684236
0.729381192807088
0.720208881006388
0.724341678840502
0.752120785221102
0.742962693239335
0.742421323223619
0.739629283499629
0.729213905821971
0.790455822632609
0.761564653782493
0.774242861019591
0.775240382129622
0.773319633575341
0.770421035479687
0.770443044521492
0.768053860594397
0.781616587154308
0.778859750547775
0.775476923409441
0.780512659810096
0.781867254735916
0.782518147149106
0.774184827237418
0.798403972406385
0.781484231133122
0.787981797026271
0.792848025449135
0.779832303375181
0.779153761412863
0.781180749410075
0.792425636803566
0.792702329976489
0.783948738647303
0.778942600960981
0.807285943012797
0.793194039250639
0.778299153169036
0.780438266695461
0.789887933121272
0.789075948347181
0.78383909004111
0.784805835967245
0.805156377279737
0.811727857780476
0.815019129765767
0.805018087165788
0.798015940489459
0.815808046109753
0.815489627426575
0.805638197723419
0.813604952793327
0.839226784295288
0.826907342359799
0.839004997005487
0.837144008524273
0.833146361615751
0.838918030796354
0.829323398783681
0.831826093372207
0.844685652751695
0.831346955651074
0.8273487388428
0.813925084985689
0.814271727970056
0.814353291909707
0.813010413411719
0.812211287014735
0.784060179114521
0.79328201654539
0.784630944837286
0.778024637429999
0.786986785952951
0.783922267177774
0.782648434044146
0.763315244220817
0.766947785691624
0.760643388595519
0.756658978793691
0.755318918732491
0.752830543940139
0.73466822435878
0.746123451672086
0.750232423345362
0.743403751883781
0.744315618322342
0.737548018591794
0.73799025413313
0.736406747140384
0.738296173080366
0.741361581961066
0.738292189932943
0.734198121765087
0.741994623894903
0.741940668722351
0.728868716930632
0.745679462592487
0.740363781481524
0.73194269046903
0.729903427215045
0.741851284336614
0.734334715531708
0.732894325302737
0.736099566687998
0.732032789144969
0.730957956376212
0.734530007736558
0.73565639660494
0.729030579804268
0.733874882691558
0.728929123956751
0.727742961682632
0.738490501368167
0.721004617636734
0.732407739312147
0.730259176231174
0.732141888153682
0.727951612311608
0.74203505938095
0.730133119269665
0.735951866271091
0.743400130535902
0.732218424342489
0.732092551840841
0.728093848684535
0.731214587249467
0.741968207511037
0.726769097278983
0.732512759191995
0.729346315568728
0.733359629169534
0.727731612793923
0.718944075107081
0.724107164390455
0.717537026693721
0.709513967632576
0.703928106834544
0.708053906674641
0.702352656221463
0.698207646208003
0.695020660115279
0.690466036383834
0.6753372991975
0.683182921410915
0.675396512945863
0.671966630816317
0.673041462905327
0.658418332735752
0.654824938495009
0.65341828852774
0.650034102184985
0.651617064040142
0.650427859186404
0.653465036452706
0.645360323790737
0.642462453344619
0.639958077809247
0.647303231543371
0.64444258094526
0.648252845044993
0.652807799631437
0.649895170118621
0.644090499165793
0.641508957672344
0.649376200210123
0.649261702716019
0.6489130881762
0.649941630064814
0.652351239438615
0.656394199546037
0.663172493046034
0.657957744513515
0.663518288721204
0.670698357389434
0.6696638511364
0.67433666575333
0.679302264127931
0.674141160584635
0.673165116827827
0.676166594858905
0.679950031982153
0.673851457389922
0.684394437663969
0.6815718555736
0.6803695301104
0.676709473672916
0.684456490518661
0.682684006086999
0.676062398325568
0.677270258722959
0.678547652867185
0.670648606641048
0.671957802376247
0.677618642673347
0.666739027763868
0.667739830301941
0.659381736657287
0.669387038154833
0.665682160366825
0.663509568804766
0.654073067476394
0.65913136514636
0.650279112649735
0.651388663177149
0.655726739901928
0.643354049953871
0.638973172976938
0.64499472305955
0.639163115098452
0.645984353457972
0.640422593296476
0.635606882574127
0.631256715190991
0.631653238667789
0.630897894790679
0.635538972760704
0.632428707872116
0.632802824192149
0.630501782024427
0.624888027245487
0.626106644154044
0.621388441362253
0.618427673870041
0.619154209022398
0.615739540735683
0.609118311930288
0.602124849996922
0.600044213208729
0.597808218774208
0.59265123287317
0.58603903272362
0.585427696513288
0.575942856676046
0.572558758988295
0.569773112966856
0.568869014136753
0.558537260338305
0.562262420437203
0.556625822676284
0.556855411250693
0.553248912728529
0.555126551367803
0.553070772158548
0.554253319981702
0.54843272935855
0.543763537080946
0.539482567932485
0.537961552790555
0.53593144294107
0.528361860886485
0.526115322115164
0.520257769216566
0.516251052700266
0.512467494795945
0.501743726200682
0.491947708639144
0.491412890043572
0.488223371397397
0.483970389470136
0.48384867722148
0.486440257446684
0.486294270211905
0.489563892701968
0.496274189569283
0.500549135429455
0.508385320210072
0.522969301321842
0.532021202126706
0.547705954299821
0.562870969607114
0.580134882548719
0.600239399820923
0.618910029852542
0.640003383124548
0.660129186729843
0.67277335259947
0.696377738596777
0.725367184396186
0.736910380151641
0.757226198151174
0.774800521047518
0.792143546297842
0.816915219009786
0.832575082413367
0.85658826961665
0.867255158619608
0.890321815416461
0.881353982427961
0.904298259786144
0.913374136849471
0.930896427869876
0.943461536655301
0.956464947164041
0.960285025032332
0.975170732284436
0.974403022958529
0.98614101444208
0.988255464223474
0.987955917107122
0.987011407026588
0.983350435774709
1.00130679432222
1.00078408762635
0.990509731892002
0.991924824399648
0.986015822212661
0.996460401608564
1.01579142707504
0.997292219885321
1.00032090821639
0.999022259228295
1.01128217064575
1.0114019669107
1.02856324159101
1.02646598419376
1.03427089912599
1.04125033860657
1.05899651932539
1.05110942249439
1.07450891955725
1.08178403901704
1.09259569734666
1.11250883978826
1.10864337587961
1.11785666575056
1.13415963342293
1.16715249552777
1.17861679403598
1.17136255954507
1.21395493763712
1.23800065244686
1.2542415458404
1.23941508517491
1.24024118885008
1.23694147418905
1.25310973013521
1.25052600847653
1.26867825814526
1.23842891801144
1.25186149247305
1.24644950631848
1.24054733410849
1.24087741500518
1.2361213801971
1.22005195834558
1.2366187212094
1.24235978558832
1.22019969817709
1.23330206463232
1.24691998059793
1.27057722242764
1.28312272045281
1.31327845587454
1.32030707149151
1.30532557022972
1.37758720091956
1.35007539938263
1.44427743164036
1.40690905341221
1.43862898549343
1.45627525608073
1.46780084829561
1.50372473772319
1.55713955882419
1.48322245825143
1.54184163281789
1.54372214398906
1.53567524926886
1.57684683371444
1.62331828773862
1.62536854163196
1.76133425044817
1.75475825417628
1.67658626198083
1.67849344046539
1.83784059225192
1.79454858407697
1.76451408835902
1.79845159038793
1.87034138307651
1.8726458565826
1.92588822701471
1.92665061003792
1.89749481595533
1.8590779761004
1.91184820548141
2.07509370555741
2.30471506803205
2.23392361161416
2.00143298279097
1.91353605812211
2.27949725884889
1.97086964598241
1.95790972121358
1.93481724357933
2.03654102220907
1.93759091026476
2.0305979669313
1.92555049974685
1.95647191006716
1.86831259386381
1.95052462991265
1.87694581060019
2.0372429964123
1.93841511110905
2.23845550479106
2.03969320141442
2.0663269337071
2.29161225370148
2.20498101491422
2.14556224480764
2.20589383883656
2.18218891916153
2.19046724075694
1.99781572553348
2.39728090915969
2.20295031601059
2.03031758992655
2.11811390670001
2.21003996815142
2.07371267954289
2.45963301829516
2.00944681342426
2.18456502691118
2.26508882308907
2.5337490856713
2.19275994351021
2.421000024655
5
5
2.15880940183096
2.47842512060499
2.09615997308472
2.40591217691375
2.00270466980813
3.19378230428608
2.27306816758367
2.71886712059555
2.01506660941844
5
2.18945897020132
2.89083388497916
2.04290047902459
2.78757198441746
1.94170647880067
2.43865696422164
1.97027132096133
2.29480926704345
1.83214287352867
2.1679741956923
1.81268144028276
1.92122646822933
1.77955774373338
2.11623112866994
1.75133629291672
1.86670912746043
1.82599055570972
1.81670800213188
1.73009147859365
1.86916956693635
1.86902990365497
1.76095755940325
1.61934149916427
1.73491135181643
1.66983272900974
1.6932837288641
1.72059432877466
1.74902756733391
1.53790481739367
1.71526079216099
1.59017292613608
1.555738478552
1.614961506662
1.69455127705331
1.5112923835778
1.59445509654772
1.63790999201423
1.47655980698812
1.43863799972466
1.49610212174309
1.40166612692055
1.51043435863091
1.38785798957871
1.42662971101157
1.32024803415055
1.31698050241239
1.21644410471768
1.2723681361319
1.18166566575222
1.17051346621041
1.12772711233057
1.14640924066643
1.05409902347654
1.0559670220008
0.997988921185629
0.973714657160553
0.923799294103037
0.935076427511439
0.911143535122656
0.9106039929238
0.86190394581969
0.860328301762605
0.837015746155748
0.830155818293294
0.834137407866358
0.836026913739259
0.821397257729599
0.811547588021806
0.79451388778284
0.806493109976705
0.79655105581824
0.799166955279751
0.785611056023232
0.803705409400156
0.793865367658282
0.808786065217619
0.79011918063673
0.797853910639155
0.786864650122918
0.7888171127692
0.760710860669819
0.775626750477763
0.770452475064202
0.771907969014344
0.757257605968432
0.760771209880384
0.749544632322601
0.749071201941281
0.715734723096981
0.730876770632204
0.737883915742662
0.729417460047874
0.736557160785232
0.730590311150917
0.717251968959057
0.759279260569332
0.734528381026687
0.741674108867174
0.722137449411025
0.748874981008307
0.756369061223938
0.762040488801262
0.758188113324746
0.7578939157519
0.7391081408421
0.768148113813486
0.760769697052048
0.786391281960762
0.778547339715451
0.787668773210734
0.763614673116476
0.786179618628171
0.755837640066508
0.782755300940993
0.778322989255589
0.784175267965822
0.777323209264174
0.773769280567105
0.76796823638808
0.782905054947473
0.786688327817513
0.819569206510703
0.797924476639582
0.822143376954243
0.85843774781112
0.857560598658955
0.884068869959661
0.884924555631485
0.873699336563698
0.92619764833715
0.910900635380332
1.01140653016296
0.976601632591842
1.00240468727037
0.974282774093702
0.989381204899717
0.996807454510674
0.984082134836282
0.957573198266994
0.967484386802636
0.959081993089666
0.946165414197074
0.955460818637475
0.904502597705097
0.92968284126596
0.931688060334609
0.901541898491226
0.900997103103073
0.919488638394176
0.958326189944811
0.912906413678096
0.955396511880901
0.918333341628456
0.930101053766774
0.916605113228649
0.936316355727418
0.913802261188499
0.899632857650867
0.884923913896056
0.90128281846698
0.911621060112368
0.883735080813897
0.871072512279626
0.883947846079266
0.873037978177929
0.899397902300479
0.886530475205982
0.881604852479468
0.854461389299571
0.862602884514814
0.844613993801805
0.863010703758203
0.87264767730836
0.841889820183133
0.815019981248285
0.878481326526538
0.811649495977309
0.864192254913197
0.826067241566345
0.841860633544853
0.796542119124053
0.830987307641501
0.824857940038664
0.82374801731232
0.802751348871406
0.832450119441716
0.788238082612234
0.803252475358626
0.79385442449258
0.815199842524445
0.80281557463693
0.822794846900761
0.812810548000017
0.81646212304756
0.785906949113527
0.814970175664266
0.834520049502486
0.842301497404677
0.824682830349876
0.820874975200001
0.801970967975152
0.847774202262003
0.79394451254905
0.807164193158089
0.808374686829093
0.796573103557518
0.79057949210121
0.814284425949097
0.834855739500845
0.84091576922857
0.797375738859212
0.843319362143701
0.790229479128962
0.81555427233905
0.794503683468553
0.83420177109392
0.826285570929069
0.799164129500476
0.849217339127074
0.860711712627514
0.846384253186264
0.843604392249474
0.84313378319004
0.866711429950724
0.84876023425505
0.944980767247954
0.869437922891247
0.904449750186819
0.849599260739585
0.859233357454317
0.872210734904152
0.936365454025268
0.870060926414611
1.03403524912029
0.962503827503298
0.923778055899778
0.925114098901548
0.986545151823088
0.946678964359563
1.08238499657554
1.00753076238243
1.03018189468588
1.06477365053914
1.1083030895499
1.1329339090002
1.17760627642414
1.1880938609005
1.18535796769128
1.14615628214933
1.21732945959859
1.22110790290643
1.29537995701818
1.24208231119105
1.17977144627571
1.17634665701326
1.13641419503553
1.12382707861343
1.26019912819072
1.09449226247072
1.28773545941749
1.23074454522673
1.15142780975981
1.14616949926177
1.33128378917816
1.2099998013886
1.24137954272894
1.11288731394296
1.37195186495315
1.13421665665374
1.23781656807803
1.1688655744611
1.35061858803586
1.27769219320691
1.31905924599882
1.18642289573729
1.37921609524963
1.05642764174536
1.22701780554794
1.26784355166512
1.26723220147202
1.18124163993875
1.32327246078822
1.05660880783505
1.11797699042
1.21346310430933
1.3439770049573
1.21428190766153
1.28600599046839
1.00321024193178
1.16956053901818
0.99683573144251
1.27949528508086
1.17353096227897
1.28849307257092
1.17405100711952
1.24884764405219
1.23286009951712
1.26085134003187
1.14176822675844
1.12096508767187
0.982211723765342
1.10946964635743
0.914251006661114
1.13009197266206
1.05382612017564
1.37874303112616
1.49914387422954
1.33492112475322
1.26954810677143
1.58369047859537
1.00476466411722
1.11852390981756
1.30432366281819
1.56167260210034
1.1420033182925
1.1287745706321
1.15791962930416
1.30558159919795
1.04199440185786
1.3477319036837
1.18765093313725
1.59529125478714
1.01247275187171
1.33338898796324
1.21532728613306
1.32346030335291
1.36880494997536
1.91526535247872
1.14642835880753
2.41747577583693
1.17772685300595
1.71114449533685
1.37127615475534
1.56283206965897
1.64503939799346
2.02238769819617
1.03457447259662
5
1.17855532494714
3.00039036131151
1.03648295211569
2.05780155104643
1.09601730606448
1.58725256327585
1.24776501924976
5
1.14578140014949
1.48682918058934
1.16450931476557
5
1.42569874027299
2.00277448934147
1.11074179469943
5
1.24365793585962
1.81224355342951
2.03108831238317
1.93807014794211
0.774970924167966
3.07620212522206
1.26614493714286
5
1.60520882152914
5
0.750903644647245
1.09788586369837
0.700443251600255
5
1.61024965498624
1.60342366392118
1.76924660834162
5
1.29750072838269
5
1.00508243341742
5
1.23552501665264
5
0.986124087860647
5
2.77919893982715
1.32051246680732
5
5
1.16258079318971
5
1.19405206317022
1.37315949695428
5
1.15362004018902
5
1.02334145322327
5
0.616455082650649
1.05351914326497
