3596
4000.36533379555
650.420452594757
1
2
2
0.0181284169423427
0.0184881170359534
0.0195894997950886
0.0102325795710753
0.00206445825731977
0.0123940137751562
0.0148036896528191
0.00934400411414129
0.0146294381509921
0.0181459501904893
0.0249019157422173
0.0112625861821107
0.0178399698762632
0.00541103043693424
0.0147094213044479
0.00973350632950416
0.013676189505412
0.0141388786886311
0.0169742149609411
0.0190874189323124
0.0141399170733664
0.00931342330253998
0.0210682041223743
0.0160368588928165
0.0251563332981461
0.0135702069117493
0.0121503343114073
0.0229111326125809
0.0213634871398662
0.023814475764338
0.0177196055589594
0.0179522791619636
0.0147335375459482
0.00834872185308328
0.0133001689254723
0.0150287881117426
0.0110264543192093
0.0128402789526038
0.0108853067753244
0.0122545451688327
0.00852917635095785
0.0116597227344015
0.018685533700777
0.0179733372499563
0.0027530296412322
0.00753074609952041
0.0144098269434622
0.023040388710916
0.00906269920174974
0.00715649311454789
0.0139656537358501
0.0175592064166391
0.0287273793051636
0.00858142668500611
0.0209340016776764
0.00839851311943178
0.00834878811263411
0.0147716459051907
0.0185102411676094
0.014212375841654
0.0247569837163832
0.0104865875231793
0.0160158248380626
-0.000577464282536847
0.02903140874583
0.0103632402682446
0.0244695791961726
0.0156345055040703
0.0222897731556017
0.0132907660333238
0.0222959672421157
0.0194140125512901
0.00720433216395237
0.0184353134920739
0.0193667644392924
0.0140523175020969
0.0130979813628743
0.0135181016684625
0.0243682780650573
0.0206214342362115
0.020669781962454
0.0139553113339619
0.0114988685008083
0.0130839313333774
0.0325462288638258
-0.00428941498677799
0.0151716464045418
0.00900489359415547
0.00821347527243357
0.0106869232719673
0.00546293259899995
0.00705582098783705
0.00996958320225864
0.0160463847812423
0.0176467151148465
0.0165500802182578
0.0207484239249625
0.00473148626280718
-0.000620754299800794
0.0246149962758124
0.0097812057269762
0.0342759517830583
-0.0125747530999604
0.0332054835964672
0.0478393997567298
0.00363271010926081
0.0455084334183619
-0.00228113589143874
0.0242008425778033
0.00426159258039647
0.0161325338370444
0.00265791874266071
0.0167930660358984
0.0145404969796303
0.0192285331984845
0.0213182422437152
0.00139224219969038
0.0113979711625877
0.0137451603877255
0.0154233743560025
0.0106179846297207
0.0371929015011756
-0.00879576928555783
0.0185528910245183
0.0121685791913994
0.0126226023751727
0.0212406942554114
0.00526861002033225
0.00558126062666489
0.0191692839866096
0.00451974333810609
0.0173688748245006
0.00420262948768861
0.0340120858820279
-0.00301103272683891
0.00606979015301181
0.0140324091847705
0.0208973261798875
0.0596349022191053
-0.000770130252501207
0.00658912464796075
0.00819405122007985
0.0194040308305128
0.0146568784473504
0.0166910334444318
0.0123876312570068
0.0209846750143099
0.0114045069140716
-0.000627723243370687
0.0174579897478285
0.00364067876941877
0.0186121897317205
0.0207166223176957
0.00605105319873137
0.0190066747691431
0.0372311117270286
-0.0278772939002302
0.0565999774605558
-0.00740541817286534
0.0074540138758766
0.014207179886979
0.00457267470629507
0.0144547971015894
0.00493402592363498
0.0188007393627832
0.00442491324366012
0.036810651755947
-0.00146239466156934
0.0166798313093109
0.00864287919405681
0.018892073870052
0.00258359823166767
0.0332102271522668
0.00420359277274772
-0.00378670942740114
0.0308645447638484
0.00020042647370662
0.0185971563542623
0.0115886061248632
0.0270018734736894
0.0106871880149408
0.0142615912141836
0.0089322259869546
0.00797165709593091
0.0194349228486095
0.0104069277648194
0.0116329645506389
0.0156585258326783
0.0131132598123831
0.0286295471587388
0.0362502051710157
0.0256925546088926
0.00224271662275751
0.0149324867076915
0.0122990558869931
0.0183281253160363
0.0370710371629855
-0.00772304833730953
0.017260500894108
0.00792465263734828
0.0113054060070041
0.00835640919353604
0.003155588360063
0.0127888969028499
0.00593636559814986
0.0300890357194117
0.0260646811603182
-0.00931188994350966
0.0188921844168238
0.00904088555727182
0.0182162933492718
0.0096049013792251
0.0441179047557834
-0.0130978966655959
0.0314279846490846
0.00195435387139749
0.0188334020028399
0.00256045022805343
0.0184198778348272
0.00715877059492057
0.0113400093806591
0.00512064190880553
0.0117563303781477
0.0117978050124173
0.0138170326900246
0.000906167374596036
0.0120736281170036
0.00573913681858519
0.0182928977573962
0.0150317303586828
0.0193800289859437
0.00150461262984267
0.0134903393673126
0.00917333721779169
0.0172678679210305
0.0226282604206886
0.00407656331744039
0.00936314911731524
0.00711979113513818
0.0054283530470417
0.0122367339960371
0.000395755186131062
0.0141317025384854
0.0107450968729669
0.00820953243388782
0.0189742101492356
0.0273801721431361
-0.006144268514303
0.0209573961842778
0.00734480949916092
0.0454814624586026
-0.0103295609554991
0.0246033721153844
0.00411571168184591
0.0258509354580659
0.00401278657124695
0.045561463485724
-0.000897132681366725
0.0201197838735858
0.0108846024136915
0.0325836658017364
-0.00118512252521985
0.0230207278898713
0.00981349789846883
0.0303089777956995
-0.00418403038078061
0.000478000037434125
0.0339038786901974
0.0299324581526999
-0.00534872504523003
0.0349534803475043
0.00717681427297647
0.0499385885886419
0.0258117111354868
0.00482494491418267
0.0101176711279458
0.0238384531595973
0.0102613885091136
0.0085834479871331
0.0205965002140744
0.0104258088091804
0.0312192158395825
-0.00250316323688443
0.0291843855762542
0.0361570694010197
-0.000506685775088724
0.0517760737806654
-0.0143948457163168
0.0277976738970344
0.00426063714182315
0.0376922169622386
0.0036839195926193
0.0381879359840992
0.00580297721978246
0.0348733756697628
-0.00162397365950181
0.03567753975111
0.0139498379452578
0.0184513644022913
0.00591727785592697
0.0283256115554635
0.00307106415727962
0.0238686782536045
0.0149611777125736
0.0296398689948936
0.0157396940810894
0.0165719354967601
0.0270113877669069
0.0308826733605709
0.00248279384736193
0.0301132181810345
0.00337449938281311
0.0109314428648805
0.0126028650631449
0.0172210586040143
0.0166047572609401
0.021739911935069
0.00887302078254455
0.0142084204427748
0.0251567588218205
0.0160574298233435
0.0202151456616108
0.0148111129315494
0.0145461064664406
0.0193873549452521
0.013107158435035
0.0207851890374622
0.0169734061111936
0.0189212319560385
0.00698798126548198
0.0447569084585634
0.0258648575049474
0.0107933464553126
0.0543458504212927
0.00680502226346743
0.0123906151569386
0.0123549705839311
0.0184876158866789
0.0253301331746438
0.0172933550208593
0.0265510375589635
0.0208921775216357
0.0287920172519485
0.0263513780970717
0.025904790940594
0.0271356986898713
0.0532154956538281
0.0325278440336196
0.031250362711599
0.00903482802269436
0.0429905544864638
0.00779721719791235
0.0720202959046581
0.00388525231558225
0.0392068727997908
0.0149507633702795
0.0201011011241402
0.024522356922126
0.0273883322447361
0.0293982980086554
0.0309051737462695
0.0277794369689524
0.0311083487258049
0.0339781628976601
0.0277050490679388
0.0273403794473085
0.0323014624381233
0.0406219958892682
0.0440332887668545
0.0264385010410211
0.0436036606949445
0.0409397388939536
0.0490658022156494
0.0675146273094028
0.0444336592260505
0.0567102495110384
0.0418173631566875
0.0408327455751388
0.0457587881951657
0.0334373939702315
0.0562587634698316
0.0406050445721009
0.0647192007626939
0.0428259288177761
0.0577527328376121
0.0528671624629142
0.0571514525331254
0.038932563226503
0.0650524274359676
0.0552480076159082
0.0695252951595735
0.0445331369464742
0.0799236495067359
0.0465308060934036
0.0827220911853726
0.0579376775592644
0.0941626089184583
0.062761088382562
0.0833820822525768
0.0548836727285715
0.0816959828544724
0.0590072123692415
0.0860281877393555
0.0589359058470925
0.0865578853811955
0.0861001259294425
0.0896582289594296
0.0853224558409158
0.0917770286004761
0.0813359839662244
0.0958619320138275
0.0750612119752611
0.0991362275195413
0.0849311087803106
0.108382859488771
0.082605875254334
0.111350538037809
0.0916202929899685
0.116821766081145
0.0973825044158398
0.128139762966848
0.106450287864525
0.104047823796562
0.0957897667646629
0.112195416569753
0.105095748050343
0.120061131346097
0.111816069999492
0.121463938204741
0.123098785994436
0.140722764401661
0.123451740082429
0.137097079198855
0.131968662363336
0.146035910673258
0.139464976182115
0.147415267584396
0.134097807542909
0.155629272986126
0.131328450657249
0.17053093620215
0.134663328440671
0.168487655229812
0.134275457900876
0.157217342754448
0.153362839163831
0.157351865402241
0.141972692365106
0.161242030620224
0.168637949140765
0.172561970838696
0.175623994319142
0.190789690731162
0.17752220456507
0.184586218661544
0.180131068695325
0.204020323688404
0.191047121769048
0.209645414358186
0.170906551731469
0.224019879218516
0.19653352515319
0.241516699516573
0.199252875614566
0.2397704074537
0.229994031671327
0.234659552656112
0.225978063779778
0.236406797910865
0.22594902698696
0.229997798466434
0.229268861370795
0.251984995056418
0.235130512972899
0.261521678371716
0.239792120904097
0.267857894570902
0.25445776021009
0.270069670342546
0.260211699648459
0.294458605992126
0.255123373069291
0.28069351579741
0.269612137082412
0.292669448918512
0.275759160601719
0.268117759441636
0.268076247081174
0.301968927436903
0.288321546198394
0.30115503007128
0.276611290615312
0.333787499316511
0.305395344605987
0.326010448746504
0.303119085270807
0.339168940735945
0.322804687160971
0.352100324702613
0.330073367547487
0.344567834117652
0.332886235835657
0.352941336268915
0.324560017542245
0.369282517441712
0.341768899253009
0.362202329478232
0.346447415410241
0.374712309911899
0.363666571181166
0.390013011116574
0.352282061394487
0.36572703674796
0.384676312825603
0.395609727704675
0.387193003332985
0.404118924073716
0.384634168525919
0.422110476643859
0.37798077385295
0.432881383512109
0.401046567932216
0.447994555964384
0.430695089079201
0.443047888009091
0.420326407230016
0.480614802369641
0.421451289060385
0.442482734387243
0.435733536691075
0.467622865988556
0.434085505522291
0.481845598740924
0.448888970477228
0.490828911435382
0.460423918349935
0.48262036457341
0.469499140441078
0.484397835131133
0.515607615908135
0.542474055438736
0.469543017764732
0.51828034833874
0.491081547680335
0.548263532919936
0.497729119766384
0.538500855142058
0.508179234629727
0.567163110914945
0.525387511247466
0.555402887430723
0.53579414094635
0.574491983386404
0.545386627514027
0.567753402129277
0.542096750096198
0.574377978303916
0.547978415760408
0.598419836384978
0.550542070534176
0.609025866427053
0.594515718121942
0.628121785667842
0.557676412841988
0.589242069673392
0.563563185546813
0.630217733727268
0.599149188138565
0.600625854070467
0.592705040011729
0.610090825705763
0.598747053937861
0.665078232186329
0.644831748392621
0.663104175055248
0.599995084336934
0.6673819321429
0.640691805906416
0.670703419626092
0.634311652070544
0.670805685748685
0.638747175971274
0.65569286632701
0.620397834779114
0.69206341377946
0.653724827093149
0.703441705103114
0.655917711613425
0.720092666187992
0.671750570682202
0.727635349504427
0.691548144705312
0.723744100116535
0.715089993489063
0.734559015048646
0.668696207916479
0.73234719596872
0.698433803122593
0.74876153836873
0.719438035608245
0.775447810893726
0.705594252320595
0.713845305497214
0.710938392300007
0.746419663469142
0.71536624354471
0.767637675539604
0.710025708188346
0.785694339154546
0.752867655771966
0.801585036316612
0.763103981685472
0.745827111920319
0.734298459422727
0.773953380487898
0.802724389891378
0.837509172362035
0.774078546427556
0.814074293174067
0.741104346953358
0.809340043714917
0.779049076770351
0.835825447165108
0.79216469895018
0.840089467481009
0.799090562242146
0.824850673692099
0.791948365599958
0.841133444766325
0.777884948957372
0.897700962541305
0.908584313198981
0.850138971182694
0.816901774978507
0.844910885435023
0.763212032722764
0.850213569093963
0.860930533885945
0.866244558118907
0.848884292199647
0.852583717788176
0.81055591202369
0.934406163975086
0.846704419157272
0.852953790563141
0.853361479050643
0.886769293934825
0.862207856816651
0.938722103186674
0.868109368093308
0.892462619608646
0.840985843793179
0.883395014124331
0.903242391352946
0.92789592216488
0.889169355385581
0.929672775603283
0.881324881372569
0.968468485697497
0.86685380846291
0.897518705161346
0.872467503100544
0.904573579699061
0.88520055063624
0.875817687448882
0.907938808415931
0.930798135513319
0.863428885693518
0.935277535809558
0.944461595449978
0.929655348471657
0.896980335081639
0.953459282969896
0.913041024997605
0.942292387677961
0.865822846284805
0.923853260178794
0.958699693298334
0.932711040456362
0.923346284638331
0.958546191073327
0.946040228313773
0.956820158894116
0.93054683480979
0.994018002558574
0.918375614531325
0.95727838538493
0.915504985619193
0.927006631623776
0.926258474036831
0.951118316012309
0.960305079513271
1.00854516593975
0.908254616666055
0.925389022237687
0.934711053584968
0.9281787778966
0.941753089893034
0.993785099062903
0.98388923641015
0.966228389513347
0.920670812418102
0.993470673775572
0.964063443835178
0.959837488420062
0.934680860813649
0.99605749699971
0.994738811736859
1.00491708555596
0.976733280645169
0.99746683786656
0.964931069141103
0.979278319735905
0.94772107431862
0.973823608843008
0.972398129604406
0.96731022848509
0.965585989674168
0.963061216284466
0.947858678528061
0.971317105113283
0.96353363117901
0.961191881116
0.919412369798853
1.01855005853578
0.994896122679164
0.954892216783565
0.954962365835142
0.9392268815105
0.950045237536911
0.95691332905966
0.926650958024991
1.00145768317839
0.966760284433792
0.960734508836441
0.938427484973142
0.969894797860973
0.960066012942458
0.935113402101521
0.940614258545267
0.935102961561707
0.930782585303777
0.965045622506061
0.906364201897353
0.938118652600964
0.910108915058164
0.936014371806343
0.964439697727336
0.951590308587673
0.965705812823547
1.00922464146889
0.939318230418511
0.927868382916558
0.91723437008863
0.927324942939344
0.955278594445846
0.945375346861116
0.918657552966973
0.902270265780556
0.91947906158732
0.981515935660903
0.981005482917979
0.954288800357527
0.929298315139768
0.960678876679874
0.94300313581302
0.953896728068613
0.93104961274989
0.916198800681481
0.928096311889523
0.918297933504385
0.93683762794915
0.955908550253708
0.955330963482837
0.966538101411116
0.951393605324747
0.908845553965422
0.926222307347276
0.922282799516863
0.909412882307821
0.933781926723997
0.939642006715445
0.899773282540173
0.883043407645764
0.931571012066713
0.90813921674477
0.859219533393708
0.893250596806698
0.915160482962694
0.865295822495383
0.885803386050928
0.916908454280826
0.8885363403733
0.916444658222335
0.924569103726119
0.888920227305588
0.909562131026172
0.924717538138712
0.891628832370687
0.904189079700753
0.847433734523089
0.819073744988541
0.89143691925409
0.893001796901587
0.871241997345443
0.876434639539321
0.890183958759651
0.871747687341165
0.873665840651917
0.838867319958914
0.810815720934103
0.81698037305652
0.852255612708965
0.832728516773885
0.824564021105418
0.853226031257227
0.812665947639585
0.808724852132138
0.818168151553562
0.821674970634333
0.80730193139644
0.803685573187838
0.813467332571366
0.809520704290475
0.789837924778388
0.812190352571119
0.823626841105219
0.822994674354498
0.830692319528568
0.821778772083909
0.767495630519761
0.776953887874715
0.792244552919061
0.796837658088347
0.79654552334151
0.79240461864272
0.758836499813239
0.743496624022862
0.783349637680785
0.794754903592065
0.765067633338516
0.772156225417245
0.775962312318092
0.744773359143769
0.749417547079762
0.755868970479114
0.758314892728047
0.765026875799595
0.721927196731836
0.760480840070804
0.731071319891772
0.748451963269677
0.747754769212643
0.747528035537132
0.727706414939901
0.721273646759592
0.710857217494042
0.729899423745212
0.717932104818561
0.705420579739282
0.725976575058019
0.717401226068027
0.718980396848792
0.719666641501303
0.692570780266691
0.694056085226595
0.697798582509647
0.695023812421277
0.691033519328848
0.703330586826348
0.691561519296917
0.670493289361244
0.648314243738493
0.661484139643376
0.664718533348504
0.651296134122605
0.656179967810002
0.656001584866483
0.628076591945465
0.639482565213988
0.639862788069692
0.654487634196552
0.640520397597446
0.653189375228856
0.634750841697707
0.613218886919448
0.621309259993892
0.605950999516768
0.613397822319576
0.633192105838181
0.607912493573493
0.623441342102023
0.60114329764341
0.617892581815924
0.600823786404241
0.597069339687601
0.580857133410604
0.589652964297876
0.579923434319578
0.588078617098467
0.573044171292263
0.57986915864849
0.565046793116748
0.55192078978736
0.572239790530543
0.579765269248977
0.563518673547572
0.566713351542485
0.548226212265598
0.562753408495648
0.545532966862739
0.544478505038047
0.538986530410036
0.541163565254809
0.538478860659267
0.544896920213002
0.532527222141553
0.529639938597293
0.51386928287647
0.519389662167915
0.519342911463893
0.509382328628618
0.51192558183064
0.514124519127944
0.498848322354595
0.498433025545609
0.499741857193258
0.500501553660793
0.489006975767058
0.493141224754849
0.485862277001306
0.498526055119833
0.489874834272978
0.483557302784202
0.461609021758311
0.480188089722924
0.464652615746679
0.478637804446911
0.465771147300441
0.459832393984577
0.450817724818289
0.445762892687099
0.441253036499057
0.438300236239019
0.439996437883103
0.431822082183218
0.438111239887744
0.427577463384698
0.422790054409298
0.431685776090086
0.424526739839711
0.43172569246989
0.419163280446144
0.422361475643601
0.416967356051222
0.424737264135632
0.418254092628027
0.425599814241306
0.408271971958902
0.410681366384635
0.402658370480324
0.384094070201618
0.402069093617016
0.394748109681973
0.391875115842041
0.397963368213486
0.384988488156924
0.393325312933486
0.385987652173567
0.390692852928075
0.374829830455517
0.379190218815513
0.370725782511641
0.384926219210948
0.373837678341178
0.372490765614325
0.363087058573092
0.360208529381531
0.366593693275297
0.371563426115761
0.350814343163103
0.360598226523423
0.352541895731624
0.352865651011521
0.347831775874377
0.346569675361324
0.352611007712828
0.339169542781855
0.337951878523509
0.347219567040032
0.3371900825808
0.338380599621202
0.336644865719011
0.334355678110298
0.329308949600566
0.325640691059725
0.323374060543326
0.328438433713198
0.314428746699079
0.315690067710055
0.315920085915269
0.317504232897327
0.30931060417712
0.325308587099219
0.316445514468008
0.319756559986072
0.3048557734371
0.312753023362845
0.30165704089182
0.308651917543955
0.293637671248458
0.295937147714723
0.288686887223801
0.292462196571846
0.294754572311525
0.288314546447165
0.285262262763235
0.284255988034513
0.287996667778241
0.284444711850266
0.283171410521777
0.281301221642934
0.279847176380549
0.285915734146618
0.273242670026114
0.274915291423112
0.269920662006314
0.270207422129838
0.265911571683421
0.267927966872458
0.266364989417585
0.264501396635309
0.260980461341616
0.258915145794398
0.258092742662155
0.255922567794091
0.256395772451658
0.251249627951306
0.25121440575512
0.264233713949082
0.25090680192703
0.250715154521982
0.245962280311115
0.246817025164892
0.241439178710775
0.237781880332347
0.240204027664264
0.2470596817196
0.240342202183969
0.236568691604892
0.233948332374666
0.232808271401602
0.232208149964084
0.23492987817014
0.232018310426712
0.227344912510462
0.231771233778326
0.229672796967303
0.229337805153982
0.224402321606684
0.219102316922695
0.217096069774251
0.222749424166465
0.227958764002904
0.21214444641633
0.22684579836367
0.215191736335992
0.218571319575798
0.216770401103305
0.219671741182771
0.219086733424
0.222667099645898
0.217546836005096
0.221552743246563
0.208561829250682
0.217771613319136
0.210555099340235
0.220979067112823
0.210732392833751
0.216805359056034
0.210025051780535
0.221066294258341
0.214081174809786
0.217743227621894
0.21604929249652
0.224534270023293
0.220435303700582
0.222454963613657
0.216542934477927
0.221578563480892
0.215857926934952
0.228109853259634
0.228334494424446
0.22894236149059
0.229204324538096
0.230667474235399
0.230617795326488
0.22862615808301
0.226852049627256
0.232434176903215
0.236265137224037
0.244132243289198
0.23977588728897
0.2413682297663
0.238109782947142
0.251230691418944
0.243065039856926
0.252984421522585
0.243412693739949
0.246107697828545
0.24710821379755
0.255069475013481
0.255571411389631
0.258374362778683
0.258256674035338
0.259984974401511
0.257909171392965
0.257665587549871
0.263305411169208
0.274357519305803
0.272249177194865
0.268007879901667
0.266884394665333
0.27789280291049
0.275418014741257
0.281830744962761
0.281315159673642
0.282696808956706
0.287195914014046
0.297979467507339
0.291415626858847
0.295338634758311
0.294455414773318
0.304506916249399
0.307938182034666
0.314552479538747
0.29530341045014
0.319563073026352
0.315482569578171
0.3133995677371
0.328718318564129
0.327381432819101
0.32478897638024
0.333081735161727
0.326475755183438
0.339694923073238
0.332178164126039
0.338117126172354
0.339850607610508
0.337703892149351
0.322472528512645
0.350125533364376
0.329338545066057
0.336012605608791
0.332287674534584
0.34156221030791
0.338033586881719
0.340820881407758
0.334523211268574
0.325571650209485
0.325966713321877
0.337801230482056
0.325042306858373
0.331781249035151
0.328278362226431
0.333323178531349
0.327846111812443
0.340960245221372
0.327195116365791
0.339524765152631
0.324383969097864
0.332431983798089
0.333761397095619
0.333013422167176
0.323688148774193
0.34082961057723
0.323870505553908
0.337139829321214
0.331398287149873
0.335939726475689
0.331465941638421
0.342406561252124
0.32698156476043
0.322635825023884
0.330969330024781
0.335431455237437
0.326345672701347
0.334037230584263
0.328069571958673
0.332417184203821
0.333658795268434
0.333538045273597
0.329763359139351
0.341919514718924
0.329050262260529
0.340760485237113
0.320469513774103
0.325741699816177
0.314254700234918
0.325254477163495
0.31487438231548
0.332525088534491
0.311762009654716
0.327501812043903
0.315523191287134
0.32413209963423
0.317993592957278
0.321852180471986
0.32229925444109
0.317867586509985
0.30490990094477
0.311471386601686
0.309084348641888
0.314192694626073
0.294070644711697
0.302076091208899
0.297919727874053
0.302680819943804
0.295410561505731
0.301972148600805
0.285627434191317
0.296588120479846
0.282573943938548
0.277942297022378
0.271407859004476
0.273819018293983
0.275244016492466
0.274513653140142
0.270560660738267
0.265723839299495
0.258804432515445
0.256532393740039
0.260822587085921
0.257100771728888
0.242813123213748
0.251064647085664
0.245606290102438
0.251965142839897
0.238054758373834
0.241501008916197
0.227335770203132
0.237930455352132
0.227156912773426
0.227886076990773
0.231773770536039
0.224628800897179
0.220083974767133
0.219532863560561
0.210147930001431
0.213319434758292
0.219892840175976
0.214726615605396
0.215254743226817
0.209551783186907
0.203462955102535
0.210727938494697
0.196000925560763
0.206794635597967
0.198055781061679
0.203674664674546
0.192674766088888
0.198962046116598
0.201829251141973
0.198964701254188
0.189470147562391
0.196191015007767
0.186453423866911
0.193265704612371
0.192609296106857
0.197030752111034
0.184616399932469
0.186981712954361
0.183781897334587
0.190309676390747
0.185730360208863
0.185323888632568
0.178111642950743
0.182979440690363
0.173932816887127
0.181878228497185
0.1766280939176
0.179497564797902
0.175229999747693
0.182159674732349
0.172750699888109
0.179640506305109
0.166618176217431
0.173177089361161
0.170826260525742
0.170725683226425
0.166249666481817
0.173585537989063
0.165053810111518
0.167524949590236
0.163290822075437
0.165764066886371
0.164313617739543
0.169627501387481
0.162784523283768
0.167527283850389
0.159354942025196
0.164987093829642
0.15227347380985
0.160443270468417
0.153715936154253
0.158823040518643
0.15285492332646
0.159445198052713
0.155264339123066
0.156053800709897
0.150361919461022
0.153374616014373
0.152989577895728
0.155330219299372
0.145269063824713
0.155275114169065
0.152545301579742
0.152148816878737
0.151730722128031
0.151816504898453
0.141450045331533
0.153051481277762
0.143652320099581
0.153604839515671
0.146217782008166
0.150315112342663
0.147274920192693
0.150447441332509
0.141734471603113
0.144696593556922
0.144982637765099
0.147318734873354
0.143453306888049
0.145884388252242
0.14684545063875
0.145580340943324
0.137516936550553
0.139520244595675
0.140380424681825
0.14656427222981
0.138309251880942
0.145194140364472
0.136207776270731
0.144972580943377
0.139158254964088
0.140914038672268
0.137001245604385
0.144180331842711
0.132154775239511
0.141364065439004
0.137948994257572
0.139861371703482
0.136034584627047
0.139488177301585
0.134639485384321
0.134733064680269
0.135449585566056
0.14094232531433
0.130501976772347
0.137620346441952
0.12914656705137
0.137790272543939
0.136685208655206
0.137367162485355
0.131365788075827
0.137323905838639
0.136696053050073
0.136755610072563
0.128454757156281
0.13560993444171
0.132376318440587
0.13617050044335
0.129543264093071
0.135280457591382
0.130551244146744
0.136443360976245
0.126742546223115
0.133323426383353
0.127704159993288
0.133339463359963
0.127644036644558
0.131004512613798
0.127372803108481
0.126818825342655
0.125254569338245
0.12919200591857
0.122814858418379
0.131704674563956
0.126142606374342
0.128847538958508
0.123037610718226
0.126783537123278
0.122395954658126
0.127927672693264
0.122626936295672
0.124638399532606
0.123339821938153
0.127330274558391
0.122647751995376
0.125962960585051
0.11902394786569
0.127116749733631
0.119789416291295
0.119871722167124
0.112620970958323
0.122987330555572
0.122560587564
0.118794791826681
0.114144778348492
0.123423214152994
0.116543434199335
0.118147193136213
0.114623821500869
0.121732798102314
0.113971759258134
0.118681287437743
0.113712819073494
0.115565651126627
0.114065984191502
0.115343941096722
0.11052016084936
0.115532888108151
0.109239691268745
0.112732947989119
0.110538829558034
0.115072701550024
0.107850516489607
0.111685918408039
0.111430213741532
0.111983173568669
0.107176156602481
0.113054681043894
0.103688300128158
0.110915079881725
0.10687353819631
0.109264498201019
0.107357037523604
0.105858749868964
0.107230759632247
0.109254323485484
0.103099476543615
0.106077695191402
0.103039135612485
0.105206408361653
0.0984774963024646
0.100872124578548
0.0953900570340194
0.103137173289817
0.0969086434118425
0.100441802027233
0.096906990641699
0.101310212843137
0.0979034742949518
0.100437785840574
0.0961402523377615
0.100296181417479
0.0955343279070779
0.098478294835506
0.094084370450079
0.0986929324433246
0.088500351552979
0.0957727380605288
0.0932590819402376
0.0962589524566212
0.0944865021773748
0.0916888474196058
0.0894228810828875
0.0933093053388409
0.0894698161130432
0.0901241007112505
0.0885829605153399
0.089297335383743
0.0882331613313915
0.0897522940083278
0.0852128854857569
0.0890924912010274
0.0854008357437217
0.0888520274101811
0.0842594645601632
0.0860131907778652
0.086212973977788
0.0889320517616113
0.0814371400055793
0.0854705791394734
0.0782694066913049
0.0868953763980152
0.0820932597028051
0.0827180228337331
0.0817775125264836
0.0846499062468299
0.0821831122305214
0.0834914320197853
0.0793136783022644
0.08002423956255
0.0767420811315408
0.083958849989779
0.073874728860086
0.0811651036071765
0.0801129886868073
0.0794049417476277
0.0745827825307375
0.0772353813856936
0.0768900151876575
0.0757127891596756
0.0768051035324185
0.0799824845082159
0.0745633432565745
0.0799282743274253
0.07347504511607
0.0761644892874982
0.0743439430584101
0.074984309379237
0.0753603242485169
0.0763562536438374
0.0728750604083797
0.0748985161061048
0.071256169754536
0.0763949082211659
0.0696486979722412
0.0725279955142506
0.0706834655707056
0.0758217998987731
0.0699750436042594
0.073420686783656
0.0694597308333108
0.0725700929436195
0.0697206561243734
0.0699149967257845
0.0645584219396203
0.0718360019670774
0.0663478512802725
0.0710392190440438
0.0672512930568034
0.0698746759884681
0.0701043520121093
0.0698084603457756
0.0648873666058307
0.071565949153171
0.0665129202449261
0.0720494133399905
0.0678705061944247
0.0682227261430584
0.0666733287323536
0.0704094327944136
0.0647436414676223
0.0704308422150306
0.0675679449787495
0.0685428267010346
0.0633344077956781
0.068515360381775
0.0646790510907499
0.0668187496204576
0.0628638210960513
0.0683500962342794
0.063223626558131
0.0645801494499239
0.0623134377949759
0.0665963541720904
0.0649241892340794
0.0691873783690827
0.0612848134496056
0.0667523214293451
0.0620188945466189
0.065337810374532
0.0593819805814401
0.0661438725028442
0.0661976827792703
0.0656881232151955
0.0597864046742794
0.0641549173679731
0.0614067021973864
0.0596270508621271
0.0592588490240685
0.0647897707287998
0.0585738794093809
0.0607509319830831
0.0596564266875386
0.0627497314297977
0.0619731342156823
0.0619628877081765
0.06032701361119
0.0676008388516885
0.0617213012715682
0.0611037017048028
0.0591474244833421
0.0652380144531425
0.0619598593618109
0.0643180918004248
0.059995070356179
0.061633184789973
0.0592740630960585
0.0620844329459294
0.0585096223378043
0.0614330089074874
0.0565098724556408
0.0616918040322505
0.0598585638505624
0.0620007273101745
0.0576170795307305
0.0595622698169525
0.0580625600245377
0.0596382399850586
0.0567722665497193
0.0595791417406821
0.0564582753716011
0.0624184614362143
0.0601228448723747
0.0577216620467644
0.0528737065044946
0.057493171360532
0.0535055018719647
0.0576044497204656
0.0563447053352985
0.058758957800567
0.0546386723161573
0.0562245451820745
0.0536065241194591
0.0546276096159465
0.0511292555950032
0.0566221026614171
0.0552679954015932
0.0558930599771959
0.0532631382905998
0.0561471642695231
0.0513032317655322
0.0559767824733654
0.0509995949725761
0.0540871503059508
0.0520445970766869
0.0556327909305964
0.04884003939576
0.0509499069435314
0.0522579948165853
0.0547814847442432
0.0502737056486388
0.0531771886320448
0.0479637315885863
0.0506678642628085
0.0460203663669178
0.050847018639691
0.0485591138444243
0.0481815568784787
0.0467379706612189
0.0500563170088381
0.045866077457971
0.0539493493871581
0.0489957824147433
0.0458228301337338
0.045707207454803
0.0534399065998808
0.0479983701021333
0.0474653469794374
0.0457274868132387
0.0495015098304582
0.0453478279088174
0.0499373154539591
0.0468563143116725
0.047408544810606
0.0454913349045883
0.0483199900409325
0.0431140596614259
0.0454946598036087
0.0449955584618099
0.0448610033132994
0.0426404156719262
0.0494005217599359
0.0419825385487394
0.0443163761754272
0.0412244806437511
0.0457329405096091
0.0429748431349661
0.0426054896524507
0.0413630804157265
0.0459377043180204
0.0399898883717282
0.042791996940162
0.0406954864207101
0.0423988081488215
0.0413146785974689
0.0431934821380853
0.0401742656207332
0.0407585630173616
0.0420513912567438
0.0431036389060276
0.0395510579347114
0.0437373204102048
0.0396755734131798
0.0421303389299947
0.0384106859930434
0.0388625785378595
0.0374048489243142
0.0412726491505403
0.0369121969206326
0.0425838274052164
0.0397742735861727
0.0387235795065883
0.0365024075096546
0.0409061692183722
0.0388700054650338
0.0423381387296413
0.0380733689288495
0.0389805658645595
0.0384109254009499
0.0387524855981957
0.0351143390234737
0.0377271260699795
0.0367219937858809
0.0376145223230845
0.0340239602767314
0.0381108229047614
0.0368344008357054
0.0383640504720201
0.0363155382027912
0.0373680251887223
0.0376806020234171
0.0381271952095483
0.0351596207717515
0.0380126508583811
0.0346397330678239
0.0373357134643456
0.0314923767210079
0.0365067286259059
0.0347708216338937
0.0346321264332306
0.0308587562077173
0.0348110442608391
0.033728789816445
0.0366286274071124
0.031323036052621
0.0387171160575943
0.0332296977539907
0.0342996382862873
0.0347420799944984
0.0361931317884015
0.0320900676741729
0.0342763343474849
0.0335217625809036
0.0360476285382904
0.0335214750259635
0.03384525340135
0.0333754858161124
0.0337986529399643
0.0301908039930769
0.0328808621064864
0.0309977604699236
0.03401887319266
0.0272154445527947
0.0282447147971875
0.0256890031940485
0.0346011572871054
0.0313395737583912
0.0390710929662122
0.0315141452740312
0.0271709280479662
0.0275142465531242
0.0317766890115292
0.0286142584492318
0.0279867444268066
0.028632360478913
0.0381861606981637
0.0275865240947916
0.0328421504783362
0.0247444758284791
0.031527262810326
0.0282831447295029
0.0317276463767863
0.0280822773764319
0.0244726377983805
0.027374020958942
0.0335463438352783
0.0270252497238832
0.0321193139505494
0.0355547493115535
0.0309540400544161
0.0313681768116752
0.0341836643784157
0.0272819325998719
0.0343558054774012
0.0369986580292084
0.0292433140425271
0.0335518944217099
0.0256292289157307
0.028475923456666
0.024158458347634
0.0325764560457785
0.0218954742859423
0.0363913810968213
0.0244576986251116
0.0390585495393449
0.0220820025816179
0.0417526369685719
0.0118713295942618
0.0401451628424403
0.012211826303557
0.0468895114813624
0.0143424105358437
0.044099067976374
-0.00485847097723438
0.0509721666047903
0.00882344706838323
0.053210339424942
-0.00322188391617144
0.0550782265210601
0.00812706587048643
0.0470002806655401
0.00766062549831924
0.0385976046622954
0.0170591096404805
0.0307575756528181
0.0295722123764936
0.0252891780606668
0.0345586266181843
0.0211782262826074
0.0353630982606697
0.0203317833688406
0.0365618762157415
0.0244788148673759
0.0327941216389002
0.0284746493372495
0.0317428587071424
0.0285662960042546
0.030430603657802
0.0288454453251159
0.0267055666691948
0.0282882297156494
0.0275852224904987
0.028402250854114
0.0291672014904599
0.0283092931373723
0.0327503395130413
0.0259823813717189
0.0290524044850651
0.0258624381066512
0.0242229941495447
0.0265270931025467
0.0272315060942477
0.0278315096447499
0.0294371869151043
0.0258356872544564
0.0298174921271944
0.0262495690798072
0.0267592279767269
0.0251106680993204
0.0301835090239643
0.029834822615187
0.0276735588587966
0.0285829207901892
0.0252405767712202
0.0281176718981555
0.02630735596547
0.0261443788480656
0.0271645475150784
0.0253987224633361
0.0268603990729807
0.0274786856068649
0.0289987354043954
0.0270299611379996
0.0287159356436959
0.0284851535140174
0.029298568280511
0.0279971187064249
0.0280019150158717
0.0226695711793033
0.0248884378681347
0.0267032393678356
0.0288920400377233
0.024639426462386
0.0256166215925135
0.0247702490023487
0.0270989045817769
0.027336301594315
0.0295711282792876
0.0260238914284071
0.0292450065249424
0.0276368421059161
0.0292063443061945
0.0256852708991843
0.0296337389694721
0.022260624074826
0.0277569383066963
0.0272743202974322
0.0294603178319649
0.0267253411991411
0.0295191735417122
0.0285488713752359
0.0292168985614509
0.0251680624779455
0.0280939400177056
0.0284027762215549
0.0287676254251134
0.026666823168556
0.0271363310091565
0.0257105625358149
0.0308928715100715
0.026187218326164
0.0299448311227251
0.0263030148910512
0.0270112497438409
0.0272179540884377
0.0295604504898224
0.0273913293732445
0.0293268810408722
0.028536777086075
0.0297566093179487
0.0263325357706636
0.0299751827336284
0.0280259854667431
0.0284494388109083
0.0254359455109444
0.0292153599455234
0.0301411236773662
0.0246833001511418
0.026401596100761
0.0292103345174772
0.0263139145586922
0.0273052396739669
0.0258197066597532
0.0283761923115331
0.0255547540370955
0.0274475302372106
0.0265269856108718
0.030721542975504
0.0264119705682897
0.0282981751782139
0.0274319913633229
0.029647000090516
0.0262080253446896
0.0282766223614874
0.0265422014005744
0.030029960405459
0.0260082938271425
0.0279649750905759
0.0268990430033164
0.028797139816645
0.0279457833777449
0.0282347611653621
0.029737470400837
0.0311039710680725
0.028733819027238
0.0312728073420985
0.0298924517207933
0.0300296018336279
0.0294948604642221
0.0286778195283454
0.0296367829156237
0.0332386615465826
0.0273979608394893
0.0296846722620864
0.0293727122434719
0.0274583513055819
0.0297967447513323
0.0327261296376817
0.02861337254657
0.029048446790619
0.0262105396538378
0.0287102410089617
0.0287256486253433
0.0297966426671589
0.0262261097645739
0.0300305043503006
0.0297924105417442
0.0313173113501152
0.0296964567523406
0.0294636884708452
0.0290723843267686
0.030517066648075
0.0298469531486726
0.0328183776119355
0.0300101581802566
0.0309643000834376
0.0294341341456947
0.0293483030350308
0.0282125333244416
0.0315309794301303
0.0284196378511192
0.0307277721376289
0.030763434580064
0.0338935206983069
0.0268106833089914
0.0330491424544054
0.0328583427351923
0.0305810408159323
0.0279746412754334
0.031020905627277
0.030036039993807
0.0321765428435824
0.0297793518149613
0.0349774142691423
0.0324338795814628
0.0306549971287054
0.0335432269027042
0.0299026842156002
0.0300283389100342
0.0331308490030751
0.0299114662730073
0.0293411084574304
0.027892616884884
0.0297091463511698
0.0293019768076285
0.0289816358865396
0.0278324654674545
0.0290950563424333
0.0272152296876549
0.0269868054410095
0.0318001561765864
0.0284164980223582
0.0263545826093048
0.0287684357746557
0.0294076821877166
0.0308855575815536
0.0273516196893133
0.029867158975191
0.0305259638566234
0.0298557796356918
0.0288492425959072
0.0296695121548839
0.0272194586599691
0.0277475392694047
0.0255774330422797
0.0278525360930313
0.0286469884905449
0.0296487213130881
0.0286424817789837
0.0280440874687895
0.0299548262869721
0.0280790059955797
0.0291694651417423
0.029639762221694
0.0317824402747133
0.0282052611161612
0.027811270073017
0.0291034054002558
0.0273122363245486
0.0289355854221345
0.0259018174399519
0.0262526788331807
0.0249286662833642
0.0281192463173027
0.0274411256476216
0.0275431339138844
0.0268119104581406
0.0296527522077133
0.0294834775372969
0.0302021856421721
0.0279737073830685
0.0259585429538459
0.0252730424174773
0.0283914805221564
0.0279997426813047
0.0268081784360659
0.0298800131027387
0.0282767806586003
0.0277078117141213
0.0293275613083931
0.0262646155636292
0.0294760080342742
0.0280510910339138
0.0269471416218297
0.0261816929529123
0.030001523981291
0.0238992316506181
0.0268862659968484
0.0265269732264282
0.026118910450458
0.0277845369649835
0.0274923878801044
0.027722075304807
0.0275784614214942
0.0269617736442402
0.0261859582723872
0.0244066333734277
0.0268425203926153
0.025419616743696
0.0280514091147301
0.0272743440967442
0.0276745254276014
0.0272476043983208
0.0292234801890885
0.0279525860833367
0.0282498170467703
0.0272428913580243
0.0272592860131926
0.0259313183094027
0.0268033378084091
0.0287644129616058
0.0301310685441099
0.0271895677025371
0.0290858452444624
0.0273904915355762
0.0285545562321258
0.0282790271741582
0.0256195704994893
0.0269140308387724
0.0278478574526121
0.024782999740896
0.0275568113736089
0.0269142534134299
0.0268991542532816
0.0254809501999418
0.0265499193595886
0.0259411170233911
0.0291572279458654
0.0263872467579046
0.0274145582607162
0.0266133163393018
0.0265497212036115
0.0255359885970417
0.02781699098038
0.0277521486748131
0.025848464889901
0.0256000772163763
0.027318722675166
0.0236728822865196
0.0245365818361808
0.0259097361216
0.0250544220699848
0.0245820310888533
0.0262830717262599
0.0236459303583022
0.0256447299565168
0.0238400988196934
0.0244873149022503
0.0267849474885492
0.0270980722090966
0.02206368915857
0.0279746734170574
0.0264382056267534
0.0259202181987751
0.0250741206223968
0.0261873177925355
0.0243272217604646
0.0232843819559984
0.0264221644341494
0.0224337071408753
0.0238594733578804
0.0253964148208392
0.025857262926037
0.0235841653346947
0.0235537682501486
0.0239640328836935
0.0276320778155254
0.0225384797274489
0.0225412126174139
0.0230482986937974
0.0214947230971445
0.0212629824228044
0.0223541610022369
0.0224534071694669
0.0256127894069097
0.0236533331181512
0.0235006725967225
0.0215350544772118
0.0205528809155947
0.0229443755426742
0.0286228043374334
0.0184818244928903
0.0244877193878742
0.021433758211696
0.0226318692243022
0.0222787401078379
0.0235718577975178
0.0214474450546983
0.0220503871751489
0.0201115589360015
0.0222065638011527
0.0257186392551037
0.020652780999721
0.0204035182602995
0.022573346142682
0.0207417544870282
0.0195777213791701
0.0245059911972675
0.021962067246607
0.0229814380861126
0.0216434624414777
0.0205057888855608
0.0202700594316059
0.020243344180587
0.0233312447651729
0.0202027270628914
0.0211494457781131
0.0240147751963809
0.0214349614776741
0.023960096353935
0.0209385416371042
0.0234512787595468
0.0211839037978579
0.0215943673095198
0.0199469666424258
0.0204275355626103
0.0230678866440816
0.0228448996953244
0.0209018458820219
0.0207747216542203
0.0241792588615576
0.0201006887645401
0.0220611869856618
0.0211468468964978
0.0218039667392461
0.0247061538680492
0.0213883591766405
0.0214299972513647
0.0188341108731661
0.0227019747982271
0.0206667364349566
0.0225553089771656
0.0173391275435324
0.0263410512169988
0.0227003415067744
0.0236118639892347
0.0216229307087864
0.0207410024848464
0.0193244302606371
0.0197236937435478
0.0213370185557673
0.0212025672083603
0.0211199986748982
0.0206228381489129
0.0195097310205892
0.0198773804723594
0.022477221695021
0.0203794343471677
0.0176050584001954
0.0199972992513524
0.0208271910442114
0.0226504661844742
0.0205012438311936
0.018568301006023
0.0243517916809815
0.0228969299287852
0.0185459773747709
0.0259634417395099
0.0176623440153743
0.0231115177929093
0.0251424451098874
0.0142475688180251
0.0266241657100595
0.0168023141585677
0.0225464160871358
0.0188928817309817
0.0253693651733255
0.0158730350111634
0.0273963624080431
0.0201896015434048
0.0221099105240522
0.0221830222805985
0.0228786705231817
0.0206948932733179
0.0218228514371183
0.0201702937803074
0.020572055201326
0.0209282244683867
0.0196756395343202
0.0214580095305855
0.0214193807180739
0.0194778973605233
0.0208429492636066
0.0156448178973291
0.0224490000746533
0.0186182086604723
0.0236771124077619
0.0184767563139488
0.0240568767842302
0.0156774662339245
0.0284744210562546
0.0207214372063441
0.0234896671163775
0.0198276193842323
0.0171545657684775
0.0185072714488661
0.0208235994373588
0.0203765454930411
0.0207092717385148
0.0220545484942586
0.0219955430540192
0.0230022070936908
0.0198737965334735
0.0206718328074478
0.0170726131263305
0.0235935411883152
0.0182684366011785
0.0213953520769054
0.0184157027383001
0.0229122128257808
0.0217951296106015
0.0190014667749854
0.0314119353243458
0.0180195418689966
0.0249092143713917
0.019883320585946
0.023857744991737
0.0176068698889967
0.0226491548144739
0.01612479737348
0.0214290888796044
0.0182819084252531
0.0227447370975539
0.0208633315628319
0.0206607684797043
0.021285983833525
0.0216940100289057
0.0203817687731564
0.0238865958720955
0.0195310147055364
0.0209517572422004
0.0201872435018929
0.018520143229194
0.0192655241523253
0.0231480569443173
0.0264421302850277
0.0181501286615395
0.0257518349077774
0.0175233605111428
0.0449064221628097
0.0116616968594856
0.0239382844378655
0.0189132772751597
0.0233672162861984
0.0239265662023462
0.0215724135366299
0.0214586814137756
0.0228556187398747
0.0213302328050768
0.0245733390570903
0.0214954537929658
0.0238575016942863
0.0213096682541971
0.0210476349811836
0.0268516548625658
0.0246005050461926
0.0182420551444399
0.0274633962861238
0.0165000029755362
0.031200075833299
0.0213562183496698
0.0212220786814285
0.0324395314990564
0.0199993961118042
0.0219760219944944
0.021737264312886
0.0255148297747664
0.0193458841159376
0.0247031285709681
0.0204437631361866
0.0239239634809824
0.0211533704299497
0.022029063506988
0.0271709705500961
0.0220849295570027
0.026147394630646
0.0219471726761408
0.0234360368608238
0.0275371563070405
0.0192764404162027
0.0242489950352962
0.0243851892828242
0.0229126247172484
0.021941552844004
0.0267471928680989
0.0256606253652245
0.0281067414913397
0.0288470684303767
0.0239697484427344
0.0227550633179106
0.0301382607672844
0.0229309418598572
0.0306926373538882
0.0174299544127735
0.0476595014414308
0.024667646590902
0.0301895833486366
0.0287543589876424
0.0215703924532927
0.0300181540018629
0.0215015468868208
0.0299985511387557
0.0216088876511524
0.0313409856256981
0.0159680841813394
0.0344483998666272
0.0174460576652702
0.0417367810775095
0.0261190994304502
0.0306625695879033
0.0240706418337646
0.0299861974898359
0.0256155345364123
0.0350742100322091
0.0239839877803613
0.0313676153962187
0.0460894932497974
0.0268268086440635
0.0350481997781041
0.0212845345404551
0.0348603137128251
0.04543147280403
0.0205468665485187
0.0383969250387212
0.0234896188518589
0.0368106913567723
0.0259828586971049
0.0383385955997278
0.0360574724722461
0.0284651292987595
0.0329072325587806
0.0308726024019063
0.0268904917289356
0.0427638662555887
0.0279672379815583
0.0370679187601456
0.0281359442802945
0.0405286296156152
0.0313122460193601
0.0661706949270668
0.0208599040453163
0.0530170368566965
0.0339810435469965
0.0453248211999712
0.03931386125072
0.0385455013028825
0.0416352258092829
0.0435640409331139
0.0434241386490546
0.0368846401500983
0.0373988307225336
0.0547736124109089
0.037770508510776
0.0379954809037131
0.0495073274341596
0.037538102684433
0.0516928360316227
0.0568514757778927
0.0474548516999169
0.0455392900951233
0.0443584486437019
0.047484285901826
0.056800532658849
0.0396497267196632
0.0520638619425764
0.0489516675001657
0.0508222119785592
0.0493767355655642
0.0526643942073858
0.0572921193284331
0.0455270837100488
0.0534128556671995
0.0513482458415925
0.0567957531430131
0.0631363032658528
0.066682551157119
0.060750875757787
0.0560599362959669
0.0864707831028373
0.0568762511237762
0.0672669001006705
0.0583047489780878
0.0629553797613826
0.0645737636389567
0.0587816460252629
0.0619926643574557
0.0611441782094174
0.0809446687177198
0.0630793727475706
0.0684899526579714
0.0766451551892626
0.0676528946680708
0.089271315427722
0.0622517228825364
0.167003584639552
0.0559111479600172
0.10120604029077
0.0795707326656567
0.111168956144146
0.092841120223396
0.091290098367604
0.0935568995152106
0.0995638563391657
0.102654626522145
0.111238242402405
0.108678932456397
0.117146873956085
0.116485274170346
0.122015511856982
0.123030385426393
0.158898337888521
0.142668503129225
0.142812494654072
0.137458428867486
0.142015180503205
0.152930680947001
0.162465665768208
0.155252372277551
0.169798213989227
0.164414522073
0.183994824365057
0.187647812459478
0.171973195080978
0.192796357799653
0.182111225849381
0.212903346410343
0.18557081040823
0.245632001223536
0.20401475058088
0.219009341815493
0.217374582869777
0.223264635973097
0.228975304064269
0.225624921091384
0.258005370633955
0.240446311813121
0.243515735613995
0.24507307130582
0.250309648567843
0.256109718834593
0.258745439343988
0.264239915756856
0.259620418973563
0.296141021692394
0.25973541034938
0.314244307367138
0.25998941767565
0.26791574833291
0.272834037471688
0.269795162145975
0.299226345285274
0.267526089577079
0.281555561220045
0.271706834980719
0.266630687951173
0.275450983083683
0.266606682707123
0.278296301309469
0.269821259381348
0.283298608135791
0.268387138826011
0.294369671559132
0.271564326619743
0.291627564357544
0.284338675652812
0.269725032077565
0.279621396159458
0.273662282724501
0.278168630595924
0.265845422055549
0.275506249716176
0.26856016003761
0.282682819883949
0.259958445296348
0.278207577866118
0.258485215783456
0.276138708517625
0.265810675648034
0.260843077804452
0.252706770496837
0.246016807005414
0.25148001943498
0.251275435074634
0.259921253286477
0.274296546474835
0.236967534712701
0.252524164279185
0.240019419401449
0.24514136725831
0.238476852534737
0.239634108668662
0.238080366757277
0.247462187648862
0.236078111478916
0.238553293226127
0.228260876608478
0.243328574691737
0.226574507304383
0.236601214198853
0.229383493539048
0.236124635792108
0.230167691555169
0.227966424557299
0.228771955073134
0.229621745847302
0.223800151835841
0.23239161011412
0.229402317178305
0.231628589488266
0.223287605942856
0.229935267277017
0.225192085584702
0.226647752950564
0.228811244353536
0.226679090760442
0.222207799647835
0.224632289787561
0.233137781045802
0.228645914967998
0.223431542820369
0.22719740704622
0.222719647772139
0.221659470422917
0.222440752448565
0.218945756262892
0.222691001113716
0.211554930688512
0.241493952393613
0.217285396182934
0.20797692155334
0.21835711806835
0.207044411824206
0.220753992693505
0.201552836891154
0.226160177605609
0.210928040170072
0.203403395212351
0.19867110908933
0.199468994984241
0.196342954568294
0.200536247715119
0.189318467746505
0.202483442601375
0.183635275196184
0.231769694867185
0.209446312535044
0.199030983117742
0.221516287196731
0.183857795292111
0.193402107889516
0.183323338915337
0.201498275174573
0.173374366834772
0.185891720227279
0.177445304787787
0.194487182899602
0.181734167534734
0.175163778349281
0.184924963655901
0.178467568933057
0.180289989909134
0.183803797010874
0.1770513919302
0.179834206806004
0.194194720791596
0.175640760784694
0.197459184894887
0.179476110699533
0.172370149431608
0.162215801673694
0.168910765163186
0.167936439043579
0.166789749558276
0.18060788128014
0.157299064252526
0.159928877675176
0.155111109639618
0.148217393423159
0.158949834104407
0.151903814305011
0.163295820815773
0.137413352479869
0.168761095676575
0.142652377843965
0.160360781212783
0.153750804195265
0.155427353734814
0.153520716978582
0.141211857418582
0.143782100458053
0.151559662553258
0.156548161619931
0.137085584304924
0.145967547023258
0.139496467514068
0.132931413353881
0.143637958583064
0.132963646233745
0.139310668959284
0.140947468136773
0.137716196987314
0.152678268496385
0.140413254318965
0.136790496285588
0.126437528725538
0.125071796952628
0.131811872195953
0.122176167190615
0.131879518893093
0.12656553182831
0.119862556167767
0.141686326309786
0.124627639694427
0.140124193913399
0.12488435677242
0.128723680619686
0.130426004053685
0.133456096887814
0.137860924942783
0.150588756487688
0.146744463565687
0.147337176704132
0.133309180904219
0.153515972684259
0.140703470809561
0.149341713041773
0.142514125279314
0.157209400969279
0.153185666370591
0.1627541440526
0.160863085622084
0.165664885890439
0.16482241415645
0.178475935976929
0.169574957904967
0.198838376746699
0.177755851806508
0.202455903734996
0.199974424866426
0.206415599073701
0.204968405294308
0.202342779826004
0.210075487742524
0.20837500902058
0.214003955147005
0.227322968607915
0.217984739797926
0.237291488565545
0.225012284929454
0.236463956550675
0.234212485681073
0.243375222882066
0.239255120604156
0.253479915320336
0.262381097319956
0.243202208738659
0.268595020491881
0.249477050809216
0.260137369485219
0.250195632103186
0.269578506269612
0.26440865631734
0.25487671212077
0.266162636930671
0.26272391383542
0.274383577572944
0.268993474363019
0.268055677545625
0.273790383388388
0.274431236370574
0.279677030880186
0.27632513210618
0.28037491859644
0.28902783363467
0.281833805938483
0.296637069691097
0.293145793281515
0.316018605927411
0.301968168066561
0.293411607967906
0.302467597584334
0.294784612227316
0.313545427441544
0.304482471091608
0.31426565892502
0.316313184416213
0.312932095819649
0.321338825026352
0.314974153826742
0.321828296533604
0.321766931609038
0.340353065024189
0.33322946841822
0.333755271523262
0.34560178263704
0.316657118073446
0.370150063419669
0.333662266462467
0.351001579406393
0.336281572852661
0.340991049738515
0.337739500021933
0.346910698989569
0.340990160833968
0.348810080532222
0.347307030365894
0.347702833697879
0.347165004936853
0.346729089897698
0.350345765388396
0.348177124545252
0.358166506662632
0.345580393651115
0.340248949329365
0.34706206645174
0.338515148249092
0.344194570424205
0.340481494517912
0.353318267130031
0.340981254303278
0.345264905838766
0.338852069296725
0.35703721338223
0.346824700823049
0.343945062106253
0.343564404939492
0.349128565260323
0.339404772956665
0.350512723015353
0.336719536786099
0.353842172171896
0.348204122092198
0.348401850941795
0.346517683691562
0.351606322574339
0.3510814415968
0.35501325114382
0.346925021915098
0.354108240970252
0.358160870501614
0.35924077252308
0.358752986499301
0.359141218785634
0.36333886017833
0.360905327785463
0.360318100655425
0.353889327127294
0.344483566254861
0.355771834626663
0.347942090859153
0.350212214758646
0.340936568578507
0.33807668682622
0.331995100687304
0.335432221423128
0.32544902589277
0.330958733580017
0.324754699981068
0.318437481711243
0.320463381205808
0.308448531134434
0.317644759023159
0.30934530679392
0.307054550030212
0.304718918174809
0.303696709297278
0.29952350401658
0.30086080759429
0.295806451122452
0.299429067260691
0.300275481698185
0.294097311138466
0.291624075795117
0.289905242676621
0.292957146479548
0.294190071970727
0.293500884677323
0.29340513412765
0.290676453417787
0.289852901425058
0.294663429588437
0.300105245838381
0.290281515031644
0.297228284594234
0.286872837518201
0.292268080555063
0.2875727288291
0.289113404430791
0.288857591019142
0.287947895601429
0.290735313589064
0.291330034082963
0.287765361618805
0.286893397206386
0.289982466521257
0.288008486713906
0.283746550059255
0.286630451389751
0.286405438423705
0.284219607592995
0.28442732864724
0.284085172906521
0.291288870966963
0.284391076266779
0.287876925484238
0.287224686838435
0.28964950325877
0.289650911028425
0.288295904264108
0.286769833237853
0.290358252489638
0.288191746507467
0.287220950899162
0.286863357851379
0.285846597914862
0.285852523037073
0.288243406098252
0.285355532713576
0.284216711422329
0.280591488666592
0.281540263163965
0.279204868660566
0.280661710198343
0.274524009614038
0.273586444455395
0.270580902906147
0.270278196704433
0.267665927585945
0.264812429906647
0.263979016392519
0.258666435156362
0.256584844529223
0.255072781371002
0.252245573646179
0.249914970570042
0.249068684668018
0.249071390512844
0.244240172349158
0.246778625091102
0.24550493081691
0.244604571550057
0.242664108976879
0.242663868244038
0.241152608629828
0.242874701189509
0.243869970619942
0.244990665765114
0.245662269297034
0.243227354672127
0.243122069081321
0.246240856756405
0.24685581077627
0.247991906185939
0.246513808699613
0.249349189498787
0.250060972383373
0.250781111041169
0.254975687090092
0.253937961315494
0.25857857676477
0.256639889036829
0.256792591876377
0.260505882580621
0.260496727640107
0.26107794845327
0.265030376124136
0.265810921664571
0.263558804151052
0.26343426059465
0.26373567772623
0.264485008858882
0.264845382483714
0.260182245147332
0.263425453808455
0.262540903673667
0.259552497103975
0.258848725793066
0.258422299516356
0.260829204176438
0.25832107901913
0.258619985032842
0.255446988316063
0.254707712320751
0.254377238374284
0.255823776122061
0.252781341682035
0.249729334578534
0.247855006041553
0.251535423706975
0.249974288208525
0.247195059942643
0.246491115344576
0.248211192005474
0.243255155255916
0.245105607886151
0.243028176513197
0.242588310390291
0.241695964381817
0.243025604630988
0.243795076456964
0.24228132284921
0.240761758325136
0.242195639863786
0.240217749112157
0.239067718000472
0.236467491648878
0.238658925245703
0.237703716756128
0.23423460245041
0.231897340918868
0.232665519614194
0.230066069830772
0.230608979946955
0.232063191692653
0.230630365200105
0.22444804072072
0.225334346574852
0.224068099888378
0.220113827682241
0.219580936396422
0.21716853760256
0.215050505503048
0.214555269052704
0.211683648139429
0.213458301356838
0.213074095302388
0.211067068074602
0.210022069526539
0.210447352460559
0.210783401255556
0.212049062653023
0.209451202162134
0.208800210080409
0.208422951070621
0.208943390481244
0.205837495803587
0.205903260269993
0.201731860204096
0.19927304053462
0.201617673140506
0.196392709627459
0.192895168458197
0.192036444092445
0.193302095658161
0.190512948750072
0.189001365014992
0.190452014401496
0.193406832474573
0.192262022985402
0.195248108754608
0.200853537351946
0.205338645426511
0.213310933192057
0.220770629492722
0.227870088045233
0.235142771099005
0.24634623876046
0.257427070878179
0.266807428807187
0.279911026183816
0.292553290747925
0.302180332647238
0.312247470549778
0.322227347206273
0.338477309461529
0.347508456163959
0.35946170706155
0.36682305057607
0.377331810548082
0.385177700836332
0.396068249417927
0.404414190077131
0.411804508976497
0.418093512440349
0.424912387569824
0.430267060246715
0.438360339471917
0.44441128994213
0.449986080470748
0.457667297251425
0.458247402881363
0.462601874633676
0.468178515743356
0.469788173359144
0.470295999266435
0.473159666714939
0.471996658608488
0.474279122229611
0.474555684471981
0.47862217965675
0.479173979017598
0.476966259739192
0.482677648028949
0.482783706215254
0.481665899377362
0.486784819272717
0.488176439161751
0.48988568225088
0.491218346822062
0.49775687023961
0.506170244851172
0.507934980675418
0.510934692241991
0.515847690284353
0.523546950835293
0.52642102118128
0.533640445229332
0.535782615023282
0.542001047521097
0.554211330899934
0.560167544278313
0.562325076394701
0.576410379077368
0.583718856552031
0.595126214152272
0.60087731868329
0.606282902884409
0.617688771030244
0.620089815017523
0.626730336384569
0.627133340102867
0.633924539561099
0.638477008514495
0.636206127509398
0.633252884245126
0.63771657954347
0.632117604933014
0.62689782369624
0.628057050893125
0.630400127492801
0.622450612404393
0.627781083309741
0.628157284608259
0.637048205165039
0.638518871545778
0.648751854088109
0.666449172415138
0.667311577264506
0.683562464557401
0.689194260138566
0.698362522443112
0.710278158468752
0.733885926963685
0.73984622535287
0.759222391642422
0.762423178520035
0.776560361792974
0.795975360696898
0.803081278737865
0.813773701767524
0.82571101625945
0.83866309935221
0.865215035023174
0.885037991637201
0.86227234981663
0.899404547591457
0.91131819974458
0.931492803184086
0.948456274278754
0.9737890664306
0.979241077648315
0.994176911142977
1.00090668263388
0.997247308119817
1.02991717870501
1.03378604662342
1.05748764967559
1.07843345901991
1.08141360917115
1.08836352970318
1.09908334434278
1.1053120130846
1.10989597400132
1.11230765684783
1.10457163960067
1.0943006433923
1.08960192249739
1.06271969109956
1.08737835842195
1.07323226022219
1.06668527986394
1.07642005505984
1.0599632063373
1.05529500129746
1.06236787618465
1.05371500357225
1.06837442718367
1.09878262791256
1.0816689664672
1.06647609642409
1.07832667994295
1.11147296090671
1.11851856423019
1.10068081779516
1.11706125117698
1.11700843384454
1.14241365126529
1.15300995588639
1.16749595678299
1.16977507400846
1.19658160206039
1.20318784264427
1.19431332853425
1.16977594268021
1.21161139745589
1.19024637952045
1.17941332254334
1.21669734270178
1.20758653095527
1.17706783890782
1.19125808677046
1.1816154787432
1.15110820877348
1.19978671551175
1.18360714699121
1.14751275486985
1.16351586462229
1.11311798843284
1.14509529312868
1.15631112988199
1.1169205976591
1.13553396565421
1.12353390556617
1.09148603939494
1.09708922732171
1.11189121732869
1.06672903678595
1.05572281402767
1.00853678713662
0.992330855778405
0.960156758967802
0.934449784598807
0.896224330610729
0.856421264457921
0.830446965059544
0.785236196171309
0.762558259816381
0.712390338961007
0.690024547246985
0.653044409597834
0.628276555909002
0.599973447888217
0.583353505037987
0.577741370239507
0.562420638117503
0.556406844104043
0.54491375684862
0.544075113364641
0.532797013298684
0.53028266857057
0.526360006101946
0.525971053559285
0.504454745378362
0.504669359473002
0.498176222401598
0.488462961455024
0.481257928721899
0.471515230926643
0.458147909458598
0.450448992348756
0.442364691370684
0.433543938602112
0.42031149306369
0.409297556199043
0.391052737871877
0.37715090815124
0.361978933170729
0.347907425185009
0.326444273151832
0.315459305617458
0.30001064583722
0.282928384285228
0.267504940768262
0.25071655775057
0.24425263319023
0.226341221558013
0.217173522588316
0.208737773634534
0.195612048104493
0.186948789604094
0.180476962113577
0.17267343698625
0.168033388237403
0.160806683593461
0.155894700865346
0.152086894568601
0.146666092281288
0.144800925207102
0.139736484923242
0.144307588104386
0.142167726782797
0.143546458577332
0.14219316295297
0.143147124738638
0.137491058263678
0.142877156418638
0.144183300133882
0.141943064480064
0.146721970721593
0.145250521963183
0.149754979129987
0.149452361133148
0.151661806524411
0.149628704382199
0.148182007806007
0.150034739677129
0.151761825546195
0.146026745846112
0.142970699036794
0.14415225599936
0.14125515753549
0.13348565923296
0.141299937471536
0.135524519664613
0.13159623116752
0.135564972261688
0.134942893560737
0.131071570062066
0.134065697266113
0.129663203211435
0.134435204483793
0.135954731635197
0.138689987552263
0.139055507748183
0.143348369119498
0.146243281137255
0.147209748179475
0.147379379613758
0.14586673346339
0.153924883830144
0.150949456852157
0.159008108483703
0.153392029412224
0.157727464468102
0.165095463911057
0.163713734348108
0.165086659111282
0.167119030939943
0.168521837971726
0.162475124012892
0.168205513740708
0.169012953549257
0.16837610698582
0.171676531027934
0.174914050365806
0.170103478473093
0.183887691619715
0.18246102866881
0.185619240167735
0.186939429618747
0.19551652991654
0.197745760501928
0.212932685395289
0.213944272676651
0.224576268378346
0.222580961010845
0.240016671164319
0.236628732644195
0.240017721594536
0.252190534652001
0.248805442683498
0.25397267063887
0.246301653491979
0.244293152443735
0.245898078075874
0.235572757141815
0.224815673010624
0.224718249921714
0.223871475347867
0.218102963950243
0.218987389221284
0.213561710057194
0.223355445340436
0.209538253381604
0.20952666033814
0.207204346190993
0.21189967483107
0.214574570102777
0.218294665867615
0.217216742502411
0.218821477424871
0.212057514331468
0.210119672113165
0.193544194882658
0.197893028952578
0.198882024191583
0.195887106602526
0.190933092959423
0.188844709207923
0.18822672810951
0.189066723568536
0.178328045916207
0.173708915990956
0.174729691407983
0.179352340052103
0.170648884213112
0.169400101184448
0.171901740032446
0.177223127296067
0.166836779858201
0.164940607502692
0.165099453968451
0.167578944637679
0.166768418172221
0.157996376617808
0.153362759998352
0.159009507072944
0.151799187479298
0.154569340813333
0.155962858801438
0.165208913267887
0.159165924220741
0.158645616753864
0.14904001156096
0.142443262705408
0.150922940467148
0.152684764477067
0.135378788083306
0.144457907275418
0.145505222363189
0.149742388036945
0.141375301267809
0.147442580465972
0.134671424671226
0.144936470805992
0.137239577011674
0.139248729354272
0.151002073101289
0.138680476177216
0.136759808696082
0.137410775433813
0.137331194315758
0.135256291955146
0.138246181535674
0.144058490354221
0.139036436289351
0.146845406516723
0.14009442172253
0.144635206714681
0.151230719335807
0.1502329430801
0.146712500213504
0.158812055325322
0.149345386062294
0.150741755008268
0.148130312620669
0.153393371439121
0.154932724010056
0.151510031007835
0.151243426238152
0.170584287193569
0.163918112089144
0.154112767900188
0.15981722435146
0.16316240964684
0.169909876336296
0.179492996591653
0.188024217721658
0.189121672821466
0.185199623745428
0.19745669459576
0.187196517626982
0.209593906662192
0.204729816520121
0.205770118120117
0.223772152645835
0.243215830864579
0.249464373461769
0.240318885936994
0.254286279878809
0.257219485020266
0.269424180179475
0.297470339625787
0.270270508566336
0.296163624519527
0.290886483649134
0.314037946028897
0.298554121601065
0.325299702600691
0.306277753896665
0.315920515229559
0.303771020851904
0.308837286144618
0.282210541590823
0.293122229701232
0.276313081246553
0.313687595495761
0.28816937369285
0.287064768539469
0.289956848898918
0.26876433187261
0.288148867864945
0.270043669959434
0.289774602331336
0.275283355778766
0.286982965367646
0.277860586122783
0.264125598541269
0.272878229308713
0.246349048045797
0.247423450789443
0.251766665319631
0.245558471294194
0.231986416592916
0.252161449801167
0.226143205907846
0.240770341496038
0.228276707079104
0.232452320059568
0.241106964344815
0.250207705524408
0.241657810425872
0.228148364912552
0.230211241504086
0.255657624033813
0.229627274187863
0.232188669769536
0.211791165976404
0.237774371426111
0.230706190519997
0.251379426336958
0.2252941397032
0.253406954083052
0.24282871120517
0.239099004587307
0.236628777772855
0.249079661884965
0.232561028215822
0.234962463419241
0.22957605013325
0.243507471873822
0.257916147977693
0.267811906532086
0.248545624971651
0.261592931117716
0.240274546774317
0.268596717336138
0.253374343716246
0.268681992011146
0.245414293357116
0.27809246450431
0.288743676328341
0.278422134073188
0.284665832351106
0.28563024933084
0.273815517573565
0.278331832804682
0.24251550662672
0.279281309320782
0.336465844775945
0.333568589415339
0.294343972107218
0.324347185931804
0.321792076040528
0.346973536291556
0.32677271670477
0.354658633775145
0.325092388318705
0.367289378178374
0.354447127148522
0.352966611862379
0.381904981662626
0.367037656947968
0.362192243032941
0.399614926218204
0.397499136327587
0.400342443993465
0.323768798308786
0.378598161164083
0.347440445925693
0.321333360846715
0.387600849384896
0.387980298655885
0.318934940796763
0.297638980199904
0.307560562184235
0.345155593003614
0.331563274700922
0.275271425752988
0.29878929377338
0.388436124206704
0.242748477912169
0.353980805327645
0.389018740647307
0.350979649796066
0.289377663758728
0.281965533323016
0.259627492194162
0.293270389280861
0.386888671713753
0.31446785803447
0.259523794220375
0.392842260296485
0.337613167848243
0.368541419161838
0.3274292145026
0.36498021867367
0.339973627140337
0.38277806932579
0.379728169257524
0.280606736946587
0.406502164677119
0.223360371734751
0.268443839107812
0.417066361316461
0.392294535247992
0.355665334082544
0.373957431199946
0.614232801058037
0.353742919567469
0.435343451023764
0.457187278299738
0.547823925716483
0.291474564968235
0.073016470568248
0.369739547350776
0.356274113572259
0.320802251023809
0.372952119536648
0.238724115416659
0.299150207146241
0.447316719095697
