3596
4000.36533379555
650.420452594757
1
2
2
0.0215808529132956
0.0231604445925892
0.0249877407749451
0.0217292324176841
0.0163961352542681
0.0222907911395111
0.0235942967799131
0.00640287300798774
0.0222976000488389
0.030811468234578
0.0237032337587108
0.017733461840658
0.0200578144790037
0.0177809509304569
0.0192581898922813
0.0172829104444614
0.0248770479699518
0.0254161549633978
0.0294331955198207
0.0196392357218403
0.0267247484645886
0.0281487695059516
0.0292323015931203
0.024469948644422
0.0256118533176209
0.0172060848386284
0.0198172265019406
0.0284157747566793
0.025923170520916
0.0220941015266139
0.0280845662081895
0.0239155799039057
0.0278226360719623
0.0260281725958384
0.0166134340850002
0.0248129188421849
0.0282976712566669
0.0162784683534888
0.0167156633515196
0.0223179514599764
0.0226678380810099
0.0226538046947683
0.0319510018174106
0.0270027652753096
0.0233766355779277
0.0217913783059704
0.0202461985787727
0.024092625659366
0.0224812810510573
0.0234353504000796
0.0204703920037207
0.0304166425536219
0.0338566082057093
0.0180108424253758
0.0297713969582497
0.00768075034430295
0.0162181037757722
0.0218305116201758
0.0223787591347578
0.0210832211271456
0.0355325332957608
0.0139945248833062
0.0240499576686003
0.00990444474983607
0.0308495124685945
0.0155647776803166
0.0318424371650921
0.023841444015265
0.0307577397233493
0.0245532278981887
0.0211935612617625
0.0275394856861348
0.0208938714627374
0.0308786130214533
0.0190788926206399
0.0178254348242689
0.0281310214577718
0.0228048250826886
0.0386652804873303
0.0235762565255364
0.0246036790021085
0.0195002023180206
0.0213552403703446
0.0273790949151173
0.0378782376894736
0.0133619686546145
0.0221663118061184
0.0150990692800503
0.0152439007607056
0.0160690420553482
0.0161477948579359
0.0161934213255629
0.0182349229992442
0.0182227245244268
0.0254680516716723
0.0165121879132526
0.020701842473281
0.0145403447010927
0.00936200232486064
0.0317977759512572
0.0140843601235917
0.0562477056158781
-0.0028043647982933
0.0385994049684395
0.0354016811886576
0.0143572396381476
0.0498599523325986
-0.00117357414297995
0.0325729368815317
0.0133767838797409
0.0224650801782829
0.0142365310729851
0.0267315494531238
0.0185664412712441
0.026628795426794
0.0269845907252022
0.0206964196079721
0.0191146455853263
0.0218782031194976
0.0177978922783001
0.0214131545092222
0.0398339073174944
0.000707226854853573
0.0244084470880077
0.013302675892419
0.022921778303113
0.0207577085529669
0.0142777261475848
0.0167917719760457
0.019497065383188
0.0131785146767066
0.0244861840467719
0.00928260963599544
0.0430528138117364
0.00297542825409377
0.0104823846843886
0.0198350169637755
0.0304530370203121
0.0659992885713242
0.00764636846109069
0.0278111875341358
0.0185945695162451
0.0231960616690267
0.0193408376166796
0.0117821082617168
0.0205901630517025
0.0269435938372531
0.0154694415973244
0.00248732023266973
0.0299711899455475
0.0182594202721534
0.0201561402975815
0.0157864524590056
0.0106654031236373
0.0315593940601188
0.0648591469566423
-0.0114142596884041
0.0695741012193178
0.00614382462662814
0.0188755610038011
0.0170240213875608
0.0144236649782612
0.0216309434945758
0.0147646694325657
0.0261358918565706
0.00820831716799821
0.0332751496584423
-0.00187557631181736
0.0198436532408155
0.0240386183880209
0.0265119509254253
0.00186813935741982
0.041042401185329
0.00797966635679181
0.0103897507707508
0.0442302327046635
-0.00271913817392537
0.0205494950198323
0.0165526487053126
0.0378669265087111
0.0183742822770785
0.0202338004360404
0.020298690386926
0.0212531993868417
0.026813062829981
0.0158045796822815
0.0162171061016281
0.0299253397426145
0.0118106826146328
0.0323200120861706
0.0310129041443529
0.0233074807224253
0.0161185286238935
0.0199267928597285
0.0175934484924441
0.0257256024223906
0.0510478257100212
0.000336805575554555
0.0228667459004446
0.0147436657761211
0.017377570662685
0.0132398649393768
0.0155525075757851
0.0198389135751664
0.0157312624387016
0.0269124515546212
0.0294837697548336
-0.00299084875346775
0.0236460871669321
0.0140351295922831
0.0256398704106631
0.0260964022193949
0.0543840675701452
-0.00332858874172627
0.0289992453717889
0.011653108519279
0.036460066619169
0.0134741485254883
0.0270062396700478
0.010237228837421
0.0186550502244271
0.0136867499880831
0.0229016512276617
0.0185732540878115
0.0237716582958787
0.0126037452309012
0.0226241968370798
0.0194087153821071
0.0202274171697473
0.0225971135303954
0.0324592630814012
0.0109692267426813
0.0208431435336682
0.0176575754009095
0.0215959139312606
0.0363633656551928
0.0164852215661127
0.0152971161181831
0.0116622930129463
0.0160140081186999
0.0150067308198623
0.0133285172920061
0.0147603231075628
0.0199561272648998
0.0143021649278013
0.026320459364724
0.02450253780964
0.0108032064891611
0.0302881384380086
0.0139551827886399
0.0553038979931919
-0.00241430154949353
0.0329531089645335
0.0058972096328627
0.0364028350588041
0.0050821466846142
0.0466232721698676
0.00844913791407627
0.0261310044584964
0.0175503518724304
0.0416260543781488
0.00154051120051708
0.0356389765199228
0.0129493745604786
0.0481767710948751
0.0108976104888321
0.010191556167058
0.0389717161863763
0.0282409299343497
-0.00482952756407525
0.0448965156360776
0.0169739209096302
0.0613638896199475
0.0280045736530054
0.00912588078070153
0.014771040740013
0.0337084748124052
0.0177738615997284
0.0223436590537443
0.0261483150046782
0.0144312947494259
0.0452557790467846
0.00302334327754885
0.0332778849379084
0.0406065302108333
0.00812093742477695
0.0647129986351852
-0.0021581304266763
0.0378977189709718
0.00813121807817809
0.0350755670583003
0.0130890660370664
0.0424210219972596
0.0101000830970951
0.0396507154496781
0.00721450059869883
0.0430004441071286
0.0264461467796715
0.0288552454256335
0.0126156204846792
0.0374692820318947
0.0151316304237346
0.0312524457188307
0.0267234274562938
0.0335626650363507
0.0271753246811215
0.0250090575037301
0.038179756824281
0.036552820621144
0.00607246732777003
0.0390853358883285
0.019534240887414
0.0286162512782969
0.0192914600315677
0.0280806774362189
0.0225352324758809
0.0234994906191933
0.0131844466713143
0.0300507069193021
0.0323427279037234
0.0335589757662168
0.0315032290280486
0.0292275254089934
0.0283677321527404
0.0281684171770535
0.0299342981746561
0.0317206912546673
0.0220799010099134
0.0255521518159402
0.0217599113474947
0.0583935386070526
0.0289060767270649
0.0342674014183503
0.0588475841912511
0.0236093510639799
0.019469117910747
0.034689966972598
0.0350998670303772
0.0362743454080978
0.0368684411538632
0.0454925360570961
0.0335342508187287
0.0431155810299269
0.0394032338001257
0.045837422982402
0.0403293928320044
0.0663339943003379
0.0614737750829548
0.0521616830130382
0.0252644072862166
0.0513627224152566
0.0257604520582729
0.0939373461845163
0.0163932295237134
0.0602718436235551
0.0267830382770567
0.0509582508004937
0.041945085575413
0.0458480132865797
0.0492612212941153
0.0507232332333218
0.0520479742737554
0.0510378269231621
0.0579631527607824
0.0516272067180674
0.0562876381345391
0.0602984240139435
0.0728277990270751
0.0649179396240402
0.0507201228977267
0.0706614836027247
0.0647202337741194
0.0762016418582451
0.08370102993764
0.069533489516326
0.0896358769218847
0.0687947222374172
0.0842459181494639
0.0705246468145893
0.0580121300258474
0.0929160024199329
0.0687256647540179
0.092172594569807
0.0816290267530315
0.0922771053687537
0.0916139979242973
0.0993283536611585
0.0798351924005432
0.101868439131996
0.0894498550740095
0.102514270939417
0.0847930537813977
0.1114898080713
0.0909809290609795
0.122642166064736
0.0996863074555069
0.156663952368253
0.0990839043179168
0.130826727598584
0.0928672391403449
0.13346109132048
0.0953725635520482
0.134242889652215
0.110013373706351
0.129429326383392
0.125674151926911
0.140013098629637
0.133803122216327
0.142098299062757
0.125843408756596
0.141344100183274
0.117706563991993
0.167273535936959
0.135305573861452
0.159858249605541
0.131726065796268
0.163176125120898
0.147250150397679
0.179772985738517
0.151075689553447
0.182243467193095
0.165770139836856
0.168847430258235
0.160169927052735
0.182841359052951
0.170853538681101
0.179159409844205
0.183303352601089
0.201119642161736
0.184446196269287
0.213052355475166
0.194249417280839
0.209483567653524
0.195539423712191
0.21973079727174
0.207637775540343
0.229084925122272
0.209674539933098
0.245165295981597
0.208455641154233
0.256353031463464
0.217920187672578
0.242261218524774
0.214576372055016
0.233199051569929
0.23280062036935
0.246349737788108
0.229695036857306
0.247784971042317
0.245905724810995
0.255533259171393
0.238412930847124
0.285790721053585
0.271704019599679
0.273083341264635
0.261535071412448
0.291891773613011
0.285237978228161
0.3079261550625
0.272384746445106
0.332440191766579
0.291473063528811
0.355843511514936
0.327050966267548
0.345753118153146
0.305223604861087
0.330926132938347
0.308256545059058
0.335603071852686
0.320256388254471
0.351910739460799
0.336004025502338
0.356216396497882
0.353794448015541
0.375636110693184
0.341565116860748
0.38575080991903
0.350383239550222
0.375754591458802
0.353472858931367
0.413551944865552
0.362226438746494
0.413508397920377
0.398592161476469
0.424773288456581
0.387349380030113
0.404600200466859
0.390522849737196
0.426392364752653
0.413490629326214
0.465473380563461
0.426928915597042
0.47196453695378
0.414285694084585
0.455371769898563
0.42680602134424
0.50350749241142
0.434454426020596
0.491055974920044
0.457636553914178
0.512044593766445
0.472813202016737
0.518662545768075
0.467752764974668
0.515136885607811
0.49947498910833
0.53875845710531
0.517337071861673
0.536668728360661
0.508509245955335
0.550629944676996
0.487494679624557
0.546266975606408
0.521371297290303
0.586667217961317
0.549164954048852
0.578443154211462
0.571389572292158
0.603237031482164
0.528693164171286
0.587063155308569
0.601727164403291
0.614452907208992
0.5948595134984
0.607328884547984
0.610510223575878
0.653557678626453
0.594615442026703
0.631089817706328
0.572527503212328
0.646830595627534
0.580462252340716
0.626931234817852
0.604328076855668
0.696286943295572
0.62916116922406
0.677561454204431
0.662903631415262
0.711886044616575
0.673171650069937
0.710650802891086
0.668091364498437
0.675032049330032
0.655925094105403
0.691844767519662
0.667869201709534
0.752159847409707
0.728742915300951
0.761380942956214
0.688574867185619
0.74624456299963
0.707226757698663
0.788244002664721
0.764215112417542
0.776968759726977
0.726545267306717
0.725584858147064
0.708846421430164
0.834985743720881
0.787113993478121
0.844270680703056
0.784329050676632
0.838243560023668
0.767527646698544
0.817967085751884
0.750689715821232
0.867882342513436
0.764864669738664
0.813703950014821
0.832922685030992
0.872902715778431
0.827855617882618
0.98580218554459
0.881541547313499
0.929935343430577
0.821080256132427
0.880582906804336
0.87601782196104
0.865253370022265
0.842877008017985
1.08304437418174
0.923550358096613
0.966797462701472
0.939179907373149
0.967849606149171
0.914287454747757
0.96098300479114
0.844429870418712
0.92218436276465
0.829620465284121
0.961257395236067
0.987355877968029
1.01703863155088
0.97754397334386
1.069111631262
0.939035043257053
1.0253665926347
0.955488293620805
1.01001017810413
0.989146904273949
1.13787073402686
0.996471649474058
0.982780603295309
1.03318323981975
1.09930307626611
0.971788751943296
1.06232231685775
1.04087063698306
1.04263981046081
0.986420043860945
0.997951771520822
0.995176182753863
1.08281419516695
1.06954033174748
1.15665467230212
1.13961497200298
1.14529539879542
1.00012169844593
1.21666350512298
1.04574447627075
1.11587854698391
1.06430802967607
1.13623906853793
1.12772545233198
1.24593365305312
1.0937571164716
1.16644728825242
1.00368264961804
1.10500772025369
1.02774249060883
1.14499196125068
1.07089025336384
1.1509651798956
1.09211292256284
1.23360775862588
1.12891544570602
1.25304511050622
1.13109132000368
1.20086267972352
1.24322573634524
1.16969943595663
1.12813441241958
1.18529161388672
1.09244447983136
1.29159177926141
1.21133684165703
1.2216374916121
1.156155967648
1.28147975602486
1.19887103851299
1.25163144382379
1.14795372843044
1.39453090036434
1.2826801247019
1.21092998164876
1.20551013736162
1.33655242219114
1.38106663891166
1.42425775234552
1.22191997474344
1.34994800343668
1.26977563997655
1.22447605953981
1.16822318533275
1.24249535502773
1.21573842165964
1.33688897222387
1.36031674659313
1.26478583432599
1.15307520395089
1.31641272042075
1.2408349191383
1.43338245539527
1.31016613199685
1.31504414283181
1.31293973665199
1.27651213979279
1.45008478808645
1.40031457814382
1.27090323016728
1.39997757255105
1.25018029610068
1.3975042350222
1.34867430828512
1.29072716722468
1.25428320448452
1.47745030134124
1.4967202754386
1.41407501186892
1.18682193138936
1.31219935152406
1.38605857869506
1.21540748940129
1.20533213135952
1.43762934655508
1.24308928334014
1.27260244729028
1.37582366703151
1.39580852602487
1.31855948626282
1.41740815102917
1.52497424450343
1.45539268547703
1.25762803619455
1.41106004750024
1.33093889978016
1.39966266097988
1.38615338489229
1.41811162769961
1.30109018989909
1.36742172493827
1.32700686079039
1.3387694748319
1.30594012591027
1.25297388724746
1.32885101576711
1.39302043502608
1.37078456542339
1.38985382619594
1.34010812448139
1.28486301061074
1.27558246177842
1.34283368879549
1.43923936880837
1.43952618207704
1.34478204868504
1.46556700650273
1.38905442338335
1.54299520648141
1.31211620908348
1.27575568657011
1.36870461742512
1.38743571856859
1.3097797833948
1.38765695016779
1.48665725764607
1.48627558306083
1.3618325698136
1.35674020143453
1.25186676905521
1.29232136038169
1.31050212114699
1.33664615168918
1.32207709108617
1.32597017784803
1.3460396481436
1.51623561215273
1.50712186034372
1.39147494566462
1.2701624687705
1.35369370522067
1.45171496084438
1.33143096131921
1.3150128710506
1.51243942097027
1.36226035414119
1.46035424081715
1.38753281186952
1.3628583744547
1.37581413452653
1.3483758382656
1.39698822816337
1.39137179675711
1.31589003195215
1.23352539396531
1.33645739977825
1.41029428604154
1.35990892377886
1.37184291038089
1.31836263971759
1.31499211232362
1.33127395254589
1.31132460731268
1.35410089583983
1.47709976723594
1.35890076886951
1.31976393333724
1.23184948312707
1.18366274074217
1.37036473987045
1.44766168307426
1.41874435144442
1.33275839561185
1.28093651698783
1.30297601543152
1.30524629956982
1.34989451263289
1.30283199979263
1.29942085651973
1.28646287980803
1.29162908862277
1.31181890880216
1.31299839253724
1.28325746333573
1.29931018951666
1.34484963765959
1.33514186600895
1.30010873681664
1.28524515476214
1.26644306634295
1.34107593567185
1.26313315650775
1.26259630312752
1.36361205713097
1.29504473307399
1.29479684847852
1.24406321449455
1.19060295587068
1.2035119091418
1.29182479605721
1.28843224876545
1.24971538683384
1.20140018308956
1.23180564035636
1.26727083685751
1.2590912721245
1.1985537299328
1.20679295990137
1.22263996795389
1.18900474486971
1.17799936195726
1.19850812419498
1.21436378117393
1.26329780069464
1.29734290999398
1.22615660428328
1.18188251070733
1.27431113715892
1.19708714158642
1.1650158473593
1.13809512874212
1.10471306295311
1.23761186500092
1.22707023501801
1.15646427844478
1.20279771363769
1.18327382567308
1.16551070109403
1.14725773307081
1.19944251063317
1.23293574588756
1.18307434511189
1.17337857068863
1.23615840695751
1.11584195528833
1.09537764824433
1.10492749681469
1.13442762455794
1.10021274736799
1.08344575772447
1.10139022360717
1.1088324997384
1.12707970146677
1.10513520275853
1.05030157888128
1.09222108521129
1.06144625615041
1.06513429710347
1.08393690098141
1.04359702612787
1.02286460511028
1.08641792214929
1.04856922842003
1.06386689520746
1.06341718715964
1.02537457708276
1.01379122421808
1.08238548316161
1.03670393472621
1.03225695007848
1.00229264049029
1.00093568577114
1.01800422752992
1.01333307818645
0.976548488335295
0.961242971748317
0.953490604843551
0.982497524140801
1.00596170350118
1.00566443708016
0.955154799844725
1.00036087447999
0.971274340841744
0.977982816708361
0.972543888819977
0.941556905532928
0.935488242996284
0.91442132863654
0.928971136443818
1.01892039348177
0.916248922147325
0.895633077918738
0.939679821638987
0.92461454647344
0.88787621064117
0.951847704237649
0.915248329783973
0.92072226027932
0.894647216594279
0.908174158145715
0.867273874136025
0.867684625061039
0.901565957823072
0.89328714388393
0.855176533586614
0.878000684551635
0.865062596170179
0.819882357496785
0.824991595088395
0.856759008038484
0.837783336622812
0.819657688329184
0.827246529734351
0.818474501342292
0.812799194342971
0.856741407963437
0.826569036471789
0.816456060761653
0.780028871595274
0.782844648066051
0.778989789119556
0.787519939648207
0.794278461594313
0.786256852729469
0.772018817477219
0.779991298594555
0.780437485139428
0.770807677124113
0.763407598767647
0.762271573388771
0.730463304026784
0.769202742613168
0.751920522026212
0.728331347960759
0.744947860058262
0.73857403023521
0.706743827400097
0.745099068314106
0.718889427213848
0.720966849813235
0.712641133800228
0.694937123454487
0.687814634580781
0.695106154508043
0.694492329913622
0.709070332933155
0.686187599895932
0.684837969575854
0.678427790066158
0.690738265506212
0.669228605776034
0.682832759792779
0.641410809347337
0.665163099147584
0.665986886416298
0.65143118444983
0.660712335417768
0.661457662321647
0.652009982123692
0.635887600675571
0.646309983398165
0.634762134150755
0.621890949738422
0.642970330823246
0.618890139890801
0.633456758202829
0.611336189517154
0.617582425315177
0.60920658728772
0.618084605515461
0.610779963470518
0.604454090699151
0.595485306497972
0.601674206827278
0.595517142742752
0.583699578424754
0.575768718907314
0.586815359119307
0.578289414333908
0.582335312635229
0.55646611894661
0.57159960164818
0.566632218902439
0.564998343656215
0.566983019514174
0.557123997138258
0.549639800382658
0.561089650818373
0.545933120454309
0.546694344160973
0.551639689631029
0.537261497886676
0.536720021744698
0.542936635643236
0.53004394189307
0.531991156712119
0.521953819370016
0.508182922347335
0.51806630027283
0.52781268736479
0.512506479374542
0.516742525008889
0.511959266293855
0.511386682497032
0.507357239959897
0.503084478918695
0.505247272483513
0.512918800823399
0.488161515094515
0.491968622399021
0.479934927997494
0.485410312837932
0.472840136175562
0.481864416333738
0.47225923287451
0.481467447254405
0.463837639715741
0.467601187523437
0.454531675456826
0.451291163514296
0.448729650577077
0.460849522610728
0.459434282409665
0.461252842945588
0.448423374069123
0.439572609170004
0.442229946637099
0.445363606643517
0.4355870824972
0.432590884430357
0.432500366069902
0.430690642288063
0.424848489429551
0.429329500986948
0.424230488672687
0.434338249779316
0.42658703341261
0.42116499440903
0.412354645707253
0.417714494936365
0.405803693580343
0.39858576778999
0.401927860659073
0.407612258389636
0.397803342030573
0.398282939366782
0.396677298888738
0.394908926512936
0.389167856208192
0.394998886069508
0.38159461420057
0.38909773216578
0.387422000669612
0.396220676150408
0.380616263212492
0.374283588344711
0.376832958478407
0.374826642594145
0.380635678098107
0.36350632401779
0.364831542877256
0.36123935158648
0.363894301780159
0.370120955035766
0.363293898026843
0.356724870195269
0.354846992469694
0.361387849764249
0.353745850513511
0.359652472150935
0.349240947726561
0.361050903208937
0.361949183800298
0.35857433535098
0.349125591913681
0.361068084115169
0.351738383212131
0.359106070509753
0.349913049829539
0.35206955392428
0.342996090462874
0.368353739200275
0.347691764622309
0.357230676266756
0.3488723963339
0.355171995909493
0.353568424611171
0.365220788890928
0.352759245125389
0.36377200118704
0.361186583150829
0.374554220607916
0.371984973951969
0.367553767064398
0.360834311941256
0.366308258794134
0.372546985154535
0.377909099456099
0.3714806695313
0.378828277881835
0.385818774618051
0.39521016401055
0.392171410377562
0.394189547459937
0.388445167287529
0.398499508118585
0.406296301619262
0.410847866992028
0.391820944546502
0.408695056285936
0.407070035512472
0.410073371588608
0.409794128616123
0.409772088821992
0.403135154034313
0.436355618524914
0.414706932108314
0.422653664753781
0.418618044872709
0.440335120349289
0.441247291516773
0.444009581829212
0.431974517279111
0.435174870828747
0.454010545453092
0.461573359252008
0.446978984047413
0.457677228822209
0.455294655255707
0.473351975922022
0.448504679530476
0.468566001178669
0.473087580555364
0.484015872240314
0.471958322668154
0.492844727276938
0.473208093543973
0.499435253072802
0.487689316652576
0.505828141406458
0.504831069149871
0.529034494431303
0.497494276872699
0.517538719150222
0.507892669518324
0.534367624952388
0.525635327067352
0.523761323321077
0.514824554044789
0.531463016437684
0.515009182898511
0.527838026161199
0.523061652862557
0.531707604657148
0.526427505652689
0.532169586410822
0.524371477240284
0.536587097103457
0.51854542017093
0.543861676309431
0.509396449177833
0.520282608376942
0.517808600036529
0.536062996992101
0.515457971585859
0.523746887362256
0.503958173594101
0.540037944183708
0.511581050272794
0.526929740874837
0.52129018869692
0.534469870482682
0.52770659893957
0.528459286995309
0.520345134965364
0.519401376520448
0.505626306196095
0.516553263618009
0.518251026037984
0.518066556256133
0.520723387193383
0.52129318835061
0.517420823398798
0.526436522163879
0.507870071317541
0.536061937053064
0.505849140803849
0.534809797497418
0.524788215506961
0.524063713209684
0.52003687988938
0.526606195193897
0.517501423153872
0.534298915431385
0.517016265838034
0.533919268931217
0.51876981646744
0.524904486086064
0.509119967003669
0.51688279648986
0.508154033804067
0.519741628773236
0.513900052186004
0.521078144693257
0.501653592426587
0.513727657407071
0.499905120259784
0.510049051325267
0.498893386912791
0.491132815133378
0.492067504792242
0.491387607259293
0.493188316203928
0.489634688230288
0.483015839785145
0.480692391343771
0.466247262685298
0.493559151171002
0.458548540810811
0.474902300554431
0.447231072826424
0.457028719106479
0.454012291627695
0.448832097346306
0.448366654782255
0.447629924330301
0.444907838113857
0.430589521600013
0.429383847933772
0.430054746048874
0.432383471047775
0.412739496390358
0.415240450372017
0.41919424668629
0.413100959460842
0.408478263553029
0.397644171279769
0.398214810319354
0.389736267210067
0.39314124837954
0.380668751986099
0.389200491038712
0.376361407040552
0.377367860447785
0.36948530424114
0.368857316883471
0.35684896184576
0.360568899505445
0.357148252759192
0.359176923017079
0.354121310774357
0.355010499626204
0.348408064430364
0.346958959192201
0.336486981473393
0.349112346173451
0.332574115052462
0.341592694967435
0.329688211081429
0.337381604097031
0.319763621899811
0.33174086841112
0.327132069403566
0.323348862993435
0.322974248157265
0.33015133847608
0.312130153677503
0.322893059495081
0.315075280734627
0.319518117238134
0.310022505421266
0.308158141056964
0.311827314496229
0.314242405201726
0.308612589182846
0.3132408323709
0.301805166188455
0.309544154537134
0.300710293283478
0.300275020232072
0.294592188571402
0.300769307112626
0.291346037370106
0.299069258488969
0.290418145403472
0.300638035686015
0.286260843556872
0.294218423059311
0.281357183109999
0.28522410043487
0.284366018169056
0.288541882488038
0.281412685800879
0.283440827569217
0.275450801972997
0.282717408228603
0.275144386175609
0.277294051978083
0.270255847051437
0.279929096233062
0.272233593438438
0.271509026831241
0.264921107349565
0.270918125512079
0.258425994822031
0.267916785457306
0.264013137038691
0.269470641845552
0.261090081368909
0.266259260383127
0.261970494283044
0.265445425834625
0.250405483483572
0.260908338394004
0.258445625094487
0.260958266722166
0.252583628850462
0.257737470045306
0.244132774397536
0.259399575278508
0.249843940794531
0.254419242664055
0.249989970287201
0.25366637094327
0.24544095275612
0.253119221473787
0.244457444383497
0.253034557581902
0.24128908880738
0.249773721197624
0.244372219154229
0.249673436275924
0.238152799704471
0.244913367283864
0.241265882159731
0.244741925141164
0.238284579719273
0.238936810488979
0.239746811657286
0.240352038046292
0.237219125965381
0.239399368643078
0.232372924286218
0.236305458163732
0.235302131871317
0.243653622648352
0.232255874385118
0.237022421209613
0.231875676361409
0.239238288150996
0.229134417200357
0.242155173056241
0.231366230536109
0.237623845222275
0.233260115703948
0.23407109144165
0.228550028345754
0.233090089444647
0.228334525918293
0.229920060036077
0.226116650862524
0.232897731832659
0.223421856485214
0.230891485993854
0.225760096305235
0.233316200226229
0.222153972158941
0.231422138692159
0.218178263073794
0.226520778197038
0.223622266987506
0.227462436812826
0.216122446428125
0.229583319316678
0.22086927346096
0.222669582724293
0.218203095710896
0.223575041499676
0.216092991793992
0.219511675720969
0.22166584228223
0.219235332470311
0.217534674820342
0.224759793644348
0.212704684076258
0.21834328332955
0.21466326353566
0.223376604821817
0.213939075718629
0.21599922928088
0.2137971349351
0.218770692644345
0.206777211136676
0.212545990159569
0.208065044476719
0.213668953152874
0.209123058755113
0.209434682639955
0.206214677744489
0.217874587178649
0.207072592763095
0.209983100264119
0.203179579698431
0.210836717389847
0.204362076984091
0.20938744429485
0.207216871569728
0.203181046599089
0.197399397849168
0.204399155934723
0.198855515483179
0.200698144463808
0.201820317768249
0.206924958362406
0.195903989272817
0.202305180458765
0.195939126746043
0.20355141118428
0.196136305582267
0.196793349595852
0.19291830104291
0.192226980296393
0.187875934074882
0.19556811139705
0.187455592573424
0.197295154949245
0.184414825205888
0.18985987294634
0.184606148066191
0.190635514516614
0.185629923527699
0.188089682198353
0.181488490008718
0.179751700023679
0.180100500809809
0.189587439842857
0.185348550280572
0.187807129229508
0.179297543183519
0.186643939186957
0.173570160254423
0.176042365608816
0.173311535238818
0.179724548210709
0.170125979266108
0.176385244857734
0.170095043509727
0.175094306470893
0.169736775077698
0.172558759063211
0.167901911191182
0.170084176483422
0.162515468177125
0.169017629343453
0.165667798210204
0.17117519408816
0.163085021082589
0.169715638510734
0.15981784908698
0.162468505718402
0.15942082495839
0.161410160581558
0.156882330793575
0.160856056358523
0.158844810775619
0.160241852589394
0.155426966147002
0.156803802023856
0.154133861361709
0.15757073448581
0.149205919509354
0.158947092128703
0.156083955322487
0.151515140322032
0.153953280372047
0.156536105119575
0.149452904193265
0.151039810952583
0.145816130815034
0.147203065198184
0.142989733411714
0.152877069087411
0.143055217128219
0.145067205966483
0.138057597901969
0.144018605955927
0.146025399591196
0.144816947591139
0.139115415260069
0.14382422575205
0.137183702507288
0.142217410232311
0.136753931760943
0.13802016728633
0.135060910790826
0.138401126762774
0.135741938817454
0.139663408811507
0.137558553431547
0.137568402388949
0.133673926723343
0.139612262310945
0.128180189640606
0.135090193205116
0.130180648472166
0.136549255423803
0.131001927732025
0.133975395375209
0.129703358519783
0.131251224740558
0.127408481048739
0.129619257929019
0.129498413217477
0.132669945361594
0.127236230987743
0.127660066711199
0.12490417968597
0.129650526892315
0.123579762624783
0.128492238935901
0.123041648330882
0.12612284251344
0.123239933179289
0.127537631965336
0.118982470717206
0.126278484599368
0.122494304915003
0.123489412671745
0.121589248744173
0.122810224716919
0.115895855261644
0.12367133404418
0.119905899384979
0.120582957678633
0.117678502616204
0.120929575876359
0.118945471443407
0.121802257377336
0.115890543588974
0.123579601111632
0.118887076924859
0.122021540305627
0.117921791997732
0.119176511730799
0.114287632147241
0.119696568803259
0.117816587307937
0.11875232397945
0.11242852905162
0.117458352452736
0.112684498328417
0.116280913933566
0.111425380065416
0.117205257524078
0.112376254523169
0.117451173549704
0.111539706701243
0.1155779131402
0.115928875597451
0.117505393117087
0.110739419139702
0.113486498504519
0.110062542610513
0.11345766197015
0.108747668494749
0.113155400404874
0.110908580111993
0.111657706071707
0.11252980678262
0.111857125434147
0.105824979708459
0.111309383392316
0.106556276766213
0.112065370279262
0.104586497796497
0.109361627966439
0.103322875525675
0.108401627250819
0.10717338462864
0.111211490391893
0.104567909003933
0.109628649972637
0.106631574811378
0.106994564676327
0.101331495034081
0.10725935992961
0.106566957898635
0.108729874842677
0.10523898196419
0.108834345213249
0.100614262498274
0.102796251937277
0.101860500179128
0.106767110171364
0.100121587400503
0.104731710218785
0.106220852639164
0.110620066714652
0.101705609831981
0.103963670866245
0.101655476295182
0.100956863906822
0.0981894903804006
0.101066660812915
0.0969804210713938
0.102003225571454
0.0988403899146626
0.101184945184594
0.097575176148036
0.0979274526593581
0.0960361318671534
0.100045120264391
0.095369858046378
0.104456507300712
0.0995231025281521
0.0951769473677778
0.0950291858889688
0.0958146763672212
0.0895242596523253
0.0985958214250452
0.0950992577679006
0.0948812468350357
0.0958764199139162
0.098069641441945
0.0913654353136726
0.0951023720808771
0.0920473780121156
0.0963085636332635
0.0903536733118089
0.0958943137872393
0.0909615522843183
0.0917125004289478
0.0898562588085064
0.0918083876485212
0.0888332818295939
0.092216350281442
0.0847892763942189
0.0877434534510337
0.0853100813708399
0.0895995005097141
0.0840870822822864
0.0866816111124722
0.0847552378651631
0.0885660659496926
0.0835939003332088
0.0882520544625495
0.0866066913346897
0.0853734256582449
0.0828121731093156
0.0875965217767953
0.0857769518346156
0.0839666693888749
0.081657001299576
0.0857350411076465
0.0804168312622779
0.0846750013896769
0.0808936592528836
0.0819040584700837
0.0784367887148643
0.0826993915557367
0.0778267291811892
0.0808819137847031
0.0772885896916473
0.0792726283844546
0.0774006414003912
0.0802122174933228
0.0744403941947773
0.0784625432477948
0.0793209075319692
0.0782876247297572
0.0730451446203093
0.0767665359486608
0.0743469513772131
0.0777628871231112
0.0729253993228079
0.0740080873637558
0.0737102436512237
0.0756195588498869
0.0723687706149384
0.0746298075465358
0.0716878226990894
0.0732215972339979
0.0725548425500821
0.072683305897024
0.0711818153257942
0.0752485239246184
0.0694527227026694
0.0739753455207039
0.0695510603466365
0.0670681443772578
0.0676365523030209
0.0707315034539317
0.0653231862308194
0.0740352330850502
0.0658779228733393
0.0672999205554437
0.0660394049153381
0.070685966418716
0.0694839221223836
0.072371961305929
0.0694508834065183
0.0686735349767674
0.067278050707327
0.0672782480102027
0.061418767836354
0.0662315755814404
0.0643342603389307
0.0657071040680699
0.0616589193293702
0.06499614583869
0.0647788398930649
0.0644245664246915
0.0630965534595213
0.0646178617936994
0.0634175973151887
0.0660292848263111
0.0610692983833641
0.0637773006794383
0.0614059668423367
0.0680017289843198
0.0615059217193691
0.0623909427889712
0.0597841806190718
0.0615080371691444
0.0576730479436254
0.0616007684890722
0.0576846950164281
0.062498566117613
0.0586244169398113
0.0616828527881749
0.0570335063364205
0.0621175598360453
0.0610474193540761
0.0628029326238771
0.0572661151810918
0.060283203834995
0.0596698660728447
0.060670747663974
0.0585089379785215
0.0573066469587346
0.0579671484454088
0.0628534345880852
0.0529257798509566
0.0549383675794836
0.056162365999611
0.0576766929250113
0.0508097793346803
0.0558256995078843
0.0513667844277319
0.0573389475508357
0.0551364836019073
0.0679268151199578
0.0576381065768333
0.055846177105228
0.0516248267575987
0.0553972331199521
0.0532757067046937
0.0538508028971675
0.0531242076232285
0.0608571636530995
0.0531023695677171
0.0569073984591208
0.0475353256279286
0.055788558450843
0.0507905984323169
0.057845479726363
0.053370918136131
0.0491900433932467
0.0561339817079629
0.0591104180562556
0.0501983727352415
0.0556524699858925
0.0535934024146585
0.0541944180384416
0.0536996078454561
0.058052589935335
0.0508046274396697
0.0542434739983228
0.0593305316071212
0.053496852469844
0.0557268200640027
0.0486863344074828
0.0485346412156653
0.0503807280734838
0.0547968372233248
0.0438028176828911
0.0551968140936356
0.0476423000615717
0.0640015116691459
0.047095512016062
0.063952591971916
0.0368626411666253
0.0620763901002178
0.0353555340992582
0.0729446783310738
0.0364962475085095
0.0661038075497563
0.0188757245100507
0.0737012142456381
0.0293738332916173
0.074073616746603
0.0146584526265469
0.0770704642455224
0.0319250986441324
0.0727954396615882
0.0306868725407657
0.0645805764203664
0.037852796349876
0.0547405266190829
0.0502777350906778
0.0478835719173908
0.0537483168983475
0.0451522165146871
0.0604456255309667
0.0417031231448332
0.0566704629247708
0.0449708818262377
0.0521184205493027
0.0455419196733624
0.0501802985850101
0.0484685609391747
0.0490749092674318
0.0505966093224288
0.0488128652868969
0.0501325704932129
0.0475496226139709
0.0498975353387163
0.0491552722243996
0.0466573573831625
0.0512732196273412
0.0454912434940195
0.0505334240009857
0.050665036823365
0.0482274619508613
0.0488063932939892
0.0491139960256913
0.0491042838375524
0.0508496427524241
0.0456192872838148
0.0493393575664523
0.0475679343264697
0.0474573042381091
0.0461800733486203
0.050447282505487
0.0512541445443511
0.0505432301016152
0.0488771467159601
0.0476609303003344
0.0497862886550334
0.0481154373176315
0.0478193204760378
0.0483709935405921
0.0478116526800016
0.047006540940143
0.0477222161429114
0.049460082991198
0.0457041877304559
0.0479002666038185
0.0481415823125391
0.0485598992048176
0.048750040556497
0.04639376485406
0.0419401466143674
0.0464595532956642
0.0461647631079963
0.048503325415767
0.0465691808714047
0.0508546298115331
0.0488267153969737
0.0482584703772771
0.0469910541967974
0.0491871394815208
0.0469286158420798
0.04842572779226
0.046800699115126
0.0496497505076687
0.0462474976627842
0.0513395310661855
0.0463552551856094
0.0481636517152445
0.0477238793282493
0.050627182335565
0.0477901569941342
0.0507894930361053
0.0493604033618484
0.0510391084570223
0.0462908616104223
0.0482629077047068
0.0473302012107837
0.0492664552418349
0.0478249365425534
0.0482363501899257
0.0449511782067973
0.0504125612591637
0.0470812637581224
0.050977032302947
0.0484850852049508
0.0502855244639652
0.0484327351084384
0.0500640793447971
0.0476073439023588
0.051561690195869
0.0512790254216352
0.0488757826345785
0.0477688264208512
0.0492819802791442
0.0467262531860098
0.0504035996150609
0.0480356247316609
0.0486755112010397
0.0502254045256675
0.0493472031569555
0.0484414444341121
0.0479013678169133
0.0462298342022017
0.0501147722066421
0.0491593109565446
0.0494788992584582
0.0482434729584612
0.0506278887406237
0.0468436449745322
0.0508390592640889
0.0483014428665252
0.0478734422537278
0.0487804392635339
0.0516906399847953
0.0500346037868926
0.0501037569844898
0.0500550586497191
0.051650479452793
0.0477306458327525
0.0507955243643156
0.0495728001821168
0.0509600540216965
0.0521461715185946
0.0506417249103376
0.0508641158261397
0.0532086606796225
0.0491515358404774
0.0514250037096531
0.0508675088676356
0.0508648817859811
0.0528012517514428
0.0516735188871656
0.0519257678157375
0.0541221838719179
0.0497953379291448
0.0525580174585229
0.0519592097739072
0.0510193163895461
0.0510338317791816
0.0518625356686418
0.051809807539022
0.0522509371046758
0.0487125233589141
0.0522024092247347
0.0544149423950416
0.054239262228313
0.0486141082630042
0.051919331165904
0.052117811362152
0.054717938008829
0.0540385436385213
0.0517718432169648
0.0510068430351567
0.0542263618402163
0.0506500171364055
0.0535771165942192
0.0529204971499478
0.0547335780042447
0.0500218473317687
0.0533042061575456
0.0528235376754257
0.0542882781255119
0.0537140256143248
0.0542138746752743
0.0531213762319416
0.0542644361496212
0.0498653371185024
0.0537098879818423
0.0553171656108262
0.0563130880562087
0.051626531648653
0.0536178325458292
0.0540553149790485
0.0535658984086107
0.0530197999234075
0.0552505934363344
0.056389167598203
0.0559953013899024
0.0539233597949798
0.0551671873578188
0.0532637379807352
0.0565810281228525
0.0533036583031639
0.0528297052127111
0.0515305634490471
0.0512977536269641
0.0523533442432887
0.0535361377024095
0.0490288423268415
0.0508466631747831
0.0539086105073979
0.0536724544487326
0.0541095492148104
0.0480983111338706
0.0503654460008934
0.0503427433957992
0.0498403373785452
0.0547129173722979
0.0516290487152069
0.0539975162517438
0.0531840656548367
0.0513297098625484
0.0501362816791926
0.0502355336359691
0.0470909552454311
0.0509241735348059
0.0500396540854518
0.050700546765543
0.0488042315828329
0.0497939928929294
0.0507565688831918
0.0507469733913719
0.0508136439127614
0.0516208028333743
0.0506090494835507
0.0496314230765523
0.0512326508268428
0.0484815925862943
0.0514272343231366
0.0515399596280595
0.0484223316472691
0.0510876586802329
0.0475480528230962
0.0510081967625947
0.049860226887489
0.049869208409255
0.0475354706797955
0.0507249109158101
0.048245510800017
0.0508898460076509
0.0498262655133706
0.0501151035468461
0.0498506596180143
0.0484184508739607
0.0489622343301317
0.0477981098212125
0.048289099184235
0.0495549174583477
0.0509393129813361
0.0487532311198824
0.0477565313287513
0.0477407944324303
0.048072183215441
0.0497066084415672
0.0491903287123709
0.0487623898874157
0.0452109248508489
0.0510272122737439
0.0466331549574608
0.0481535656799531
0.0493918243812031
0.0483795870409637
0.0471346577752768
0.0490046541352407
0.0494028518204626
0.0486077973191029
0.0457667155259161
0.0502261669539109
0.0467035486905171
0.0481989985587915
0.0475673325716908
0.0489444031149121
0.0474579925437297
0.0483266853448359
0.049599110188809
0.0505187215806297
0.0490591205513848
0.0479886093295581
0.0464196949013853
0.0469176354161271
0.046267696749208
0.0477273969363288
0.0490781105554054
0.0484847784563093
0.0467656613128477
0.0494354948578762
0.0462887061992219
0.0460232150638351
0.0489108141852739
0.0477612006194743
0.0482423578336927
0.0475851359836302
0.0447953188027983
0.0459666553530658
0.0446444564700372
0.045289336796756
0.0471036938042164
0.0481939902974987
0.0479250609392789
0.0490171860650201
0.042205261403141
0.047092714873641
0.0477188857149234
0.0469952615653678
0.0485634856261637
0.0460258690238799
0.047023011826027
0.0463580057309751
0.046435736819368
0.0463709620759063
0.043827953108367
0.0446840301399388
0.044071734531206
0.0452844451061636
0.0441631199688569
0.0442038572554368
0.0414229809235256
0.0431447229058692
0.0413213261362936
0.0454374001016443
0.0427640561851686
0.0437093697011555
0.0400408560395449
0.0461798263407607
0.0421394992844151
0.0479638281111478
0.0440292855309182
0.0414655285012491
0.0444066921191503
0.0442374246970228
0.0431080717260831
0.0419480519463901
0.0434514079652189
0.0418518410353065
0.0427881256525607
0.0417986623385881
0.0410121943284537
0.0437738722078988
0.0436344565095919
0.040275323094661
0.0394863375743129
0.0417733012202477
0.0390443661600492
0.0406336184107047
0.0403337590774623
0.0404289739219889
0.0412430040480337
0.0418487379019267
0.0391914543711277
0.0381967156560077
0.0391206554189822
0.0415386908143865
0.0439036220156948
0.0356918549502015
0.042696850609168
0.0364708431282051
0.0404451768950376
0.0370013941571487
0.0388353173584539
0.0366168486008723
0.0395455527592412
0.0388113714840109
0.0387801401241671
0.0418265251628811
0.0372566536541438
0.0386428949313796
0.0389415960023924
0.037576927679232
0.0361659208927259
0.0397124714625297
0.0388249200013397
0.0396270240713316
0.0374552066238794
0.037230357710204
0.0383621866161373
0.0361054722062833
0.0386883709169539
0.0362714216122476
0.0397946313543783
0.0383489373596935
0.0368730433237082
0.0392360030431607
0.0394965638753456
0.0392596221200509
0.0376129845524718
0.0396912340462723
0.035147249660257
0.0350822707834908
0.0367117499302816
0.0360332138171933
0.0370336054992318
0.0373509912802058
0.039887939159928
0.0374688325604917
0.035091936019451
0.0369796396591943
0.0390563709721561
0.036806165292041
0.0379783695806634
0.0364731247101134
0.0329637328816855
0.0348840049303901
0.0353179630182322
0.0393835914974454
0.0324389930894454
0.0430230357862081
0.0343333876456746
0.0378513869766265
0.0366675271974249
0.0352977752125157
0.0358172097762918
0.0359812997723757
0.0373317863755088
0.0391666682244272
0.0354037597223866
0.0356177048148645
0.035851449231266
0.0348173807251113
0.0352024343680229
0.0378282974257012
0.0350151637613369
0.0320873019432551
0.0375679957981651
0.0354349044833387
0.0375608501508653
0.0338765389119548
0.0416440028184867
0.0371646470410768
0.0324526108311051
0.040595832790202
0.0300759176510848
0.0368697035894038
0.0395854750653238
0.0260679342412503
0.0410296105550239
0.0324402585084314
0.0382004879798458
0.0334939860360968
0.0398621208090554
0.0303798982883401
0.0403415429629198
0.033457841301542
0.0376058933118539
0.0390850647105908
0.0366794736065654
0.0359548203938673
0.0342695028499797
0.0336878264842409
0.0378465538301972
0.0327635896173306
0.0361171020855479
0.0357832467029632
0.0353354629845327
0.0351783124006039
0.0378183259276325
0.0325958656894906
0.0375446774828733
0.0327282883127314
0.0383404839439386
0.0363781700107286
0.0376640963985671
0.0299868723938816
0.0452347692461864
0.0351153550874382
0.0374457894857242
0.0377322058735935
0.0336414669550658
0.0338653764727517
0.0334751837775579
0.0322314743035978
0.0356941584050902
0.0347385581617838
0.0343309605198281
0.0377898442394591
0.0363762059539485
0.0355140848128272
0.0342044603228146
0.0345328283198287
0.0315190246302878
0.036189709967428
0.0326536485594388
0.0356653299806891
0.0352996264177178
0.0332707851727341
0.0455797128021267
0.0348373509786172
0.0404785958285833
0.0320324011600418
0.0386806434781371
0.0325298155052652
0.0361521871472976
0.0301892514391847
0.03721445639001
0.0353519904250836
0.0376124429683345
0.0351692827772927
0.0370383647399754
0.036112083045
0.0353951008745751
0.0363902150460978
0.0386249787816082
0.036834124296681
0.0378366583844328
0.0306580273104587
0.0368165833316548
0.0340326839481474
0.0386379914243464
0.0428775948872631
0.0338208639685505
0.0382069798021933
0.0357403541259042
0.0631063911333964
0.0253395916706437
0.0389828547829391
0.0344157188742547
0.0362626118237337
0.0365789125472569
0.036728987085185
0.0380291403956675
0.0378694869320557
0.0375384226572026
0.0407159658297766
0.0362943832025287
0.0377529264866901
0.0374347935769061
0.0349465209118587
0.0426622563065874
0.0405062369117292
0.0344428497361646
0.042383286782049
0.0331600992185779
0.0449789894660704
0.03546123332605
0.03672647732088
0.0468970109365642
0.0353231530464675
0.0386650921106745
0.0358853610509914
0.040983666570498
0.0351133914123706
0.0409447767506555
0.0375564242044002
0.0413383237491422
0.0359904140322835
0.0375768739087443
0.042565514355305
0.0366969153388318
0.0436427770823639
0.0406037870612723
0.0385991439188728
0.0443585705040003
0.035102898746223
0.0406854926023753
0.039874002032126
0.0398033681098415
0.0376383295368454
0.0451590456691856
0.0432124778199825
0.0455993170554487
0.0457634135405509
0.0393814028053172
0.0408511772810663
0.0465987734165122
0.0397059700232282
0.0504449004076021
0.0347718074031846
0.0666621241250351
0.0410705707099682
0.0490905921594549
0.0461860435585798
0.0390315984968692
0.0472577482946261
0.040849677075453
0.0488134472734824
0.039784889798825
0.0528724501469135
0.0338878412141676
0.055019171352057
0.0333961174786512
0.0652650438282397
0.0430611554234002
0.0482544538086375
0.04333261885435
0.0483654007434512
0.044550438133558
0.0579272840655923
0.0426887274920318
0.0508662554688014
0.0667603506986844
0.0436049456423937
0.0554661253025938
0.0429298912769929
0.053589495218696
0.0681969923554164
0.0404655365096522
0.0578715523545785
0.043484290283517
0.0575211622692486
0.0451067656347946
0.0611310551826036
0.0548511673789078
0.0462308358153103
0.0542444580880787
0.054628676735944
0.0487252620827874
0.0699209947696431
0.0482410450152931
0.0605893051838665
0.0536071794244472
0.0636926221300033
0.0515740746906374
0.0914461153568738
0.0427580733483249
0.0770368114663813
0.0605668442323983
0.070901988911684
0.0645667232813372
0.0655851786870708
0.0666514958800325
0.0744381545200334
0.0679236180416678
0.0686735100495109
0.06484155210513
0.0846368249325944
0.072221353607085
0.0668630525942359
0.0785358727161428
0.0693234696802737
0.0795530863481586
0.0910591589921067
0.0810321756987093
0.0795859102366092
0.0776098608478641
0.0773039930616984
0.0900246894783929
0.0748146445948373
0.0845075815366014
0.0792876423525343
0.0832045248379959
0.084047834356716
0.0850987134180455
0.0920404299569689
0.081474417517012
0.0890713238588217
0.0872638990099511
0.0925503442163736
0.0957031947566455
0.106111336677209
0.100708138750523
0.0954496826026778
0.127714357445425
0.0907474070554846
0.104416748816994
0.0995765275236222
0.103672438869944
0.107150017874417
0.102168886628533
0.105500213066745
0.105230076166029
0.124810514965862
0.108602526313242
0.122722274303963
0.120899159867933
0.114998659207947
0.135045370383403
0.116087748490514
0.231765356618294
0.111266455270249
0.161728327812371
0.137284674317171
0.172107298041934
0.163351217790526
0.156469552365137
0.164075276140738
0.170467338415713
0.179253648299305
0.193614319034507
0.189091143534391
0.200828094518987
0.20547771595192
0.214343548713149
0.21063741732867
0.244832896073613
0.241014505132132
0.243651129152085
0.246833650582795
0.252383676180861
0.266893073815
0.278971288717144
0.267543074642862
0.290332700314354
0.285395930780144
0.305560406521199
0.322479097176457
0.301722297272369
0.324750349578918
0.326134471516071
0.355464607087133
0.330644651111958
0.400297737100244
0.359418252712851
0.375058202583537
0.378829856603405
0.388349609951849
0.398673294894245
0.403441502620968
0.440295232276856
0.409883745913731
0.418947701263421
0.432625591012693
0.441833092130658
0.443419687079557
0.449159267114472
0.459957798903489
0.461595773937747
0.493408822384261
0.494696531652518
0.524077286551083
0.460131195206637
0.458693399603794
0.478607439323726
0.462573202325401
0.505567175446974
0.471856286552713
0.489919744518658
0.474739043922766
0.459011318363141
0.475633509473835
0.476452847227391
0.475207359006815
0.479844334648333
0.476519208464894
0.47005851553486
0.50608627352346
0.464064596332337
0.493495225963452
0.502189471265525
0.452899568710674
0.472074285391434
0.465083494494388
0.474734321678599
0.470994920311406
0.475781295210262
0.474185232234138
0.478586038611272
0.447287448041321
0.472211557520549
0.444211604388043
0.470470812324765
0.446443716368504
0.439126546306937
0.425552093440476
0.421880490277721
0.421627645195224
0.413911277036689
0.40966071675733
0.451807101006939
0.390403468726724
0.405913294336849
0.387720248030834
0.387975226832384
0.380862182740609
0.381990720247592
0.381395350505029
0.394949319601544
0.37680044902713
0.386588436856013
0.368284512994064
0.383391716549068
0.366700753274785
0.378503273846959
0.368984118389924
0.3740933832373
0.370458223063601
0.36956772815948
0.363619926565691
0.365075009760921
0.366648008812802
0.37199616922885
0.366058462824803
0.374720818568864
0.359607878888134
0.373985237633661
0.36293462232086
0.366060765630219
0.364355297728702
0.365302231287486
0.36074513362087
0.368436487509053
0.371116695028303
0.36745029935185
0.362400450257499
0.362856026289987
0.359908954954186
0.357633063987602
0.357128396494808
0.360661861501219
0.362448653318664
0.357709544936997
0.383783529011914
0.354484677808022
0.34686215389197
0.364355502158466
0.346676556949767
0.358001029709513
0.342577127862355
0.371286850848358
0.343268114340059
0.343229733643652
0.339809742288769
0.338584978928051
0.33624195065936
0.344560137557591
0.329917554628615
0.348207208017277
0.325497845511968
0.368640538862342
0.364733603345716
0.337664934699949
0.363261251510989
0.325235494427827
0.329353742021582
0.325320408548036
0.356762075832244
0.314951603454755
0.334523726400201
0.327119573210441
0.343240840837865
0.331182431243415
0.323747228405184
0.328370477328833
0.321165873347024
0.333840634609176
0.334033791353526
0.327822202695382
0.334464071771694
0.336171647055838
0.311198330219756
0.331753513753816
0.33795410063692
0.32204785828214
0.297472234213336
0.310415098399211
0.304171593794802
0.297741476800034
0.319948323627583
0.289360567527454
0.298450272750645
0.286937661628768
0.278584392374372
0.289319531995041
0.280633537624868
0.28980084260914
0.260602888182111
0.291976734432353
0.262172806914221
0.28726069418526
0.280752203717708
0.286936241883997
0.281079496306118
0.261440777404402
0.260674059755299
0.276072053665219
0.281050263633409
0.254137974783364
0.264847419441122
0.251887676275944
0.245092889849275
0.253970503248935
0.237296951644404
0.245283243743636
0.243039201722303
0.241095782896007
0.253053064123199
0.24185292177206
0.239295657298305
0.228787340516887
0.222030907325737
0.230583131928108
0.218022171809594
0.225077208644848
0.220084088153542
0.223831108218211
0.232272976753242
0.214230607843129
0.244705608848755
0.219012515760562
0.2240028997354
0.220269656985723
0.223845153619575
0.233773453136678
0.245561026466799
0.240722849148992
0.243786723452717
0.228874824473235
0.244685987277108
0.235059960133344
0.249171904581452
0.241512548520919
0.256677761638372
0.256431690472242
0.270655813361528
0.264310073986209
0.274326253615759
0.275759992174759
0.287439169984779
0.277251045245873
0.316224158847294
0.293097498068569
0.322722855886329
0.321693192088024
0.33245147566313
0.335577187938281
0.334430833927889
0.344812154269714
0.342263227205716
0.348515185449864
0.360906295028488
0.354549553255588
0.379540635699722
0.361554432418065
0.377944368885494
0.373280392724532
0.388198810946857
0.390004652792438
0.405117846670236
0.414592256732269
0.408650103001751
0.432594447346643
0.398539941141061
0.417705040211952
0.407136101503195
0.422200479490882
0.418869486035422
0.411727929833815
0.424940764594116
0.424696173250011
0.444360178955241
0.428551593125259
0.428920530759463
0.438443270950349
0.43613275698743
0.441880210589897
0.445295405017444
0.449057664169053
0.45294781037858
0.454295046883446
0.464939390128659
0.455401611211478
0.488834243371718
0.471836326984624
0.461790075475065
0.484744753977613
0.473429359273792
0.478457556414085
0.478411684627831
0.490976483584902
0.491240253058206
0.493583941058503
0.497246620778184
0.491357666444242
0.505690958188121
0.512262752222356
0.530556071427726
0.514359334788476
0.513628727091587
0.528732017944556
0.52424863470683
0.563924929082168
0.517794330653678
0.550179789364901
0.531880392584961
0.537297101116825
0.532437489063113
0.542237972914798
0.530552692668376
0.537158359106765
0.545882889827513
0.548224161647621
0.544975669818516
0.544472144110598
0.541611481634173
0.547698771033746
0.556306346377726
0.539668482178386
0.535578723640698
0.543658864082996
0.538352867826667
0.541928729712715
0.548503588282602
0.548050883442356
0.531124161817459
0.548929378344824
0.537123605713004
0.552284000634364
0.545152504178334
0.534676343822123
0.533158589270538
0.536712260938467
0.531240501846195
0.544460704715476
0.52846952003775
0.556991280351238
0.549633780470066
0.551775434252576
0.542893344205122
0.550205579561904
0.556613765630069
0.561776515541891
0.5542736367525
0.560675554603741
0.559875934135421
0.559197444937299
0.56301778882462
0.566610491943448
0.565021829502206
0.560307902101198
0.558228124431078
0.556067926641589
0.556104547911431
0.553421857108522
0.538529891788091
0.552450754218069
0.545594325880075
0.538156214490632
0.52909655905655
0.533143979679271
0.525619073701126
0.53793549239719
0.515924047372087
0.506446739490116
0.513858690426334
0.498659144089396
0.498745313415634
0.492539678778247
0.495557854516097
0.491271453293982
0.487013208899474
0.482864243206409
0.486324929035659
0.480307699712775
0.478071111341574
0.474856573223806
0.476019778279821
0.474203644066876
0.476489085334003
0.477409155991141
0.474824803305809
0.474231315572117
0.473848675294308
0.468359932875595
0.466721863405105
0.472289598804025
0.476225270004839
0.465163296249496
0.474831479845416
0.469992068556979
0.470265028116359
0.466254681556913
0.469271114282557
0.466319033177371
0.463386257229496
0.462937616264934
0.459844942684054
0.463325499730059
0.465030832236028
0.468487750076067
0.465760396616621
0.463587371950506
0.462490736262008
0.468641555053512
0.472031109605586
0.4597817507045
0.459823259974929
0.466548756853224
0.461417564129258
0.470850070480333
0.463863009180522
0.464930573666757
0.462086332114355
0.465269818369189
0.474068273493623
0.467388322351599
0.45844495184247
0.467388213392371
0.463359196206492
0.463299821272473
0.466334032287025
0.467855762598727
0.464099801695363
0.461087134708163
0.458566840878065
0.458988955844847
0.458296336101242
0.454147912534923
0.448376081492783
0.44446075285294
0.437671295430717
0.433433862027983
0.434697155407924
0.42745142648313
0.423043908954149
0.420396494611351
0.416419475004448
0.415711070105786
0.408303812985395
0.406190571417635
0.404845147819506
0.403781627751667
0.401711231852097
0.401316246595753
0.401289300620111
0.400271233754145
0.393978880484784
0.397058346658476
0.397113001521676
0.397845388333349
0.392524099721824
0.392375528660122
0.395661088354618
0.394628655126824
0.394028732634974
0.39943389446011
0.401459984971501
0.404340715681863
0.407470638054889
0.408141566090157
0.408959712752987
0.410156790190628
0.409821870128463
0.410268184457062
0.413262013482584
0.414318381040505
0.418869638764797
0.422206224246568
0.419052073566774
0.422232651112591
0.425447673958388
0.423668125015887
0.425706152818799
0.424622794170633
0.422825175993845
0.422840109410063
0.430553712519687
0.422077244689109
0.4237833668995
0.424700707270456
0.419883910756279
0.420785911622953
0.420040613426943
0.418755014162634
0.413632789346858
0.414099947731555
0.419198332988288
0.419142839030122
0.419144201111528
0.414532511442551
0.415466164230475
0.412490494980961
0.409225752085983
0.406367075317705
0.406609630692861
0.405958368246995
0.408263792729744
0.40448414174737
0.398166402568873
0.400216508865193
0.400781346559534
0.395082311674402
0.397361179375192
0.399851427303579
0.392513224086662
0.391555224640253
0.390115922451717
0.388149903319003
0.389518842153831
0.38846276957219
0.386837897253417
0.385562799296156
0.383912137273127
0.383323144428651
0.382150531685945
0.379273142679747
0.377692128854898
0.371311128598973
0.372809426397715
0.367791755917806
0.366217019754063
0.362531271671456
0.361924436748865
0.357028426848374
0.353954170405381
0.353119070023062
0.353449495758399
0.347108575097035
0.346239271497415
0.344008677585324
0.341877121796108
0.341779198872735
0.342183242613207
0.340712257774296
0.339686625748682
0.335874660244962
0.335573566346371
0.337688013860413
0.334779965361481
0.332797204967249
0.329376430615368
0.330449077400249
0.325399085345625
0.32338291352776
0.320320588935813
0.315536039840421
0.31350369979449
0.308646060636381
0.304643834627524
0.304551015456462
0.305838391110885
0.303632746905007
0.306009405936242
0.305169195065245
0.312544982895111
0.319224991663418
0.325289061218466
0.335590026152119
0.345091157915077
0.355816511614015
0.368709111987259
0.383537779885026
0.400827427283941
0.413981129918922
0.427137131651604
0.447733312107349
0.463659482975059
0.485509897036536
0.496578707127841
0.510130795270893
0.529134425172901
0.545731534653902
0.55866269472753
0.578077832360887
0.591143286679489
0.596949636272692
0.608682278174699
0.622430719704252
0.63621534668887
0.648816248479777
0.654540858155566
0.66837476487742
0.675305508700666
0.677844235830253
0.695054214647834
0.696193154382381
0.699163716784695
0.706515092994199
0.704886760988024
0.715525138418334
0.712903226975505
0.717110682463457
0.723301447842583
0.721434409735959
0.719378754333522
0.723762663455748
0.724796571062352
0.730470844112363
0.733857178046465
0.728110573076543
0.738736377681699
0.739222810095918
0.740207923306135
0.750045286532341
0.744295958078526
0.75771502248132
0.762799377390365
0.775696401134028
0.768423626681465
0.779210786927113
0.782409190093702
0.794310734674199
0.799946599206382
0.816066254537989
0.814881648965725
0.828775959338811
0.848276018705445
0.847566924352975
0.868215782617489
0.875082727379394
0.882244485679017
0.898099155809955
0.910593562699729
0.906780403163619
0.937878560098652
0.937925474778589
0.940666209096427
0.948438225719526
0.928021755019904
0.933580177947366
0.93701987889314
0.931086548258499
0.927507123342708
0.944830499722496
0.932141836293065
0.923534699219701
0.933244918820151
0.932985530958277
0.931214716759576
0.937167601924078
0.962108587134778
0.96601687135671
0.986893541734668
1.00833229745677
0.987063395551858
1.01982386334961
1.03808654686657
1.06446231063997
1.0687982378534
1.10150173477732
1.10673437908744
1.14236755229416
1.14379392622356
1.14980268993439
1.15412877435643
1.18690549653257
1.20171840470797
1.21750322083255
1.25789109344886
1.24908619937958
1.28780463894018
1.32477180626993
1.317264843675
1.3582827666915
1.40585141731584
1.39870947869105
1.42522276593649
1.45097149917174
1.41001709766333
1.46388543646852
1.50986009914778
1.53529434650965
1.4863743099788
1.55336680119785
1.58942270130834
1.61196440212106
1.5662777980032
1.54117623967206
1.59571513194172
1.59238247588703
1.52356590084808
1.62559706832281
1.6139418625889
1.54400457207483
1.53699965918218
1.56204335320555
1.56836874918672
1.58979673516377
1.51313330948166
1.52957166797658
1.53467743326971
1.52883756440243
1.56053188299458
1.59719579927198
1.58882548857088
1.69745195909443
1.588455482357
1.59876485584125
1.6348754952132
1.60289681033171
1.75739105320744
1.74091815050964
1.64464134312754
1.70263654671719
1.78382160815294
1.69654780295946
1.72939240479812
1.76879932265574
1.74918628810212
1.70973722351844
1.76542873305715
1.75582529442009
1.90082915109168
1.81181317493821
1.80608684306626
1.77511017068469
1.74374624974865
1.79832759827972
1.73767563388442
1.75562858612478
1.71248927060583
1.92629850751388
1.77467168359976
1.74132779039345
1.73816548303202
1.64105248048019
1.70883192079702
1.78071151692679
1.76484919881675
1.68706846180719
1.70072272373195
1.67234556735434
1.60292194844778
1.6098224124871
1.5787850260758
1.58802764046673
1.50095555373735
1.56770228952793
1.45684858546939
1.34537906435956
1.31357012748938
1.24547566426871
1.21076298361182
1.19417126694348
1.12171678037754
1.07031078828382
1.03284284010368
1.01778908887368
0.973712362747407
0.98478194307988
0.940630728059958
0.923934370919155
0.919343746849374
0.937686724363788
0.901032474820824
0.921910944899368
0.874865061370296
0.886035499581261
0.875847882612705
0.848050900984507
0.847471466920566
0.845760168101442
0.814708377993134
0.817043230672371
0.802453830690653
0.770970374119278
0.754244516419476
0.727951654722912
0.714244084224824
0.677282966362272
0.656587887191468
0.631487567375905
0.606449328825754
0.580564011635706
0.558923270983454
0.53320626455952
0.503751580889588
0.477230422712709
0.450857269098865
0.436795027690311
0.410600125176069
0.391618341939423
0.363971717955964
0.354856072009686
0.344137279141943
0.323024053849014
0.311232624641534
0.301287589262528
0.290821207923293
0.285405736251777
0.276612579918626
0.271704630279276
0.262045786085597
0.2605243403005
0.262531212115109
0.254009422013387
0.252637913808204
0.258559594811007
0.254235569529217
0.254150299314325
0.253798723868149
0.260498872784741
0.255561848307569
0.257176962656451
0.255462761321495
0.265935468304989
0.267418135758942
0.26749456396117
0.26395153775465
0.265686040158039
0.265372809481544
0.263056932802174
0.26146837138468
0.261606278625779
0.257414598410407
0.252785937447145
0.24855745497429
0.248319320150227
0.245294497568862
0.242605842224771
0.241663571476657
0.24090577950706
0.244155891858816
0.238617754046274
0.239753631994921
0.239388562646423
0.249028173778185
0.249593837851504
0.252408234299084
0.257295242916914
0.253723066161259
0.258115960458568
0.257489979836741
0.261253992713187
0.265693815237318
0.272592329562433
0.271644537644568
0.270979798084583
0.277621015401331
0.285701079615043
0.285298549492163
0.28876894696341
0.290655488000464
0.292940246845961
0.283878154199391
0.293723559947242
0.297174509978683
0.304602717184802
0.301691809399204
0.306492590849242
0.302301520092344
0.302449976539616
0.316866594775097
0.325066910658357
0.322899514072779
0.33627412247491
0.339745929819315
0.358271588563662
0.365668490983892
0.376540818647677
0.384785640918492
0.393389898296425
0.400112518358998
0.414102705060005
0.416467723574807
0.428063690058601
0.410185691153266
0.422605267458349
0.418468295679488
0.40681882655499
0.396425054716312
0.389798832869323
0.390122307727099
0.385497375112032
0.375802707672702
0.371463952680953
0.359718361794507
0.364554117805977
0.364231497794155
0.354832197761524
0.370680470776668
0.365511578792885
0.360264040453888
0.368839183195762
0.361493353829878
0.36861117245595
0.361801011949898
0.34814245585451
0.351414079709333
0.342335994900361
0.337229845807946
0.337132199432378
0.331116456685783
0.33555484092642
0.323889661965418
0.313796741804875
0.312881946468437
0.309509162349832
0.313938679804714
0.307251084782899
0.309268344127024
0.31339648008692
0.291775763113201
0.297248447402752
0.294254680511619
0.289848559302796
0.295449581643572
0.290734022355182
0.286592481403379
0.285754001464976
0.27599654585196
0.276962553311847
0.284050462203215
0.274824081414989
0.27504174811288
0.286155943519654
0.272866295654765
0.274300250188603
0.262840372725287
0.263304304545598
0.260388098202247
0.257964228389451
0.253181838093944
0.263510995104916
0.255158655417915
0.261049382125057
0.248359690206693
0.249993027868391
0.249479703901371
0.261022600110595
0.246854330186098
0.254724607531764
0.25084152472162
0.249130034425846
0.246119622844606
0.237356259272921
0.254300962543026
0.258734604048708
0.244470476116712
0.255948838718164
0.259284464196354
0.268571895591008
0.252983907648691
0.249937278347285
0.251200275679895
0.260926351966274
0.264161731965441
0.264540113735635
0.275101623150041
0.267026855693773
0.262431823660994
0.278000515737595
0.265723910939222
0.269601465673381
0.282015662945352
0.279658746136597
0.281543804906988
0.290081189231042
0.298195020297035
0.298205246682157
0.300914035851489
0.30661884298551
0.309182742477862
0.326267460973013
0.323911638241853
0.338196961672354
0.31937861672256
0.348583145087884
0.364504797903286
0.359447911218514
0.372907033420957
0.417950275473119
0.412035662459478
0.416847933082072
0.437511611824435
0.438630556049722
0.465150382961625
0.489245515307278
0.468265959510497
0.503699757548305
0.490653847942392
0.536645958955247
0.517881373235068
0.53520166290854
0.50952095585376
0.518313542519315
0.519734566336164
0.495616719071592
0.495462190732488
0.517067937859886
0.489815470909983
0.540459732134201
0.495785576567711
0.489683571865127
0.473620861236852
0.479876781935975
0.463711101387291
0.47382025920553
0.489212288039936
0.500741935760486
0.477583143551891
0.47236994346995
0.436650829094166
0.447431928745373
0.447373121636366
0.446092653721139
0.438391131051157
0.451954564147866
0.427347158404412
0.442741691450349
0.393474717402938
0.437043519568648
0.422731131544429
0.402547878517018
0.409201724796081
0.440573466291744
0.403696399889342
0.388705510942429
0.401067035822928
0.441076858280133
0.395985773565101
0.419424650287036
0.40291109348766
0.394891421670259
0.436630089382724
0.43841236757284
0.401870491680226
0.434595381182891
0.402426007530928
0.426548202824993
0.418523089052978
0.458053358055567
0.423413623325325
0.417454927392869
0.407481756097097
0.444932836338819
0.450159994662667
0.45318834929414
0.406786790533235
0.445725520562466
0.410767550181597
0.471381545680212
0.45222541073344
0.49123074271146
0.473012542043706
0.503064995596118
0.454412171431973
0.449098544805504
0.516960904567191
0.46707025327114
0.440112805725272
0.504053659575229
0.443531418496582
0.514015843614054
0.488355176729632
0.518513588479491
0.491570776538225
0.542453056831731
0.518528606912709
0.580285128714463
0.52602042598067
0.611171340086083
0.631878433767248
0.667734148380103
0.577639681402863
0.715509596572397
0.553152580706796
0.584171223321613
0.606419379584571
0.681590373176051
0.60242219120386
0.633030571193223
0.594565993075538
0.623053478086028
0.585347458264282
0.583836684798627
0.580227677806951
0.708590012137168
0.557731023469333
0.57657640748983
0.538808203345855
0.588519863902632
0.554994998449981
0.648016848314562
0.546562376292958
0.620411627724162
0.521989917343577
0.464508886577777
0.489667203568182
0.637561034287092
0.488122158874182
0.504764768553289
0.676567086175501
0.515360063645321
0.491078283551377
0.453966155889459
0.526416698680251
0.695106200691968
0.555227801848344
0.548193650505278
0.659881273063252
0.690751162525331
0.461813940614286
0.604270549187155
0.679263421752454
0.596285233606082
0.568425988114735
1.53393291965185
0.478885780708597
0.636694925686098
0.514279123768996
0.575631169707007
0.588936206462764
0.63074099212833
0.745199239491765
0.813500861861679
0.410386808184205
0.707344853864733
0.62333076358607
0.617828089570317
0.689817404772945
0.371740065424628
0.532362232467321
1.49554004224873
0.342475547209973
0.430734390372075
0.435860742048087
