3596
4000.36533379555
650.420452594757
1
2
2
0.0409615382149633
0.0309829410188633
0.0374327563329907
0.0385542112020019
0.0386269203167944
0.0265532832059739
0.0335877269642694
0.0293873054795282
0.0367905228375109
0.0330253509651326
0.0365630171804483
0.0349743534601231
0.0383222722122513
0.0341508406872496
0.0390297976996964
0.0343007887083113
0.0336993396311608
0.029533027470705
0.041162549652033
0.0385490770754776
0.0367575617314194
0.0374218923217378
0.0331999361172245
0.0383399738342668
0.0317774182646647
0.0291634640633114
0.0297494219344596
0.0346603846649709
0.0326055315747012
0.0386642087619802
0.0309861335812249
0.0360343511074013
0.0356167400613586
0.0336695653912905
0.0296514578294928
0.0399667590555907
0.0425451250027664
0.0396087518552332
0.0222089698024084
0.0315542036412684
0.0281013623507497
0.0409928486408472
0.0467641036439713
0.0466371171475756
0.0304529422560803
0.0350978483182638
0.0341480584862152
0.036821731394726
0.0343022212196549
0.0302935903021372
0.0288982455556485
0.0396710689636985
0.0316211609843304
0.0250527076632181
0.0414304727897674
0.0200854694270965
0.0270041719413994
0.0353444653794422
0.0398555073611533
0.0399457785957153
0.0540878604237947
0.0206251527975825
0.032441242946133
0.0239868047405178
0.04220141004943
0.0290245046143544
0.0407690750157808
0.0375958659920652
0.0417873985526282
0.0317643856098576
0.0395799440208189
0.0443302721691505
0.0272837590272168
0.044047349475857
0.0430332271484304
0.0307628669189229
0.0402392536646967
0.0262089585514469
0.0383222668534708
0.0364931349059672
0.0352978763933113
0.0280759527792764
0.0328276956023257
0.0281901115037088
0.048140530007518
0.0197401427740803
0.033974280008678
0.036288788626254
0.0289437609807858
0.0307227564529546
0.0271545195270774
0.0222245667613687
0.0359711935071366
0.0266922720652977
0.0344336697048143
0.0276035467945582
0.0329482742857105
0.0266674851132798
0.0240324762961074
0.0395918921812233
0.0232883907138783
0.0566232965524395
-0.000811674662504955
0.0441181957534497
0.040134465800225
0.0182597632601718
0.0622383037555899
0.0154208801059206
0.0389364735986217
0.0195279973782396
0.0358702715865308
0.0214162754342443
0.0476144493757774
0.0294040205699678
0.0394773939756655
0.0421595885537571
0.0210742585574223
0.0300668472255049
0.018147628593183
0.0261692117547102
0.0285164933378574
0.0460430326864333
0.0154274240647881
0.0392020319313198
0.0250597613260286
0.0308078801171696
0.0449514523591864
0.0339100114295082
0.020953081388795
0.0269710397234865
0.0254585952230608
0.0362232855186963
0.019478175258108
0.0505900399350838
0.0174064896049211
0.0289632406156267
0.0321235468262389
0.0416840086067204
0.0724870760438348
0.0216771571969505
0.0377025898109016
0.0254632411677344
0.0292717265541967
0.0291063643560099
0.0256537789226074
0.0351645890530915
0.0308023275780184
0.0243503293236237
0.0212744224349791
0.0403810122469669
0.0219878697112883
0.0305463130788708
0.0339748119490459
0.027313634164445
0.0397521933943313
0.0675850678171118
-0.00802381050413874
0.0709378255678266
0.00347861734287815
0.0235012028279229
0.0231203696120343
0.0265437205377101
0.0340730216635218
0.0219187171123675
0.030057961792503
0.0217603943098229
0.047108097954127
0.0181791042412397
0.040637639888658
0.0320793237703685
0.0418310387816051
0.0227051245248196
0.0407857741213677
0.0278281771669049
0.0157404623141153
0.0470987815188044
0.0302807933790026
0.031028074427951
0.0252818792528636
0.0385193397106487
0.023171918074712
0.0344538668725631
0.028101073743674
0.0299773104175947
0.0340652641823479
0.0230188892089851
0.0259643148751403
0.0349841597869333
0.0265429722807663
0.042818626369765
0.0428926864327266
0.0362025249334265
0.0184658846837834
0.0365825140529387
0.0213453204219354
0.0413104025372949
0.047133389657881
0.0207691712830002
0.0299303455118676
0.0271446033334616
0.0304805912157235
0.0277193102925727
0.0314890277203934
0.0333272304044898
0.0300351089671265
0.0441131500689162
0.0378791070002795
0.00835780074709877
0.0363486742162972
0.0267491320649281
0.0351345621343815
0.0399752965014227
0.0574933236221453
0.0113683521456357
0.0433988965751525
0.0266426614252155
0.03481185140728
0.0169055634601573
0.0228412807414972
0.026740863116615
0.0367911396427018
0.0249422079025932
0.031755801684211
0.0253234374325761
0.0383920661140704
0.0220140987947564
0.0331352617015307
0.0221093855813877
0.0420633313252432
0.0346113567716526
0.0415779592109478
0.0167188856927727
0.0303545384474551
0.023839367540682
0.0338289638326359
0.0508975484664388
0.0234079153611651
0.0254719083447941
0.0313573719130985
0.0281757853445594
0.029128343678712
0.0279522261358506
0.0280271372233536
0.0312904184093969
0.0297605592594918
0.0384858761264834
0.0421303716778657
0.0256033570335865
0.0440656762855849
0.0209614493866312
0.0702701549070659
0.00874773580459023
0.0407335851097062
0.0171262722451423
0.0485699865117255
0.0209128290091706
0.0606508863407632
0.0317205662457893
0.0385376957466044
0.0210974885596719
0.0540769750692123
0.00665222238082681
0.0462486458231415
0.0234423705627716
0.0595986179429187
0.0215369655912016
0.0195522195411159
0.0553279305078718
0.0521433294015593
0.0102428804343823
0.0587970335564384
0.0182646304973165
0.070409429738488
0.0543677336833993
0.0304448915099975
0.0210651867698449
0.0532678096320406
0.0257054456905494
0.0286522150182457
0.0399083446890858
0.0304758795578272
0.051757949611457
0.0191886585472549
0.0407369866400669
0.0537820123796809
0.0256733230505615
0.076707379324548
0.0223800356189059
0.0517454859937518
0.0196522233892033
0.0470663296162707
0.0345316466171419
0.0524292736939102
0.022579906574349
0.0526059665047115
0.0118561610383737
0.0482258270382136
0.03959386211269
0.0375656057390959
0.0225222881577191
0.048455723355716
0.025735255429624
0.0448100424870956
0.0369904764618442
0.0385465850008381
0.0377171010817699
0.0396498768223766
0.055209524564224
0.0656279600959411
0.0248848164227008
0.0553403147077416
0.0316809029492596
0.0393739070777692
0.0400322567111233
0.0448028745824749
0.0344180251891668
0.0428503930732678
0.0279256292908104
0.0453427707093103
0.0486459003984479
0.0412174391337861
0.0411515452982332
0.0431072492224244
0.0339511164141878
0.0457158654043217
0.0395044276619805
0.0435251813311124
0.0413223890960587
0.044248314604742
0.0377357565135961
0.076750475328618
0.0379472147973936
0.0446088993861129
0.0741727638711087
0.0350955121578076
0.0404852291547345
0.0432479651283537
0.0472853876956787
0.0548589616097291
0.0438826626960072
0.0588770413852023
0.0506986783393591
0.0562269014922629
0.0612060637808528
0.0687502997874528
0.0503492964957149
0.0828040064953559
0.0761319883592168
0.0703883508569866
0.0401435564274891
0.0650311399302146
0.0448781109076742
0.101223895404453
0.0351630593505759
0.0879074996105237
0.041788191397772
0.0638870889568821
0.0661527800385777
0.0623614735696453
0.0623904678866427
0.0706414428748514
0.0645596222165232
0.0767592249812946
0.0709452097907569
0.0738372695426029
0.0757176537958788
0.0761445553292995
0.0966519796000428
0.0916537793914836
0.0682934535991397
0.0842703937503932
0.0728003151664397
0.0916165721059263
0.113376105638573
0.0918311328187304
0.113820672275448
0.0847602589714963
0.0930471226157862
0.094629352096154
0.0792331507427517
0.102587625500664
0.0796184954423187
0.112911335636887
0.0895355134272946
0.108176269048154
0.112796858795251
0.103256639875534
0.0966808981949795
0.118340275299807
0.0979418340088346
0.119530874273809
0.101030966139523
0.130973930208915
0.104430306269252
0.141312703718446
0.119314504593778
0.163149315636815
0.102488569989509
0.153521489401675
0.101782907157797
0.145386333198151
0.115781850489293
0.144161784471269
0.131580929269666
0.1410723389921
0.140944379965346
0.156736533437999
0.152686190838271
0.154752706735993
0.143884761236938
0.151566547306125
0.140053674392939
0.177258364087658
0.145327055590105
0.183721000170022
0.145243168607438
0.182070878342196
0.157592812967508
0.206377540002601
0.161698772911457
0.198172480464639
0.176543897700378
0.171415541251372
0.172795123069186
0.197023824808452
0.185764051818664
0.203703829450126
0.191711743304491
0.203099521263621
0.188795534795719
0.214371891465379
0.191242645545588
0.225834930390943
0.223867196400596
0.225126188985984
0.204877079996955
0.216829085817288
0.193311681483891
0.230816231866309
0.213762252023563
0.267646739236671
0.21511083205605
0.239161472194652
0.217511536162835
0.244433275130077
0.235803998838435
0.246307104272079
0.238343817197956
0.263091387143132
0.244718213207937
0.256980398804371
0.266080217652566
0.273302743860334
0.251666958746641
0.281048889797076
0.262306138561282
0.289548976858447
0.268709240551443
0.292195344212714
0.265672649253921
0.305636675935224
0.288024243649039
0.34170707323424
0.286598644861935
0.34543593137939
0.296970841999831
0.316905869218733
0.308768084873545
0.315691094904552
0.307304793235449
0.321456088544896
0.307390749555686
0.320402932832344
0.339053182609564
0.354572836790936
0.310892623391067
0.355525033209252
0.349005482392319
0.374036033479061
0.351306989672742
0.396733627603916
0.337051100653759
0.362613101858741
0.361901075604375
0.388421748369705
0.356013735760346
0.359889197142557
0.362621290099041
0.423183918340625
0.390371646183656
0.410209993295878
0.379290555111489
0.421081822846194
0.37866083706661
0.406347590760076
0.405223928252514
0.453443282650519
0.410981251222173
0.445446718772354
0.420990479026984
0.435097903921821
0.427862196121555
0.498346927524245
0.431154693878631
0.478667403464389
0.440481581153926
0.456471829213592
0.443576987691187
0.460624614784371
0.457262269526043
0.472660010845111
0.474543988240091
0.483309217652739
0.469535682454188
0.538012009568655
0.437209933552895
0.519827197491581
0.491954288781821
0.515392932387465
0.508502859312268
0.526971789025066
0.499215295133077
0.55219615969918
0.516216228595967
0.523737618575167
0.514555431220524
0.580878007893129
0.500389468964666
0.556956367895406
0.520342242167981
0.561732858675707
0.527132633121979
0.583139972919499
0.526943272476135
0.577908556504732
0.538644452761439
0.58868248546717
0.581723674234984
0.589111704210591
0.567387352863053
0.632770967594526
0.577662455556812
0.623514376885705
0.57619793123414
0.62836211736049
0.608087328084681
0.631855035295848
0.570746848805086
0.660439669539214
0.61296728827489
0.659054013591992
0.623824719902892
0.677362965074089
0.642486538774488
0.652128404067429
0.629364528704154
0.684848063127549
0.635027784297185
0.744570181790093
0.659398563090483
0.749146452947704
0.673142329748983
0.682836358845292
0.653254331309434
0.726571771173383
0.693816237882309
0.753128438492814
0.677127194691799
0.680565305396674
0.687414531531605
0.766014472164114
0.684077105694063
0.729391138749546
0.743808352255089
0.746613634376422
0.695483399395606
0.747049452056256
0.706386858694984
0.809174943727149
0.770585852220478
0.756444448301454
0.748505948350403
0.79674459687892
0.765040646824161
0.827419364907491
0.746411250127625
0.816230953345029
0.802195684885353
0.850413837213879
0.73735817621816
0.805770639765278
0.832054323542494
0.860598051156609
0.772823586685701
0.912669333097687
0.855972563197984
0.837861814889913
0.780156414465919
0.85236005431586
0.795798767634369
0.888749687062893
0.827534992669661
0.879374629694861
0.840406701589073
0.910001005929907
0.8053467522681
0.875000002816138
0.83144320927048
0.872867920098902
0.820750618749267
0.848453838645746
0.853524986213157
0.944219734813471
0.890280530146208
0.909689819620537
0.886472249193019
0.979595728964277
0.858206149877819
0.978921341835801
0.890340662978231
0.901643963041571
0.895405690867761
0.951379569731446
0.895426605373433
1.01033031702601
0.922370003274973
0.963763452938323
0.89284169370219
0.94404243355021
0.897882457586948
0.946132356927326
0.947499518645223
0.956514604810829
0.912131301430832
1.01554425461036
0.930925600009033
0.968298622092568
0.906733945417808
0.952709986872011
0.941184888121537
0.968052626862487
0.885910102430627
1.01459348388669
0.932535058533267
0.970173973043237
1.02304245192328
1.07303648719099
0.934827036545699
0.977063694875552
1.03091274827138
0.969875027469965
0.93656807869519
1.05535841366384
1.02886896308986
1.05437072465902
0.993937378594484
0.998360476794175
0.938104956891332
1.04754852089626
1.023335633865
1.00886070565694
0.996730055034183
1.09024029304342
1.02930590796452
1.12087201513407
1.03076292837108
1.12053022424512
1.02467222719374
1.11569938759733
1.03316877299883
1.03578812521742
1.03202463615242
1.04927723625327
1.00673285070478
1.10915192364026
1.05818110190699
1.06458569557432
0.985776753187162
1.05403388837313
1.10603565305662
1.14854945767511
1.17257752395324
1.16624558829761
1.09929398623117
1.08116506770321
1.03805309311085
1.08872783167438
1.08075298423284
1.12987525339717
1.11677361157909
1.06260578048682
1.02981827635035
1.12438613944026
1.0367390849892
1.09363008837102
1.0703072892428
1.13407318563585
1.06045088892603
1.17145003455441
1.1095237185201
1.13438339350269
1.02979570342991
1.06116566742646
1.09262959522494
1.13235404066209
1.0657233378275
1.08213957338587
1.09267777408393
1.10511428184493
1.11678164400086
1.08515168257411
1.10993569632504
1.13381306666734
1.06414256449311
1.21142021950633
1.08611467196407
1.10319378378589
1.11901459983926
1.09544991021548
1.09393012564606
1.19696418059943
1.12391571246389
1.07505917449611
1.06918542434603
1.16547954505003
1.08201310235908
1.13676114777206
1.18395801999847
1.15360814601128
1.09300088906004
1.11711302927398
1.12603590068982
1.11103236533521
1.03251640166757
1.05035566661724
1.14821746707793
1.19541288473497
1.11132441556492
1.13009900673584
1.09616827754785
1.15018424969232
1.10219052799361
1.13297838101122
1.10978054916702
1.04037901892962
1.09465011779738
1.16502461336804
1.0496092493729
1.09394091449982
1.15460455178404
1.15584090132392
1.12871153509124
1.18364557685048
1.10194009127995
1.07486869700916
1.1201019315065
1.22936252842416
1.08260819231563
1.11242510272805
1.11665725836217
1.05527406707906
1.12984218149538
1.24126389617481
1.1714284866879
1.18730925375174
1.14170173845445
1.15122875617085
1.11886558964375
1.1012091345599
1.08798320564638
1.0828841661876
1.09953191146747
1.1668003040468
1.14306065122161
1.15245101045232
1.08512766172092
1.07936083927075
1.09676616665271
1.1362052377088
1.07908441108027
1.10050407291325
1.11089964000985
1.08697534077459
1.07588087081818
1.06909336441394
1.07648088441694
1.09874108592494
1.0755529549828
1.10925979273393
1.09403971692577
1.11214207369269
1.06742968324889
1.06069173161639
1.05111131598085
1.0669763982085
1.07644474289133
1.09712316668943
1.09045528391105
1.04679097747268
1.03774079056278
1.09233005450008
1.06312219387429
1.09061033294064
1.09716399212879
1.11364407382267
1.11415820918885
1.04306606396189
1.05897984967647
1.08444843445315
1.06944232891997
1.10761903843012
1.02940069570937
1.03492047442933
1.0226197392152
1.05231679334863
1.07761657586654
1.0570390171405
1.03408187946541
1.04856773149206
1.05857961297892
1.01212239962022
0.969526168124493
0.999603154176136
1.03303256877899
1.02728082953632
1.03506143199331
1.0238978330292
1.01617916737335
1.04883344141055
1.02216698406606
1.03004690529842
1.0391222495167
1.01667960233505
1.00045918695097
1.01350824298901
0.967762349028883
0.961043008436993
0.990185351184553
1.0049082162084
0.992794910888784
1.00264727855651
1.00507419771982
0.994784067131223
0.971774312351699
0.967533123260864
0.972320109210187
0.956999070275344
0.971412674037959
0.999177061590286
0.946495344324006
0.926649925928717
0.954661533661004
0.957237693402069
0.966567921916052
0.954624332179218
0.924596140062477
0.933526153698294
0.94104564553506
0.939997867852163
0.903782474058345
0.887219009697511
0.900488706599555
0.915788824679949
0.915275181759742
0.912897582424746
0.91118744212713
0.92036133545185
0.921701921272023
0.898568321238107
0.888109656889116
0.88607081336767
0.879306755715591
0.865007289708538
0.873115414097073
0.860031595995594
0.865704545702699
0.863305669630059
0.870513437013462
0.869479213134321
0.863602373853359
0.846796936121349
0.871668552819833
0.85221378701303
0.838440602206935
0.856691315894724
0.844500572121088
0.833037480450015
0.83250489114581
0.815724358262295
0.835280345212372
0.838423676037186
0.82289844762105
0.791472289677547
0.823537632104079
0.822310042173784
0.80717139773874
0.814561302158616
0.809622206101556
0.785322599185768
0.800539698382691
0.801355273192905
0.784749876593073
0.766373190968301
0.799187157875672
0.77880718990682
0.764481818978754
0.760422052864924
0.762125639735229
0.786023240720548
0.760575252425718
0.74775606982204
0.769778633524728
0.764059942793919
0.739652616912503
0.735954098522414
0.745240190468606
0.729799058584967
0.751360698188979
0.721350930080747
0.720052197438101
0.711528329885418
0.702486733570015
0.717933447055018
0.71269221975665
0.72591209932717
0.714560238151162
0.683300444936679
0.696925606052514
0.69740610281902
0.686811279284443
0.682371839554233
0.683684453137768
0.663294818538482
0.675284569491194
0.656256209562202
0.658637788126987
0.680369918698301
0.693685007551627
0.656121736827754
0.658175082240045
0.647980545699714
0.646850131716975
0.633028932679732
0.645732342228027
0.647297598529264
0.638602652271764
0.633638402932181
0.633579463326741
0.618726275956376
0.625707828092548
0.616222489327847
0.623023362715322
0.622898281170043
0.620621134630428
0.61265296710529
0.609881407215748
0.600044717296238
0.607574717789737
0.624992133651783
0.601163541826478
0.592189422451176
0.589900192982123
0.581778967171106
0.584392483911944
0.578524327771993
0.577056277683884
0.584092313589926
0.602207109789921
0.573809706332347
0.579755168777975
0.56777790315843
0.557320264150854
0.572605468366573
0.570974870112678
0.549817340908251
0.550893443468721
0.547896446588492
0.55266082331916
0.556191075868267
0.547189863293732
0.536495597236712
0.542167699842345
0.529542252733202
0.534979640359691
0.53286426533415
0.527701418953774
0.532932084809793
0.529616431728753
0.515629326316542
0.526134382802949
0.513265880600886
0.51010351969214
0.505133484680647
0.51105018845286
0.515319109773646
0.506032239612634
0.498691472849012
0.512032947318911
0.493478083648257
0.503552389667598
0.491394386436397
0.501661534719624
0.482689198126112
0.502931256934798
0.493864899130263
0.479653024346002
0.474752634583729
0.487909305992202
0.487128451637634
0.473625718989574
0.476329713465085
0.478421283112268
0.472291829471401
0.465108792696317
0.4519531078699
0.464743590157057
0.463647886360103
0.470985223671553
0.454179750667636
0.45335115839412
0.458179785143159
0.448049828309414
0.443488501615227
0.441532355532642
0.438344099521959
0.449122851831191
0.43674711498063
0.431317673618027
0.437669454424045
0.42938878464902
0.440003607351953
0.429224826376245
0.420829496411204
0.427668744580453
0.413947993693054
0.427464495680106
0.418310491764254
0.433284494299578
0.41720171073698
0.418973592252061
0.419859032671787
0.411255537586099
0.407673192384101
0.413613419406803
0.402459718342909
0.406941990602481
0.402524282049954
0.396486627698654
0.400185889149544
0.39079820861724
0.392267761625638
0.399073565420101
0.38972605070459
0.392346329365007
0.390339218052335
0.392342278631351
0.387286070282279
0.382454702343836
0.390106843259368
0.390211529492639
0.371206366955531
0.378465955186667
0.377004846484419
0.374907576917523
0.371063913239856
0.370057324050531
0.372539445084566
0.379038013981547
0.36934542826026
0.376961578712566
0.36810619982072
0.371989145582742
0.366123562728564
0.377235219066382
0.366154700795162
0.369436569133512
0.362056258048605
0.370611628337382
0.354010758103006
0.373634304628921
0.364444393606908
0.36292635370186
0.355112256149432
0.367973969716232
0.363434550180763
0.373745304713946
0.363829100777721
0.367785798054948
0.370105026460671
0.368922361812902
0.370486256939517
0.382614164204823
0.372239583155078
0.371129396648103
0.367237490027609
0.380205256544181
0.371428958617849
0.380601295634196
0.379684130400558
0.379359910262946
0.375478518802371
0.391313696712671
0.374798413088063
0.39518917880022
0.374925932579402
0.388661223982471
0.400369348866177
0.404890144801112
0.385916464542518
0.396553066037166
0.403977275268196
0.410079793742296
0.39100860065564
0.400202264051989
0.395627209521359
0.409649611731351
0.400273901371662
0.4205780924589
0.42076521510188
0.422203529794705
0.411359403497032
0.414211792450248
0.414854632543703
0.420511184022206
0.417736560314638
0.42866030671856
0.424958295070667
0.433872600636024
0.42872271507545
0.437492238033921
0.431265021058731
0.442874959023266
0.439702072313313
0.449022923283323
0.449099906626676
0.460359866801116
0.446656342261789
0.456248080857706
0.457700263035361
0.467750422193286
0.459216826472989
0.469264737750788
0.473812472862882
0.469792427464311
0.470828077691863
0.48454013852198
0.472382844370063
0.476277900901722
0.477688429862825
0.485971394430539
0.472908793192103
0.471273621155555
0.471084706575594
0.485050622989073
0.474628747333589
0.494892321838658
0.480315798048493
0.491216173573872
0.474098056612717
0.483396829144876
0.480889722847499
0.486355743522807
0.48015596707687
0.485118333616292
0.477362487815079
0.481121692176124
0.477321894391061
0.490447374213879
0.470133436689472
0.481064906792856
0.466529327617354
0.475591449294176
0.470659215333417
0.472954210348452
0.473029832576406
0.481818604493014
0.48394298315742
0.486496669317917
0.466853624188918
0.485100000503874
0.476174668513698
0.487046572331556
0.475717619924701
0.484773540158665
0.467499277289946
0.487874889563816
0.471677914592517
0.47935783415784
0.473359715532889
0.48896219628543
0.486740518360268
0.486338515079288
0.478094172557502
0.48776173696189
0.484194154073257
0.487731085282143
0.461884868930519
0.487255959737463
0.472774158446676
0.469856590691086
0.486156129726537
0.46840288788335
0.459891110868644
0.473299969406876
0.462086119897191
0.475261325932097
0.46167308213556
0.48294692569089
0.470960029792357
0.4684837646755
0.45638211072766
0.473226960595029
0.448056817176279
0.464759035552258
0.447795684291335
0.459020620084724
0.439232435139253
0.458385704996906
0.448320551781293
0.446448970465665
0.440594034424714
0.44958386243644
0.430339781849486
0.436933094977373
0.427596773719315
0.445020643684725
0.4223842445318
0.423717682053821
0.424995221929179
0.418513309476714
0.409547924532295
0.40715443657452
0.400491099527452
0.398326909185554
0.389045224495167
0.4097621840784
0.39112645271279
0.395579676951267
0.391783695085261
0.39451319922759
0.377185646478643
0.388978404099799
0.364848503287285
0.386638564131486
0.367893782172701
0.376298881071241
0.357105601045938
0.377427626296531
0.356648106577814
0.36933942731258
0.364338534836057
0.36828683100804
0.351215096360972
0.358872533173643
0.350691768367532
0.366264964722472
0.348309462751419
0.348284809648889
0.340358955341649
0.353048200575274
0.33689536369544
0.337661134793683
0.343664434764499
0.346893795417925
0.333270619602181
0.343869124850228
0.334586503611607
0.332269427540256
0.333212190360667
0.333989953530778
0.332994360388957
0.334257095809305
0.327275590476089
0.329659049113462
0.327177763866984
0.327821680329378
0.315923412097834
0.331005608682444
0.317462184865443
0.323714833192434
0.311662866668409
0.322879044156993
0.319532287575862
0.327505492800364
0.312300395876725
0.322630449251539
0.315369462104287
0.314524914005299
0.312327025575468
0.318158437393314
0.308715238488009
0.309228024957508
0.303154440773959
0.315165020228588
0.305594640972767
0.304228580716338
0.302022167900209
0.310858809771474
0.299692642996922
0.308266947413473
0.300508294021211
0.312132292718443
0.296270112296578
0.30280450814907
0.293161367829356
0.308028647661726
0.298131837936439
0.299730404330068
0.292728873179422
0.295293544362162
0.284397122381484
0.296262633664939
0.294552255373373
0.293890413592615
0.290127068418093
0.300095645902498
0.284391631335042
0.294913820079802
0.287071960047605
0.288541835893778
0.284265694705897
0.289663010550628
0.280769235776289
0.293210462783233
0.284629962781071
0.280091205408844
0.27580622058891
0.294646621776053
0.277942597876457
0.291828019647597
0.277900690980271
0.287879320011724
0.27766975193344
0.286597336075521
0.278100816200707
0.285814366374475
0.269637594783715
0.283272296259726
0.275444676888488
0.282889679385221
0.278373659216961
0.275414277593831
0.269944390281464
0.281606890531789
0.269260920895969
0.27465242849851
0.270890267326787
0.281821970697559
0.271937046619486
0.276859266795366
0.268969482827719
0.281247206740773
0.272599773266874
0.281319273733269
0.269016034626113
0.2759829320752
0.26926517571952
0.270506099125545
0.272650459264948
0.273552367876862
0.268159116000298
0.272583602857251
0.269639741490073
0.270755990114806
0.268057791197587
0.276740058662332
0.261480177173673
0.272577134424856
0.262198954394866
0.275366922315378
0.262599331691901
0.270323385538248
0.263256850765164
0.264082933781561
0.26033012471648
0.269584884335993
0.258453864027159
0.26706655128236
0.25548755425339
0.266285355253882
0.264034630861541
0.26766099751145
0.260356062196545
0.26824072203075
0.258817018689805
0.259908830176305
0.259770194535942
0.269973499514679
0.259888949191036
0.262207637693081
0.252641817261639
0.263506557498546
0.258965384199672
0.256621082237477
0.254272528921909
0.253928758541156
0.254980477240607
0.262894091235538
0.248849016021519
0.256953057050111
0.247164091299779
0.254766832750156
0.25304934896278
0.253067903692107
0.249123270586454
0.254162931725584
0.250960157109413
0.257268954003296
0.24964040555265
0.256807940031727
0.245285986299499
0.249885796767279
0.248165647519818
0.251873186619494
0.243828146495787
0.251142217872444
0.244262441068735
0.250988545384234
0.241173879811765
0.248002849819782
0.245438766211719
0.247908922967556
0.240685094838192
0.246872922924412
0.23409790477319
0.247975972029374
0.237161998463444
0.242782734965061
0.235459748278916
0.242342023160143
0.237345040211014
0.242551695565891
0.234769823672404
0.23969242280288
0.232084477468405
0.241168946630173
0.232913248942892
0.235524756328595
0.231344599658939
0.235741874720199
0.224502009011254
0.233500451980176
0.223364015733105
0.23387382728403
0.223777823230108
0.232891724942883
0.228669564273058
0.229633709178944
0.226053653952207
0.227313983216439
0.225395865608605
0.22294996060611
0.217952707132277
0.226224484979946
0.220665970699689
0.227509735554027
0.219474090690763
0.227237611600892
0.214354681256876
0.218657663467722
0.214174375336148
0.221675494218516
0.214594421467607
0.21717576893405
0.212541011562501
0.217436801648908
0.212784348944012
0.218933339263011
0.20933230997675
0.216619957506867
0.207354571494568
0.214271751668097
0.210615585655002
0.211749083346175
0.210257976871278
0.214296508358346
0.208879052728812
0.214329718834723
0.207987811837549
0.206576968603336
0.204382884250664
0.212641690480465
0.203272343524501
0.204755798747514
0.202604156245203
0.208304258137227
0.200431216899462
0.206981525642623
0.20247406978021
0.204930492676677
0.198139606260504
0.198991385915857
0.193397799037082
0.199983861491451
0.195842637646435
0.199373153597523
0.194974591998746
0.199812184679393
0.194647618002878
0.199784263176497
0.193374456701856
0.196129377513823
0.187626112288355
0.198352359786591
0.190504516821723
0.195711115319973
0.192488637436555
0.194483966906961
0.190525785991542
0.193142532726762
0.186336508865
0.19233174310381
0.186268352380524
0.194006602420482
0.186982547669507
0.188911162042521
0.189595091633106
0.190600595821683
0.185390891183846
0.188612056038167
0.181990529153109
0.180548966008616
0.181407430457293
0.186761728299603
0.177438739908798
0.187076588221402
0.18022670550914
0.18693895153858
0.176638363208311
0.182633605004599
0.180352362401318
0.188312463193347
0.1778571211063
0.183448472801117
0.180594973339812
0.182029228956021
0.177855888470347
0.187241690170514
0.176020010519399
0.184905713353925
0.177735601386338
0.1814145007818
0.177552827834937
0.179794481531139
0.176950895498359
0.180104852827143
0.177772232919337
0.179619094801093
0.172268568804611
0.177963797179095
0.174962137162605
0.179585214867988
0.170385369197039
0.178935822751472
0.172042046373179
0.176834955730095
0.167342731382242
0.176009120605594
0.173281102743468
0.177180511299174
0.168169399146893
0.177351550677125
0.166027828798648
0.172036397970044
0.167915955787588
0.172761845813745
0.172658706984549
0.174353235329541
0.166411914391413
0.173318731861848
0.168189529804991
0.174623758395814
0.163777932148784
0.171176586582862
0.165432614249984
0.16968297587759
0.164237925447564
0.169396092325489
0.166545738288688
0.169220595146943
0.168704928829027
0.170862125992978
0.162002085143132
0.161705182022779
0.165134763558342
0.169227475496596
0.16425980156711
0.16798943165036
0.16143908250661
0.16468122234282
0.161363001976876
0.167023979441706
0.162019218404821
0.166554337876357
0.156398830531593
0.16479562113192
0.165206468724938
0.166868320106678
0.158986439784983
0.162884372086893
0.159340471008615
0.160531609461258
0.156887780044901
0.161562167745339
0.157115863654308
0.165076469095999
0.16071087334321
0.162101222763554
0.154209941320523
0.159530843028147
0.155935775546503
0.158285682691245
0.157105580370992
0.160570788317276
0.152604778354254
0.157135779252824
0.153644175970513
0.155177255704255
0.149735207024426
0.157622195874474
0.151675308264452
0.155791245442365
0.154091012380793
0.15436002960466
0.151967945247692
0.154425253308537
0.148673775356965
0.152157541392331
0.148226784926156
0.153121475209471
0.147463213676894
0.149515068148599
0.146692699529167
0.148935026618056
0.143604094604807
0.14790682975353
0.142173684465504
0.145555851404041
0.139587316262528
0.145339526977961
0.141405823789567
0.144767335582371
0.141361730865442
0.145640879075956
0.140321399828572
0.144164188034847
0.141259785427493
0.141270208822272
0.140646890787972
0.145848254102259
0.140043607184593
0.141375215997166
0.138390992791451
0.141817972319833
0.136499144211118
0.140582280442623
0.137329841140657
0.136081925728293
0.136208403098851
0.142871736304555
0.133972367644499
0.137207186610537
0.134878854196219
0.135971678924632
0.133211951018849
0.138578694291762
0.132316608239368
0.131688732857663
0.130743728585566
0.136124927734919
0.128966784491045
0.131744913525009
0.130621231580852
0.132317022866734
0.127960568193604
0.130445194666324
0.129823402986981
0.130837071218292
0.127099430942726
0.132428777555885
0.127269455029575
0.125204168043057
0.122838364964606
0.127578921522889
0.126439851160869
0.129687307951157
0.123602859553354
0.126128066732965
0.122547847931169
0.119638062041333
0.120752685352369
0.127775478155788
0.11887514373815
0.124826753854192
0.120724494575032
0.122561871332246
0.117837117492687
0.122189532001903
0.119050328147854
0.122770621493569
0.116677797369925
0.116862111739456
0.116902135233794
0.120392557638918
0.115074236285622
0.11832376577133
0.115539630047974
0.117440275906612
0.113625411247635
0.117329429651339
0.114168497699212
0.115572944895536
0.114208774097179
0.1164836591226
0.116895525843229
0.118060837203127
0.111401716067127
0.11426209604673
0.110846508449745
0.116484780987722
0.112149556224888
0.113376568335935
0.107073277198801
0.112395145833373
0.108406254012193
0.114601245764141
0.110956867917716
0.110575980455889
0.104585915588123
0.111757680593764
0.107004306421831
0.111447918026473
0.109411654963883
0.111303555863829
0.109282573712325
0.112212485650899
0.111469639584145
0.109645252481618
0.105511255198043
0.108072804717785
0.106844755625421
0.110043251945689
0.102217772084764
0.107202551969414
0.103945281725285
0.107689702270052
0.101238483216722
0.104983508647015
0.098596216931209
0.109285565566267
0.104847402792444
0.112082862575344
0.102361256952679
0.102990571511421
0.096824473705837
0.102063417579757
0.0979921343166389
0.103160403700188
0.105144066651102
0.106338883925768
0.100916210878831
0.109384135313156
0.0944563152844249
0.103630444849538
0.0972464915010875
0.105586790549464
0.0982769535432496
0.095595142749525
0.104130466798741
0.105809368665243
0.0976690961319058
0.103946468045729
0.102168111235795
0.0995570432168179
0.0968400606250382
0.106571789359382
0.0985982985476086
0.104129814338437
0.103345172924075
0.100720955236593
0.0995880727725105
0.0948151051500298
0.0978807184630769
0.0972577287055997
0.0988217624557287
0.0892768857697927
0.0994007656958895
0.0943141334646557
0.109233328701186
0.0932874061708103
0.107376402617196
0.0777034008272389
0.102200453081992
0.0840121152289111
0.11982466949618
0.08329583728439
0.111100167814812
0.0629292159414714
0.122205247045068
0.0763328817458456
0.121781816872913
0.0588886352247876
0.123420748206967
0.0749808916908021
0.119766792557768
0.0707750932127857
0.110892539094223
0.0818646605641243
0.100142054641565
0.092426432078425
0.094800694871291
0.0996223748194607
0.0858933986270592
0.100705709899152
0.0867924569445727
0.101619170193546
0.0895266904501078
0.0980073571803751
0.0916154337562687
0.0960754923385586
0.0943107618397885
0.0935275649063488
0.0945602744172797
0.0900975378526226
0.0928862839870189
0.0916587392087001
0.0930917762561733
0.093333795474118
0.0931193808736213
0.0990854892712937
0.0907918530445341
0.0926930029039179
0.0933507065542967
0.0939465100456877
0.0939802218122212
0.0906772261567257
0.0936089866337028
0.0923948222444356
0.0890105466509312
0.0942280090773999
0.0909646853496371
0.0921198671867809
0.0901966554251096
0.0937240034237314
0.0944385144215482
0.0930159820216026
0.0942553157529311
0.0911954276926178
0.0906018046674702
0.0896608468019438
0.089824358794985
0.089994306841153
0.0900804390182358
0.0931212391418546
0.0930053481337049
0.0923707025986846
0.0905415023365655
0.0925293550973249
0.0908373298172388
0.0924483900618909
0.093362560019019
0.091471893234713
0.0887089112532877
0.0924058646055108
0.0902772309491199
0.0903542360794561
0.0890011826181197
0.092268690885595
0.0929979496054439
0.0920239222255852
0.0895498717524257
0.0927997553720864
0.0917730531652909
0.09376037625788
0.0907831383754872
0.0935336146232094
0.0896534992388844
0.0937593257150456
0.089599646376832
0.0926904636379905
0.0917966176451476
0.0937516716387089
0.090089326838138
0.0928354531566991
0.0918541099718483
0.0927492418937964
0.0883958089828699
0.0909557554664198
0.0899815221399801
0.0930523066037865
0.090922779053417
0.0889184883484663
0.0907407297292797
0.0952926504020733
0.0903084466692291
0.0928913312985166
0.087192735735097
0.0922184414972831
0.0915548912393552
0.0922241150353089
0.0946342825031204
0.0961376225117105
0.0944201342906755
0.0939878039091193
0.0911136126796872
0.0953642288273111
0.091164135139302
0.0923443056360635
0.0923470523409098
0.093929218219475
0.0937331704986738
0.0900611464053572
0.0919563993486644
0.0917593570765551
0.0917371990586857
0.0945412055052865
0.0901109577060559
0.0940149582805933
0.0936226536581058
0.0925359577261586
0.0913963657394419
0.0958075735640308
0.0919451836934269
0.0934209049000187
0.0936432060315538
0.0928932084594032
0.0927070808353796
0.0968276628686894
0.0926612923779448
0.094534269831149
0.0900199100822726
0.0926373509116716
0.0937427915799602
0.0947284874794076
0.0954443326505195
0.0952056957146591
0.0955117148659301
0.0964627300209453
0.0946326282465705
0.0952874555640022
0.0969088108738618
0.0970782733802972
0.0977194417054694
0.0963283970562405
0.0959125746872269
0.0988457251980983
0.0937855048907741
0.0972361198208822
0.0957761926073171
0.0955825823197666
0.0958535636115818
0.0963823767448215
0.0940488456993004
0.0969042768428292
0.0942159380205605
0.093230872775562
0.0974861065292583
0.0971335219242381
0.0925986412033587
0.0965921335020091
0.0963128799769054
0.0980544460232149
0.0989479274826191
0.0963165782407044
0.0956232878476366
0.100397665338536
0.0962223861559959
0.0982038743283077
0.0972985731828121
0.0977083282734688
0.0960551256079124
0.0988167366504776
0.0963988009326013
0.0991834023834865
0.0964850472111153
0.0991199670507845
0.0993626228552983
0.101031806201869
0.0980740057044553
0.0990237647579182
0.0995493782278807
0.0975555674926242
0.0949170329159874
0.0989785674481077
0.10211137361848
0.0990936681977636
0.0961896022537425
0.0997986058493233
0.0997341024420549
0.100534487737078
0.0992634473495925
0.0977306940460754
0.0986100476344611
0.102252842191098
0.098371046189664
0.0962432866437982
0.0969857020684922
0.0963288219930396
0.0962353282509678
0.0974086007083711
0.0949400403323889
0.097777508738214
0.094971168280677
0.0937103392062147
0.098600869420674
0.095947664555654
0.094947738754852
0.0954685956522819
0.0926631945748303
0.0978865283881285
0.0954510907162359
0.0960841505103588
0.0957146327796534
0.0961369850069903
0.0939428673418619
0.0935426506196694
0.0914001820314517
0.0946574379941234
0.0940340132418188
0.0951659367903744
0.0944692033801498
0.0954274298124209
0.0933418084166797
0.0927879692027852
0.0972760083149409
0.0942353649028
0.0930772158891366
0.0944372892440562
0.0983687982972895
0.0930417598220683
0.0932799257681969
0.0921725549771439
0.0879004329722616
0.0920505300435372
0.0915273066252611
0.0932037645836538
0.0926331293454907
0.0917335249255415
0.0909626903659353
0.0895960446955082
0.0906363520305456
0.0947409589579663
0.0925654606421507
0.091260174067732
0.0901960232740786
0.0907467483826957
0.0914926115362503
0.0914591088633747
0.0917650237265562
0.0907399560001613
0.0930504974198649
0.0906712657142514
0.0880856514913525
0.0915578977989916
0.0907715118904407
0.0923625124555821
0.0876540913921188
0.0908327908663163
0.088659886410484
0.0918928590953721
0.0887937917199498
0.0888471113478277
0.0907522512309195
0.0897851990860205
0.0907427704797482
0.0889418606485045
0.0899090885073562
0.0904083290061237
0.0882731205553663
0.0887047518637033
0.0891535408145859
0.0876713624084813
0.0869434283667847
0.0888490978419561
0.0864699371394485
0.0901292517232274
0.0903740406795643
0.090994850336879
0.0907183220329753
0.0901318694733587
0.0885482245818898
0.0867882363078828
0.0875054827385141
0.0869356807977431
0.0879023660344198
0.0855190670809301
0.0872590021720034
0.0888836487235039
0.0868871706927566
0.0858570665268116
0.0888464533798747
0.0842358182080776
0.08544586803135
0.0855082160430997
0.0842431597679041
0.0860770540110044
0.0855761426886055
0.0843482488675056
0.08460068400361
0.0839945623313322
0.0845806006368875
0.0863360563817938
0.0836719898700073
0.0861752782443046
0.0845080616752178
0.0843999577986808
0.0830886827409035
0.0837922442241867
0.0867037726901822
0.0825080713357504
0.0824283296335628
0.0827551914963767
0.0803839392505933
0.0802973360453599
0.0817178722341627
0.082994582060033
0.0815384062885612
0.0814433259473484
0.0791926705489598
0.0803094735176345
0.0759543827839884
0.0809859824847215
0.081337615779446
0.077518935457387
0.0756388023724988
0.0834393725899283
0.0785210309865325
0.0809995383428783
0.0795105007558391
0.0783879437140952
0.076448499887249
0.0766714511707195
0.0758412006295638
0.0778577476450254
0.0770110885572224
0.0756681243718929
0.0768498352134863
0.0742202993703301
0.0741685531906911
0.0763215579889025
0.0766367521282418
0.0734598761726126
0.071258386420994
0.0746885861798012
0.0744139082999432
0.0726984507383008
0.0734035830256831
0.0725496131237338
0.0737930111162511
0.0737778333126219
0.0722190286738053
0.0716305842668866
0.071790033065806
0.0734038518066038
0.076726256193138
0.0662160407326908
0.0740951370379462
0.069611751631637
0.0715131511078328
0.0691963329483531
0.0692230240606901
0.0684784824285278
0.0698387526704604
0.0678184285347447
0.0700085205137587
0.0699153925523304
0.0686030539865358
0.0701520302278941
0.0696057507579415
0.0667530637917958
0.0659698274542769
0.0683392086987762
0.0684345704428122
0.0692203082789596
0.0681502725653266
0.0652985114950752
0.0685152964614416
0.0655642085927774
0.0683473279689644
0.0674568706180417
0.0686941180205011
0.0705062111030042
0.0661157796513568
0.0666868316115985
0.0635553887482479
0.0675010034957335
0.0656834145835022
0.0645074719226669
0.0655229219849184
0.0650188012281515
0.0650598704799396
0.0662254617385786
0.0632960169891607
0.0656270989220949
0.0658055317616191
0.0633418382710923
0.064728637081147
0.0662656444996115
0.0634902124422388
0.0645583593282855
0.0639823366100664
0.062744572087777
0.0600370059327123
0.0619044896487781
0.063913650355866
0.0652771588263416
0.0595784310057826
0.0701925454867886
0.0639880234946964
0.0657036453595739
0.0610683177285466
0.0608898409896429
0.0586803567838062
0.0614588636266875
0.0579511062850886
0.0618744258705847
0.0609325503971135
0.0625270338437081
0.0599592002623961
0.0605213962252139
0.062014780527996
0.0599137648310726
0.0586252479548867
0.0599482421357579
0.0584619114555769
0.0615591188046103
0.061289369769853
0.0577589137535446
0.0653028653501495
0.0630260232595442
0.0595724685447856
0.0650077976696316
0.0561094581999121
0.0630628282381917
0.0651924053769662
0.0512577707247702
0.0676101197267626
0.0559690290971306
0.0628537141952994
0.0581668011306325
0.0669276158820443
0.0545251675390527
0.0643998592187977
0.0554748089004917
0.0629644793124641
0.0601556788045538
0.0625248631438595
0.0573819657945495
0.0592880683025363
0.058623820655581
0.0568378865853257
0.0563680189550583
0.0571721490136261
0.0556540839391387
0.0586947314583912
0.0563332503717555
0.0592685709328597
0.0556966279921882
0.0617832401679699
0.0556676826351563
0.0609274792036167
0.0560273328436251
0.061613693389186
0.0521687203224968
0.0671356532775762
0.0581252616505545
0.0598429071406415
0.0556694585999921
0.0565345479031428
0.0585531362497773
0.0564404598558956
0.055417139136755
0.0576339378275603
0.0586221006626324
0.0584516889817244
0.0594606267369646
0.0561919480187475
0.0575372172270695
0.0553056681069343
0.0585752661691621
0.0558438358748233
0.0560548988388306
0.0544400352923268
0.0581856399471649
0.0556939396872642
0.0537340744931566
0.0671283736699175
0.0551954403031195
0.0613107457663324
0.0504285871951489
0.0583060012880563
0.0529880103838596
0.056602942717401
0.0534293529286865
0.0572996786410895
0.0555051612913862
0.058919634260987
0.0566833956707387
0.0572483813768922
0.0560111055135682
0.0576085530997132
0.0566085335209444
0.0588925930904036
0.0547931282550597
0.057240200902371
0.0520215697641613
0.055366600195472
0.0558931585833447
0.0551070909579479
0.0619272395054015
0.0563309576773468
0.0596095289023094
0.0508376692691356
0.0852959168047339
0.0466421247118814
0.0618154436041761
0.0547167379546846
0.0595065511680098
0.057310138118852
0.0565672041913452
0.0571593313451302
0.0557352143567439
0.0573689133588286
0.0610489076606467
0.0559619389669457
0.0599161251442111
0.0587502496752974
0.0552945313149834
0.0604804263178974
0.0617167452190278
0.0539585717623013
0.063272466867667
0.0526152844697594
0.0670982112423448
0.0590664731666771
0.0579333385312739
0.0688598208937295
0.0556059186257826
0.0603604393966469
0.0577389802181168
0.0595512470244405
0.0566550938759653
0.0630631664628279
0.0558179097482067
0.0621361569231186
0.0568905475828439
0.0589294392965277
0.0633574821172362
0.0568355121116553
0.0651160596731828
0.0601749174754991
0.0577873459467882
0.0628626885282809
0.0559405701901642
0.0618404787411188
0.0597886707086298
0.0619590517153061
0.057081175104221
0.065710527309022
0.0635633471871932
0.0637274635469134
0.0691573736955706
0.0614022208033364
0.0611516422085392
0.0668595526786972
0.0630647319018083
0.0730480474174141
0.0545191893803404
0.0878399794647196
0.059574795609969
0.069235290287042
0.0672577992878249
0.0608347014104876
0.0688581634625912
0.061147816177712
0.0711022925643807
0.0597866501547765
0.0733981265812782
0.0532075269806186
0.0745897447225713
0.052483278995338
0.0842769667601088
0.0645069489249464
0.0714368254617983
0.063966689853896
0.0692364607535355
0.0637830281607
0.0761172183487964
0.063716130340528
0.0732656390509677
0.0859110470065992
0.0685677839623514
0.076132058002468
0.0637727131831249
0.0738360673404797
0.0919723238113259
0.0636608797562938
0.078605732265262
0.0647146675010507
0.0775930080139833
0.0677749182554976
0.0792610671693644
0.0803328976776532
0.0694207251658012
0.0770291748639359
0.0744205492077571
0.0706534379409789
0.0932054132069182
0.0735073897369255
0.0808656243408456
0.073629499638146
0.0865865398699354
0.0724960683645362
0.113499607468075
0.0674163186786901
0.100925859192783
0.0833622942197325
0.0936919326358366
0.0863552738192466
0.0898395243263412
0.0862326601551076
0.094162558771647
0.0927477369057642
0.0922519084877613
0.0908728114363493
0.109591771781821
0.0966089330529148
0.0905599754882226
0.103357465825825
0.0929075730734058
0.105693870827495
0.111363132581483
0.111713479666734
0.103249893806986
0.0996951939982117
0.103911294792682
0.116051557493606
0.0979591392573803
0.110244371650712
0.10375985217915
0.108245491028886
0.10729072538994
0.108753180559559
0.121558181248667
0.106089324628241
0.112596371605176
0.113532717091863
0.120064728599391
0.125924950099323
0.135919361267013
0.128531217494518
0.118315706681372
0.15376776377599
0.12115570289123
0.133991659948394
0.124249403183745
0.132493805093664
0.132023574469468
0.129440208278554
0.132918973818716
0.131171907371325
0.156899871385119
0.138976049946314
0.146821636821537
0.152760269961347
0.142696531927575
0.162074966948025
0.141899243564639
0.252172683115538
0.134250544425493
0.184505880586805
0.158439343375493
0.198752193240748
0.194144967046658
0.181412466217768
0.187623128322144
0.198530251206802
0.198354288050271
0.212817101180438
0.212926453989475
0.223808256623993
0.226877009791303
0.233565686631268
0.229342606107949
0.264987261168246
0.25717822460379
0.265894001243725
0.258959344371851
0.262353624536689
0.277331304866146
0.288019393181028
0.277720308381176
0.300476730036757
0.289451292051096
0.313097106998393
0.334971446736477
0.307079251044037
0.328555986423133
0.332047739371344
0.362588821549579
0.326898170667542
0.388110404059935
0.359251600964997
0.37225937854477
0.375055005717686
0.384427378925443
0.393980385038035
0.396058257997608
0.436466105590979
0.409806922756207
0.419807450585295
0.42388846308751
0.426916929662043
0.438739930975427
0.449453029718549
0.456271757733296
0.444140462696161
0.479471784965601
0.487339589472012
0.576667199421352
0.470651007591348
0.464419135366166
0.47448349816109
0.465997091255585
0.504232918161541
0.481157079092091
0.490201184535385
0.490642617231034
0.472703963401219
0.484854692719521
0.487091084046059
0.485591740410754
0.481906304158999
0.489801893875587
0.467247686488882
0.501482138513018
0.483793323568443
0.507699151299172
0.52616454102828
0.474976497379003
0.49271044504069
0.490800114083402
0.489945576949764
0.479492341000781
0.484775625532428
0.481313849272918
0.510636869213932
0.464456950911068
0.485445902336434
0.464412080017084
0.494363810917692
0.469793955689534
0.45068645617008
0.443411284314995
0.439306846152677
0.440121121683595
0.429807775117798
0.427073310248506
0.463559386655253
0.411054013125651
0.426981988265347
0.411275797537552
0.416426514681161
0.402338023091273
0.414391600331022
0.404770828016332
0.402264797418937
0.391891917772808
0.405697824260291
0.394631609514633
0.391579028982034
0.383504485582106
0.394578563757519
0.381261806501498
0.389772975011394
0.385221057902536
0.38189982461191
0.37572313605696
0.37827890225126
0.382136121085101
0.386754755396176
0.388328112667437
0.389424533360328
0.372849368369029
0.386344386957688
0.376574514606145
0.382427459651559
0.378959017930728
0.377602472947753
0.373558499997212
0.385047424506611
0.380916925150144
0.377230541599929
0.372154548527553
0.377267543237436
0.375309963289652
0.380098179304718
0.380527762734605
0.379170801772677
0.388819759210263
0.371362183668915
0.399428652428396
0.37973581863665
0.364022260684827
0.379489020411268
0.363127522054554
0.375127347606404
0.355668500554571
0.390415642125715
0.371173800567684
0.363772557974073
0.366747357392044
0.367810638097888
0.362737466004694
0.369820528369678
0.356388035398649
0.370613861880874
0.339648724534416
0.395546600352485
0.381453392685825
0.358812666510978
0.398154517340169
0.353197705114181
0.355741192501412
0.344596124862714
0.374805481901312
0.340908863698905
0.356708069642979
0.349571829919143
0.367956198868877
0.357604482643553
0.338730640761646
0.348765428207542
0.345090509945013
0.351132765113706
0.359939903131811
0.344977296388202
0.344545695703599
0.37082829724858
0.335427951556757
0.364236896579221
0.360192716540784
0.338366162028753
0.322684799138303
0.334332778443266
0.330904691875767
0.328864971340435
0.35182205839994
0.317549785689716
0.321499687470036
0.323579270826558
0.307937099324159
0.317771465390278
0.311484703885394
0.316112661453581
0.290911478698315
0.330481525695882
0.292073876944515
0.311997067563969
0.301532344712024
0.306557644553028
0.308546548708551
0.288780644127951
0.287132460477505
0.303125082669347
0.305562868113683
0.28408935496245
0.292159053511969
0.280812377111064
0.275565305488007
0.285619526636843
0.268533388110334
0.273199433986765
0.271627347470738
0.261241177528142
0.289335187088128
0.281354227365675
0.270347695178272
0.256076307130527
0.249153308599731
0.256899663273391
0.245936224767983
0.254668245926254
0.246403816931466
0.24949362611524
0.262847987242115
0.243009930785565
0.271287092123041
0.248160176439182
0.250246624805191
0.246848145241869
0.248096245990042
0.255926924160406
0.268839341006671
0.26332431594841
0.265053773806368
0.252742434510829
0.26814735447593
0.255152579136074
0.271200248106926
0.264257727179433
0.277102396546366
0.271351143415034
0.283479040080324
0.281771793641913
0.289526597170637
0.289230244325325
0.305413674994287
0.296449038245826
0.32901167724277
0.295361176976651
0.325550469813375
0.32851609564327
0.342886621493777
0.345371801160701
0.341607710215854
0.349103685962257
0.346449827651176
0.353136870174908
0.362705196571476
0.356730928629599
0.386627633417174
0.369850636809244
0.384956155890151
0.380465814166668
0.39229155780322
0.384862116077964
0.403499124794271
0.409117237111364
0.388045327831398
0.433151444726758
0.400508919872762
0.411409189429207
0.404734657494385
0.420948469549263
0.418101835249701
0.413654342212261
0.42827406639232
0.414160979218976
0.430597510853959
0.427822533874247
0.426063368502906
0.426405302739623
0.428273857376655
0.439083055132404
0.435591494675408
0.439251908105007
0.440963098609733
0.437927160976824
0.454024276290398
0.443155418609759
0.472197912522043
0.462082803611987
0.451581151119641
0.467170740647888
0.4639223060332
0.480540464322433
0.466998265688231
0.474390443480016
0.484124227309413
0.477098221412548
0.48848213211053
0.483755691277452
0.485219380645558
0.489510089339762
0.508739167698259
0.49926328266374
0.501332580055055
0.506422310479338
0.485188889679102
0.546378453215628
0.49886239850711
0.52888022510005
0.521382103773895
0.529157472744156
0.51764262829265
0.518148367942471
0.51600669720507
0.532276716614089
0.528697610998262
0.532558552423327
0.526204523206096
0.524715026741616
0.531967193672503
0.525960541921434
0.535503021305247
0.524912306001132
0.527682621225179
0.533243984586085
0.521853691071815
0.533693843876493
0.534685750457362
0.539275989786163
0.5233567812617
0.532801529924966
0.516408023169656
0.539838939747634
0.535770097586972
0.5242366120234
0.528874026843368
0.536085341303569
0.524457099469431
0.535787440366572
0.521891239896172
0.547047624545198
0.536573659890275
0.546502277118457
0.539750459831592
0.546036478889829
0.544121398152016
0.551541142334641
0.548350922833969
0.555606558132926
0.556027208519283
0.559127582518477
0.56134409154288
0.555641272550527
0.559583905189147
0.55906702634062
0.560999309360551
0.554983058750856
0.549815105067376
0.553904754592816
0.549805333384724
0.560942704098942
0.546039857253444
0.545354976519665
0.536034586741762
0.539264984390248
0.530253973251504
0.547245606867037
0.526570255122532
0.521226035668081
0.5292337097496
0.513351606574836
0.518494106276962
0.507580933905343
0.507072009707756
0.509058046900614
0.50716291901375
0.494522170689025
0.499293366745204
0.496560122593565
0.49380250648819
0.489704060870486
0.489115031849883
0.493260681244104
0.486177141871448
0.484133848997425
0.489796715259584
0.494724567457768
0.488973154733589
0.483868259323415
0.485035984273445
0.489659938830688
0.494873732161022
0.485844584165616
0.49310878122881
0.484700237486525
0.486299532789598
0.483337565166331
0.490404542435416
0.485627729582879
0.486392682171726
0.483046789569986
0.484582097926969
0.48132175862743
0.482993473836276
0.485393625266223
0.484115431178893
0.481048941691181
0.477544342765322
0.479432493955457
0.485241627699801
0.484920736150662
0.47966632906379
0.482779838256695
0.479166325964522
0.482313093644122
0.486013467199035
0.488661898712311
0.477862189406861
0.482266206080698
0.485113621112007
0.487792684640167
0.480683532662645
0.479781734141726
0.482696355671664
0.48359063719538
0.491047444799812
0.489477129280198
0.483054604416426
0.485908685328717
0.480065916164329
0.481395781522353
0.476917209632023
0.476705167204841
0.472984084892203
0.466016488979406
0.46091556824071
0.4606089684118
0.45765212870813
0.453610854954554
0.448137768041966
0.446466016045803
0.446893066324898
0.444861611846924
0.438039972021333
0.433674365876781
0.433201052067314
0.432412617549376
0.423235390971012
0.430520217732387
0.427834367227618
0.427135793308316
0.424509942939322
0.422165483599564
0.418822297521631
0.422774444731649
0.421257379418341
0.424158705840317
0.421661820087072
0.421794471428684
0.41970172621097
0.422696041612916
0.420715377969359
0.425987930657318
0.428300253607568
0.430289951309338
0.42866926362632
0.428498950954349
0.430392951193905
0.430154768088786
0.438062499975714
0.438370317019348
0.437695243900563
0.438232213672388
0.440056657127326
0.441537718516857
0.442785909729935
0.440151501822933
0.444243360965119
0.449747017902745
0.447195902682151
0.443419826513482
0.446166658691394
0.447099962810715
0.446986620890438
0.443375757418121
0.443153608611951
0.443875635094661
0.445836901612673
0.445418439690711
0.444501563984849
0.438346770697597
0.442369807390767
0.442896579427402
0.436966877034145
0.436012766355753
0.433325589263698
0.432579389786167
0.433596601609697
0.430876666152148
0.427106587163431
0.427617690739285
0.427774827990656
0.420924445537744
0.423711407542887
0.425623375519874
0.423088421543236
0.425266550849385
0.423580830531343
0.419768917625695
0.417211852523683
0.417911190588708
0.416618695160398
0.414263351402478
0.412388766650808
0.415558408471012
0.412379981273915
0.40700707113664
0.409758452345169
0.405369298556554
0.401037596857853
0.400273073884458
0.400534998119042
0.400111386466399
0.39848713782891
0.393865101222512
0.389324137846686
0.389882085986594
0.38747310590786
0.382788372729284
0.379371668498444
0.373948518158598
0.370806505305725
0.369219664600122
0.366764549898464
0.365395088508785
0.363915888053211
0.364823935544487
0.361872489519447
0.363233670215538
0.362466277737228
0.360949074275707
0.358696270838931
0.355438453284119
0.352941755155684
0.351756281041614
0.348780375309973
0.349004581419538
0.341720221316264
0.339495127409975
0.339846556363816
0.331706926671066
0.326089459989025
0.324445373582789
0.32184596779424
0.320398649216898
0.316383485557549
0.315555928432941
0.317404374863831
0.316625374737035
0.318999013013137
0.322677012692961
0.32850787480036
0.335050658221748
0.343081100849547
0.348995548287566
0.364244651227138
0.373407923853959
0.387163557631961
0.402449426846556
0.415517129502737
0.430603045102795
0.44419670068499
0.456426089467473
0.473624542388649
0.486937529090077
0.497166435232361
0.51189822251124
0.523228435057419
0.535019622698178
0.549059086587419
0.559983722389729
0.569165359152035
0.578559249742982
0.590591887187621
0.600244925530047
0.611096896052364
0.620684486127649
0.626574781481275
0.633517250252994
0.640488345037921
0.645728119851904
0.652042955988432
0.659913025590334
0.662269822215669
0.667961784404427
0.673893236891069
0.670787789024326
0.666419287335933
0.667640032640414
0.668543919299882
0.676743331121269
0.676245679956037
0.678725536500086
0.674075370458238
0.682810190795401
0.675833030943747
0.677832016376349
0.683263598915403
0.688505477537247
0.693376061763573
0.706098556698957
0.701140973463655
0.711465906815098
0.709198299673019
0.718643627641969
0.72088109856992
0.729811309269271
0.739865317124181
0.746749752767279
0.752203586712354
0.76309147361665
0.766318096315836
0.778403871804189
0.792370404734753
0.813071081662845
0.808516437196159
0.819692303374752
0.831857022649685
0.833367317297426
0.841580266930853
0.85245772821367
0.853171246555666
0.860924914688297
0.861311279545558
0.873286274503219
0.862693438760156
0.851141373848482
0.860629524867549
0.84865739690087
0.852504498812733
0.850200871488773
0.839016157514212
0.848250276994293
0.852741501220352
0.853410673936998
0.862848657616648
0.868250502705218
0.876015686762508
0.899104121981432
0.899541596398762
0.921489046770022
0.918575210840986
0.951295605259026
0.953766012628722
0.973397019659517
0.976729334336132
0.992309668294324
0.9931930154674
1.03804303944509
1.02600309144511
1.04561196676901
1.06374881334758
1.06823337297766
1.10449466753608
1.10940985933914
1.09364851162513
1.12445196273078
1.16024262084781
1.19715003929232
1.19188483538652
1.21581236182173
1.21608290977185
1.29178007873132
1.25164420894313
1.30406279227585
1.31456015543765
1.3568052832619
1.3261765164289
1.33968454766573
1.39332372472462
1.39758704605915
1.3552799242689
1.42104977004051
1.39502097366727
1.42739864430735
1.36964055826795
1.41988894115716
1.41747080116747
1.37400073180123
1.39374262737635
1.45058949371784
1.41496373274548
1.4146559543021
1.35301551499528
1.44069824570956
1.38068579237825
1.42845873256314
1.3994701557675
1.40993516446297
1.41078818446324
1.46422046409
1.45408592934688
1.4170622395894
1.45835953319645
1.51474548192683
1.4870325995365
1.49933324411777
1.4755039254878
1.50353093590002
1.50439920553843
1.56453925448491
1.54781148960444
1.60818086042262
1.61082845460048
1.63865904896671
1.55124819079784
1.69072515647425
1.61537919836178
1.58525070261311
1.61691682760405
1.71430666619235
1.67983612139835
1.65921242920656
1.67694919547374
1.75298209248445
1.57086567337619
1.6989548075046
1.6685720444697
1.7322437414959
1.65696257319605
1.64289978015741
1.62156397114482
1.76650525087163
1.68426917535601
1.77542495628431
1.63509899515942
1.68655832621751
1.63668714937456
1.6895993749206
1.5818452116977
1.76206180029245
1.66125186183189
1.60371736187863
1.72120876753952
1.69188183712549
1.52703050011502
1.65667076249976
1.58006540338678
1.47526736777284
1.42934162930364
1.42095198978108
1.36779715690153
1.3388919479359
1.34539928730828
1.31709034524495
1.2228738178522
1.32449145290945
1.28329328644095
1.30168483438757
1.24931343028188
1.2427761372052
1.1980365329274
1.21433773516829
1.24801797757151
1.21917368243404
1.15369867106222
1.21875568827808
1.2045960611132
1.20814878650361
1.18336278608065
1.20497825729268
1.15617763437354
1.1316412949538
1.10078078575609
1.1337738880007
1.07629708553494
1.09704495741557
1.03010507732579
1.02566292311014
0.997890153917041
0.970875098664214
0.914410545880617
0.906866482478373
0.86560436651899
0.842614471266736
0.790800491211106
0.774093394526618
0.731986639022128
0.711656398461737
0.684244912002795
0.660557400971921
0.634259513119302
0.61379303539733
0.595532129723252
0.568841330747937
0.557860607992396
0.545542173311779
0.534974839430525
0.523271861413406
0.51686143252478
0.504024287781497
0.49854585533513
0.491913789708351
0.488807870269694
0.487836240174793
0.493502297725126
0.488748571246854
0.485837635011876
0.486474480391425
0.484966548817346
0.485920646367382
0.479978752667138
0.481992622717701
0.491864024662298
0.490277196118304
0.477789914886572
0.480452565342151
0.472852179664636
0.474643725783906
0.468413754456146
0.471263810422858
0.464641918938793
0.452492950617826
0.446048000400365
0.449233767305767
0.43142773991659
0.43378894422553
0.431285319909355
0.432892478451342
0.436647799704218
0.428224388828644
0.437269406904679
0.442767391087389
0.433460576295494
0.454946385646064
0.437869288027727
0.441546666821773
0.444968826694635
0.445422124436665
0.446268730031539
0.452948380167109
0.454540306260807
0.453720744876168
0.471641439582016
0.472737070268994
0.466868591211465
0.47333148511847
0.46306223707174
0.467103028457291
0.468237093068519
0.473319309451262
0.464006255202451
0.469523289053993
0.459937282538346
0.475399399980651
0.475001191119769
0.484516244289165
0.479734171197216
0.496427252405472
0.498579609266818
0.505170646738835
0.500157883617891
0.536245067000566
0.534202026255465
0.547693353908712
0.557322773652608
0.584535360208757
0.570172922902689
0.593133648792101
0.605734458522476
0.605971150974369
0.62441151386662
0.612541873585999
0.606978619122817
0.612459671566302
0.590194024304723
0.591401942295715
0.576266064105976
0.592786169120808
0.571973948864977
0.568009064430283
0.545965953379476
0.57251946772543
0.550654355859614
0.553480568648774
0.551479003124543
0.565970191214181
0.552410699891973
0.559188944412002
0.570351833721666
0.567536284225935
0.552154397548157
0.548875601123268
0.54066081942708
0.545034287067119
0.532569207878314
0.523406036095041
0.530549353803097
0.536768780394453
0.515975320607231
0.52698695790344
0.499230155091296
0.513407236259756
0.497669314587954
0.51344073764095
0.499970161167014
0.507841932124814
0.501410067789375
0.495473158443185
0.487929314405367
0.486315375785737
0.480095157524452
0.491960076565257
0.472551673685894
0.477757845732718
0.471186623479928
0.478882529134984
0.467230433521359
0.48649203709757
0.476036694476624
0.487726744001678
0.454928911664318
0.47214616724269
0.458481055772646
0.45891704122964
0.451817324301944
0.462867277941453
0.45792705547368
0.451533436226299
0.461360608463531
0.453602693426386
0.446269745422711
0.441089109261337
0.42536201397209
0.451528050605236
0.431990276386574
0.448614747704858
0.443973433413144
0.434970487704635
0.42652376893301
0.431309535183613
0.432450569099516
0.428532979686114
0.433106204690201
0.457930613368126
0.422475341001581
0.448439393236783
0.434184610188424
0.43102857004188
0.436331462883657
0.446730013503483
0.43035274996036
0.446082699253179
0.438268646247329
0.450384846176178
0.431719352486524
0.440268315735475
0.447328340082704
0.452889269040308
0.459514260198512
0.474421034865022
0.44783691985625
0.457001784749176
0.464673958456501
0.468701555409367
0.462773730578617
0.499229011590924
0.474372852009767
0.505419434967892
0.482709157240623
0.526179811206228
0.529423906534333
0.530757210240748
0.515108525389626
0.557383931945206
0.557191288813499
0.558683475963985
0.589426512042106
0.595364181541887
0.587587087923821
0.627036237035571
0.634183099782332
0.695130142009016
0.632027418471168
0.686939391290363
0.698480127073245
0.73012848623844
0.673315269707273
0.760685045653245
0.740307105168567
0.763048479629075
0.689436706130024
0.729368582362409
0.721445542605621
0.787283250272121
0.708313371618951
0.716210369569231
0.701832157731198
0.69965297956495
0.703193166640831
0.675756715840409
0.728041244186228
0.705135666355754
0.676117838535508
0.760146400371271
0.682592858975655
0.695142355954529
0.654018094789212
0.661298045267237
0.680270704249065
0.652149882758368
0.674759052371505
0.722401839078098
0.643957288401183
0.688371092136112
0.622792204855918
0.694420589127907
0.644726614672145
0.677147900923715
0.627440063118195
0.625393864331359
0.625675824821873
0.629383630622578
0.647590105891894
0.649268112486611
0.678887642048069
0.625655312835522
0.666354893880465
0.671948056192359
0.656487301272381
0.673835210003072
0.60106699538556
0.631206850803638
0.601828995722156
0.747160241916434
0.611081479273061
0.720023062666757
0.682740508454759
0.664301758183657
0.637529973903839
0.679044272324428
0.656150822482787
0.608669853783423
0.62381194832992
0.708911467254589
0.633160104575497
0.748210704940515
0.629276915804829
0.652098647783481
0.688620475782816
0.736655992328437
0.64124454680183
0.680022824013461
0.632570074916342
0.787420594384558
0.701012107937038
0.760812481355118
0.750884018870004
0.665404600132907
0.765002118681563
0.836403395360524
0.741938203107445
0.795826235739335
0.750403257807144
0.826593575850173
0.753745140850909
0.845983062460891
0.6823483847086
0.864464257186788
0.81243961385969
0.907741032583192
0.876728464194497
1.00075946246786
0.790429128897208
0.944769605497235
0.82832776539655
0.780041578696825
0.796791709953815
1.05438118569627
0.789446413249966
1.13211603650756
0.731429706577802
1.11036471928775
0.710709324168684
0.849480477950465
0.831488614111447
0.906363942780338
0.692224816534701
0.812425634890923
0.664017861306825
0.829228385069359
0.737111179167261
1.1031307544506
0.841678548644909
1.09998649017297
0.839987914147818
0.882355257547556
0.824941493763856
1.01468502509881
0.786498449239115
1.64102025656963
0.769970447128928
0.938472958342364
1.33432175568252
1.03182303618983
0.917025690099599
0.977330180253001
0.851838765878483
5
0.840387407931405
0.967144699235952
0.778097146911985
3.01509652477385
0.756096420849532
1.45529450987069
0.917473596208909
0.897173619976674
1.1917178157036
2.00878408630979
0.921587520785685
1.96523228143242
0.9390737184299
0.917821105683175
0.461207301857805
1.73431729752863
5
0.659585508260961
0.692592021810671
1.93371259465961
0.527450212589759
0.820286691268835
0.935987016798722
