3596
4000.36533379555
650.420452594757
1
2
2
0.0301839461619404
0.0250208423239954
0.032627248498577
0.0211993617434209
0.0264094882140965
0.0202629639112017
0.0439567460940666
0.0160317447900974
0.0241477030771598
0.0240137856489784
0.0273053043842891
0.0255989003032971
0.0258955328523508
0.0171660438765732
0.0277302644332523
0.0167408048863971
0.0313734993647726
0.0195786364919407
0.0375936842052132
0.0316629809240552
0.0330457277844801
0.0275863080887348
0.0336559000231233
0.037380141818868
0.0297699060856916
0.0161443651542314
0.0286903912977412
0.0290845839251487
0.0352450460124994
0.0295212263062347
0.0337683931985086
0.0289663072593791
0.0243751897153287
0.0200840133019627
0.0197123411665942
0.0277279172092249
0.0384599852553741
0.0219796235865412
0.0190007017862944
0.0228846480947957
0.0268576184049781
0.0235751941145247
0.0290568063972542
0.0260863964442515
0.0170568529864931
0.0149377732181439
0.0311847147284915
0.0274989783755972
0.0197544090196248
0.0117731532465554
0.0233585633974042
0.025222703198554
0.0343226471930542
0.0236260891821278
0.0358260428368631
0.0131010353789716
0.0264950222447558
0.0223191382162896
0.0224146984736475
0.0299388241123276
0.0457593608499728
0.0110123602202745
0.0317447165901841
0.0118729107898205
0.0340756096799135
0.020461833963318
0.0358080247019975
0.0229354851724021
0.029128124031825
0.0282053865047603
0.0328213874733995
0.0340491879669885
0.0227174669557819
0.0307946616822173
0.024256205395748
0.0129555550415013
0.0269695523747143
0.0224238293221454
0.0295504808728245
0.028327787408781
0.0197761914164201
0.0233462511709418
0.0249941425206129
0.030635398232493
0.0346254883278317
0.00938953325331421
0.0302619206279162
0.0161957891379236
0.0106246872060889
0.0136830452213349
0.0257937445053354
0.0208727436353222
0.0205875055873729
0.0193573195774979
0.0315328653905366
0.0163875860201135
0.0226841556983981
0.0163599182137539
0.0174924407411462
0.0348163272859809
0.00886140693544329
0.0494242450946942
0.00030662300442172
0.0362085603465141
0.0504124797534913
0.0110665185567179
0.0579193316283843
0.0136815044171514
0.0322075113916293
0.0135604547007082
0.028736555679654
0.0166240243096178
0.0296958799493026
0.0177537155589412
0.0241912112793463
0.0268483902009749
0.0137577868842368
0.0174700586577935
0.0208306308351085
0.0196182193150508
0.0202836932960441
0.0397087551636237
0.00776446495099405
0.0328476458720527
0.0169278043798045
0.0251519826494126
0.0310102331343813
0.0205237865747434
0.0183453263143589
0.032646446051624
0.00918578606211563
0.027305652553274
0.0169858037686335
0.0404823710626717
0.00745489047252742
0.0179184798264001
0.023597041126437
0.0286820829851551
0.0633168366092116
0.014717879306141
0.0183722308966956
0.0217237674335881
0.0197823512218059
0.0169284272733778
0.0125968071899704
0.0146056387128215
0.0228592858711574
0.0225747644824927
0.00728624448946133
0.0204363753178961
0.017473175850993
0.0240146487251692
0.0199321553697918
0.0258365304312955
0.0248582508229426
0.0690669775686648
-0.0181635889585646
0.0568769546212484
0.0204802795669778
0.0174997980654677
0.0246277510969516
0.00763810908292011
0.0265993027774906
0.0109862286708783
0.0341128104293753
0.00360115575212837
0.03361997867782
0.00508309961505231
0.0209509826855872
0.0261187597754979
0.0308293275600608
0.00554888317284325
0.0307331771659783
0.0171216687954568
0.00808281053077273
0.0327090263333849
0.0135222390736859
0.0248520461052406
0.0140423371975495
0.0309526634153067
0.0211185904033599
0.0191372741695834
0.0205598436648564
0.0200798384224378
0.0307324515956675
0.0161068184195983
0.0210891380642824
0.0242631145897664
0.0221907611841736
0.0281415204218202
0.0438681336130896
0.021276397195884
0.00689837244656769
0.0198627827040223
0.0249527642875934
0.0138447732270738
0.0586359132525513
0.00144998142220507
0.0261595944330844
0.0168100674242745
0.0229301439017825
0.0252614126511005
0.0200749783702699
0.0220650442523724
0.0236465371540671
0.0232510842813331
0.0300343261979556
0.0050211907444563
0.0270498089727429
0.0163040157457411
0.0309480066700841
0.0213345738846333
0.0495124868575447
0.000648798574045159
0.0326303654476394
0.0133045847652299
0.02763592259639
0.0188275960102722
0.0220309147580351
0.0128108540589159
0.0262051505201396
0.0131612651882155
0.0289997612870889
0.0176241701598888
0.0228758211403079
0.0125337711778845
0.0276816601201452
0.0227243033752679
0.0235740836726966
0.0205949555296383
0.0338794170539466
0.011346981336638
0.0241173093979267
0.0277486976904864
0.0245102587928708
0.0330753138140353
0.0169193086344546
0.01271656827091
0.0227883267025632
0.0122966193386286
0.0200245004800453
0.0176381856422632
0.0201339195815373
0.0240885068810131
0.020040011201055
0.0298674508266757
0.0339405118341873
0.00508418446607529
0.032044000240879
0.00723832121641172
0.0621926739456556
0.00397977728252155
0.0289110168302237
0.00812565519586731
0.0388898327764421
0.0160816923962898
0.0396481398076326
0.0138409805584442
0.0279798955145336
0.0214668791406326
0.0399320687615498
0.00788160659347924
0.0337303855037144
0.0219060851100083
0.0352893177886671
0.0195765459264828
0.011175197992874
0.0342634295596057
0.0356500539007457
0.00620803588382786
0.0456206983702175
0.0206285608488312
0.0504247341782005
0.0256600643110307
0.00806481287744463
0.0190112294486888
0.0334680622578271
0.0259102173987343
0.0210585747581682
0.0348488907261055
0.0278311843582459
0.0367872350100982
0.014660644253117
0.0246093136057781
0.0418007118477694
0.00893723918299487
0.0635321376678934
0.00766006165149712
0.0412285705841265
0.0161953481917067
0.0476777516035185
0.0194828996839756
0.0506524434987526
0.019000139097032
0.0412510905537403
0.0130006133409508
0.0445923063903892
0.0255772661740584
0.0287856055626598
0.0187823253412425
0.0389947332833278
0.0199916747531135
0.0244724140646401
0.0244576272184674
0.0338250811475613
0.026222222290543
0.0298411860938067
0.0398222378259673
0.0517316700725853
0.0132697961500326
0.0435782447149424
0.0281706953224473
0.0249657442054381
0.0269979485913343
0.0303620334652778
0.0250719426494278
0.0366547775128931
0.0231930869334787
0.0301258303003119
0.0447414404318796
0.0302293318263402
0.0308918001983827
0.0325770616716891
0.0319250183725162
0.0363404312468289
0.0332007726517495
0.0331390745978944
0.0348237777447601
0.0314279449960286
0.0317631238518828
0.0648778541236797
0.0324045984595365
0.0355256873081449
0.0635038533899511
0.0256188591383219
0.0259525008676664
0.0348743163341858
0.0357617194747947
0.0439281883738298
0.0389043469895482
0.0534007173051641
0.0423395724167942
0.0470747027094316
0.0503746816009101
0.0533901281299244
0.0442082520896684
0.0726258256177318
0.049721578871135
0.0576239279010898
0.0241814338849116
0.0571266165810455
0.0411479792162223
0.0918370908382163
0.0406814205429039
0.0545032417761656
0.0402946448256852
0.0465740197504055
0.0498305992652544
0.0576186641489538
0.0568843823762622
0.0557105586160745
0.0704770508827779
0.0640412557295374
0.064009683538177
0.0655664583672811
0.071028481335479
0.0710258273688179
0.0854047214183736
0.0881382213280316
0.0677714770753105
0.0784536086644061
0.0748923361187471
0.0843489278752885
0.0998196060164099
0.0894657099457748
0.0899922043472816
0.0857433880777525
0.086279073568244
0.0938439365235407
0.0699075479469593
0.0982315959386323
0.085775604525435
0.111012325247143
0.0954982921014959
0.10577079258246
0.102725824886453
0.115263499913074
0.0989830199254402
0.120008870226038
0.105094246069654
0.124514302601686
0.107650383370838
0.130548252833981
0.10101912971426
0.137461627055379
0.117640392091178
0.167606707943294
0.117469815556963
0.14731244240572
0.110514566880441
0.145981823136103
0.129589119341036
0.143233370275492
0.1346687159279
0.15142160055876
0.16390367602408
0.176742204811801
0.167420453333777
0.166234812135983
0.146065642064253
0.168852023469789
0.148042424431171
0.186303239131997
0.154620193975939
0.191486612201527
0.16451500117466
0.191614529854959
0.186234996160382
0.219320286238622
0.190949199854419
0.218410080154287
0.195444620818998
0.191377769962246
0.184240901357261
0.205426699676649
0.200243134867472
0.21322311821533
0.214885614666144
0.225660719811511
0.212972006766846
0.228119053754502
0.212719212642925
0.245395227378067
0.23997739335499
0.263280519913843
0.227937748337502
0.248149067558625
0.235416261979583
0.26443290457212
0.243886145203665
0.284272762729347
0.259010807669254
0.281222994802223
0.240305999101387
0.265941675675366
0.274315957029331
0.283819034320193
0.270442236176739
0.298330065557849
0.28755508516859
0.29816800730993
0.289415600217618
0.309462247385799
0.293971240171633
0.314094389871181
0.310033720986507
0.339790349279784
0.301877425856429
0.330630801566199
0.3218869768914
0.353352152173901
0.327722717464541
0.372130994709357
0.34007966423075
0.37315586898944
0.339267571713864
0.37037543496836
0.352715734999398
0.368567379937731
0.384598517309015
0.384155871257916
0.374334197465322
0.397116780056847
0.384587243878935
0.40459569976443
0.388302321806062
0.412997003708284
0.394824558833296
0.430551019828669
0.398306628798605
0.451472796322359
0.433798830056489
0.44580309417601
0.434144236434475
0.469792889688972
0.44034535431649
0.449997749455604
0.456207132927643
0.481468677585488
0.459783168932062
0.482535762061943
0.445231637124436
0.517618389917243
0.466868091275126
0.504341254673349
0.498299325302149
0.50298416630903
0.493144789054258
0.52236196325811
0.48693790219863
0.522503918016876
0.51600221302317
0.531235238569453
0.51312828605118
0.587490627509133
0.547242097124616
0.560373306720319
0.549146956512355
0.565710740393196
0.526621322923173
0.578334857648612
0.560781066077846
0.580145298344511
0.577604562268472
0.604045163573724
0.591820413821268
0.60576973706438
0.597803506389555
0.625957157249366
0.616446713717597
0.651983265259581
0.617111502789645
0.682018240715429
0.616073389008724
0.625109611292013
0.578914763129703
0.661379645411941
0.607139076757983
0.718468642250038
0.675636985784111
0.690031905362664
0.659629761116209
0.676772205211355
0.672798827749899
0.692002573451474
0.693685547111198
0.694415588895563
0.682393297167517
0.742392363577248
0.714058515818944
0.762211019394112
0.705787428763857
0.787446133952282
0.785416845958218
0.761168118591201
0.722920086201052
0.750077829302297
0.759655694737053
0.821060060737298
0.769196987333474
0.79102356762606
0.83633774966869
0.83946754452119
0.759587153074876
0.766316268097557
0.716920330506191
0.83078203910445
0.748746528100727
0.832619947918738
0.864370167899311
0.906243314852684
0.836321132520065
0.884242654724496
0.81525145650684
0.905364342879695
0.906305124613882
0.96013861594137
0.817122159767815
0.817045044399235
0.833053708432769
0.931890463895355
0.890129345243511
0.914256338409894
0.91629161123854
0.996861909896496
0.882455314178394
0.938694687799504
0.88935525961372
0.924998297344457
0.957699642953706
1.02092765278382
0.96965275102804
0.938228169498785
0.907487046152504
1.00503059984597
0.983137163567662
1.08040944518916
1.01453418471248
1.03563424570751
0.947632062714626
1.00588653557093
1.0359212384046
1.08826456196032
1.00227499266092
1.00952948945059
1.04275467098935
1.06280223845768
1.04395381395243
1.11873203115234
1.01802388172879
1.06980938711291
1.01990067360919
1.01216853663191
0.971534195861261
1.02518962927126
1.02655656903361
1.15508480766445
1.16056599797505
1.19279796889407
1.08890845254801
1.13011225240016
1.11764290764598
1.13369820802462
1.07419919274062
1.12537715102789
1.05713401571012
1.10195425394761
1.12485063222638
1.20927958499212
1.1825460675896
1.1981294963551
1.15312745340312
1.15226206607453
1.13520771754212
1.22089565356073
1.13321410776117
1.31197673041141
1.20661012673002
1.23031622666616
1.10059590716501
1.15975567524957
1.22109431992398
1.29320474643403
1.22331987878347
1.23601525484527
1.16953728311432
1.27904766143778
1.35398616931258
1.25421401499184
1.19860681523228
1.2502346301676
1.10187039949216
1.19132533787724
1.23725183818185
1.29674635024941
1.25368217772051
1.28998013299928
1.25283331698361
1.20558873504
1.27903731049805
1.31058513165196
1.27432347373998
1.35402811821388
1.27838753894536
1.2970830791153
1.32507067339665
1.47311149681999
1.42637369840166
1.38260427804926
1.26809972300747
1.2210367855364
1.26620966387774
1.4623217660173
1.28414988288014
1.27232538582023
1.27878145802716
1.30087568481695
1.32302843575477
1.37416621639897
1.44440447340074
1.37845444800269
1.17927771978946
1.27963540240504
1.3277748157932
1.328039154959
1.33232494156015
1.34087405348216
1.37930307087424
1.37117474046924
1.34012252498697
1.63944296202231
1.39930306815702
1.37732872356537
1.45175888040672
1.43243021255549
1.39661655820705
1.34822646981788
1.60012405509317
1.34138078532206
1.26732870271748
1.40269877096255
1.42437387038465
1.42012564675127
1.40506677705359
1.44836231783512
1.50037201713516
1.4205275363106
1.31815057867175
1.34363757861744
1.44391585078376
1.36956848276411
1.29735415165851
1.34291017395878
1.31717982938605
1.50949898241186
1.53801587655442
1.4128404409579
1.30269695955663
1.34572564225398
1.47188229112594
1.47263785260135
1.45070117218641
1.55137062695981
1.48266575439087
1.33667351074918
1.4197112110027
1.53431166715832
1.45972676132163
1.37420850907546
1.50721116013612
1.35710860145305
1.37275907901366
1.43963327411778
1.46144276300048
1.38589516539437
1.36987636598573
1.55914989921499
1.46653004203457
1.31926855548405
1.39839868780597
1.43119307874573
1.4208774071977
1.43712206515889
1.34673478807827
1.4036170987825
1.36825705184615
1.42530000312291
1.38820614437046
1.41250581811219
1.47243460621881
1.40580248108827
1.41496644630312
1.40575089427118
1.48155011535067
1.54282848894821
1.48564309112418
1.36800425590511
1.58980989625874
1.45167798574199
1.36915134315212
1.4342243508908
1.37146449352904
1.42855536797016
1.43046642032311
1.34830106598554
1.42008467011976
1.42618992105935
1.43835589772369
1.34478898552115
1.43085515825277
1.39642823258425
1.39043757189176
1.46753951566202
1.48796079197245
1.36868819320698
1.45047298168043
1.43518833253627
1.40948901692801
1.40805625854759
1.46254991878398
1.37456079211064
1.35015938822779
1.34407851045817
1.33096886798065
1.36194716812672
1.50825016800464
1.42261091405152
1.36332720605882
1.33055609567372
1.24615465096892
1.39501950066921
1.4521718650151
1.250586646638
1.46170553094279
1.47298328228268
1.44660936833552
1.38366576987237
1.31693145941299
1.3898845276726
1.45155698495458
1.41362618600755
1.47955504875481
1.26765741402154
1.37043007051325
1.30020261041613
1.38860596048819
1.35250498241116
1.29785737862708
1.29234261288511
1.37686138526686
1.30367108564416
1.3336469043197
1.332153419818
1.39923603168645
1.39435746537491
1.28840758020636
1.26757722784944
1.32112752413486
1.27910403200955
1.44488474020841
1.41905308599947
1.28851870981393
1.25084744853434
1.31621369362348
1.27263547193844
1.26615321006052
1.25370202555964
1.24998628050841
1.2770561412265
1.29586486592511
1.25005813105687
1.25678810279481
1.21032368582635
1.22127537039989
1.20611037668455
1.33785739430845
1.26831133806393
1.2633157821313
1.2186573115123
1.22084481673978
1.21164964037682
1.30333783486946
1.260606321813
1.24735552319084
1.14719270897565
1.17404934051009
1.2074471112629
1.21296560669199
1.19485677645409
1.18926233945622
1.12482404339717
1.24150199499475
1.17847431576091
1.14664123597388
1.12854827541589
1.26833785041761
1.18461259152471
1.20891841829229
1.22534543032811
1.2207422998407
1.15229052711041
1.18736421398945
1.15040972050559
1.15375514684027
1.09278872888693
1.14691689210839
1.09330384130395
1.04290994794637
1.08849507291725
1.16889723096724
1.12241831921709
1.08644037782114
1.07933934132666
1.12197292399949
1.08205893745756
1.15963078574358
1.14671119411155
1.1768119490409
1.0372039838925
1.1095319305083
1.10604962126251
1.06701399802285
1.0561246048856
1.11296018568488
1.01689513449709
1.05447170419033
1.07732680269372
1.09088465571311
1.02625424108508
1.04362509487884
1.03701730676318
1.04558454844323
0.987354588874653
0.976676628649656
0.992783981564655
1.01204112539973
1.01346726224336
1.01582316156936
0.993107314643356
0.97124541654259
0.965776112605102
0.981583134324589
0.982869461817896
1.03122606248962
0.975560505356755
0.977288141070146
0.92785389701195
0.955062447479678
0.927169366161793
0.925400840402488
0.92110369835064
0.944059977088873
0.926036521039346
0.938057223167377
0.915262749076968
0.929083821634378
0.876407642434725
0.896471382709514
0.895692377360599
0.890060380521059
0.871204303165841
0.884071023319842
0.881308400903285
0.870325305400941
0.838950448540015
0.891211410115155
0.879784071062619
0.865284834572619
0.823118451099869
0.843423548800098
0.854013485947182
0.846846692816093
0.805933342575657
0.819372657419116
0.814562098518356
0.814330329014484
0.814474663078711
0.810077429440491
0.800484038484872
0.794790303927906
0.77765085499154
0.795352761684334
0.76560481797788
0.789452550781832
0.783323282730451
0.777341709469343
0.770334287040403
0.77915109838512
0.752299690553444
0.779920423751991
0.750595394274033
0.735665181360904
0.729142409708786
0.742287980675742
0.726748712298698
0.739394492694177
0.726853396200858
0.740438509831882
0.730544012206173
0.718622877708208
0.695550138292962
0.711083511887892
0.701073451048747
0.703435481185978
0.718848740194629
0.701728278848861
0.688671014681535
0.702442932046815
0.682504290554953
0.701751994930833
0.66024342456784
0.663143857620579
0.672697101234065
0.661299734813945
0.650935866705135
0.649805611836997
0.666349278205371
0.66945234738677
0.662009232995838
0.650192719828732
0.638966352262623
0.654128193632462
0.633120717377073
0.627480923526978
0.62391524899715
0.631678352680301
0.621154141703873
0.633343671862302
0.611950464384415
0.604681918119847
0.591440556180088
0.606845281489374
0.609897394395533
0.587628390236119
0.573623916244185
0.596666912082185
0.58323547176977
0.591130114392264
0.57218105498678
0.600613696332822
0.572280601078668
0.558268199744144
0.572166689886214
0.575908822744125
0.571250238397984
0.567161863630668
0.551925390186403
0.560479984391308
0.544695312522987
0.548665255107704
0.560299318716988
0.550758958757341
0.533317521485089
0.555930250065811
0.530611910753203
0.526822633283734
0.517963234170919
0.538589063267241
0.518895575358845
0.521726272606279
0.522144030181743
0.512320471468553
0.51015037401406
0.504031865510759
0.504653335831824
0.499182071317102
0.492114064075152
0.494164254789768
0.488594628529211
0.506246142975753
0.492524142611145
0.494190352412944
0.491647621827534
0.478374587771306
0.471499521673587
0.499354145982441
0.47013548669478
0.457296872672562
0.462550199358118
0.476215571231087
0.46566717348894
0.470495323728961
0.446164877795248
0.464684480912611
0.459119150249989
0.454409913690788
0.441929951136811
0.457473470114894
0.440945111456834
0.450451059975558
0.436299858790868
0.446937747009807
0.430403886979537
0.43783022565539
0.433584003021055
0.434287375963912
0.428303371531701
0.419998762707236
0.417713498534449
0.421140142871059
0.407800418358362
0.430411123483876
0.413446707501107
0.416954654118257
0.411771721444064
0.397602455608087
0.402517101262104
0.403835985211101
0.399700839043331
0.408397409566461
0.396342352009148
0.400816430982302
0.39154915347054
0.398861990413856
0.394803549066922
0.399671709682598
0.390122998695218
0.389863831906079
0.381839260828859
0.389885280713099
0.38406861413475
0.386317281305252
0.376442432435397
0.390805881768443
0.375601030511628
0.390881948933367
0.372214444106528
0.389023297122573
0.379505995620068
0.380389252744967
0.379459846997308
0.382713205800462
0.380726999981384
0.372660461715726
0.378019131470726
0.384475954118195
0.374406085901234
0.385537807278991
0.376271585111778
0.378205349760664
0.387816416900154
0.384832400789189
0.384168185777624
0.39465432347486
0.396782543153097
0.397038403759366
0.393087714582704
0.400974081002812
0.401749785826978
0.396366647318249
0.400622581356463
0.414927533332783
0.407732472099712
0.412655917965136
0.406969229112788
0.422339910981679
0.411620734556262
0.431194870755351
0.40396544252907
0.431831457268152
0.435478172180481
0.438339275830011
0.419568538824036
0.440342426862461
0.436222084038703
0.443405905614381
0.43095406079327
0.456079686118907
0.44733302797726
0.460252623719333
0.451683516208916
0.462010557125745
0.442581797765136
0.461922178940205
0.466733765538735
0.469381925142801
0.453176404997548
0.48461115012865
0.472511307335754
0.490806730520838
0.467753717738242
0.48396842358585
0.496697355941256
0.49973785475063
0.494283772042517
0.50631337949581
0.495320458348432
0.52704312830158
0.511829236439609
0.519341891123478
0.523586971040641
0.527233965577511
0.518164501883766
0.539370911867079
0.52632079191377
0.543421215912618
0.53484254888008
0.548023468868075
0.52828860238086
0.541317143802194
0.535403452156346
0.555080532356535
0.533686669308541
0.552238099356528
0.534067750645623
0.547659202430835
0.541326025976952
0.54218675490431
0.539928203899969
0.546203374193806
0.537462014121997
0.552213827209759
0.526668674557391
0.541067473601933
0.542373069745018
0.541079689046963
0.535615975913612
0.556958591970985
0.528053407852079
0.544072078711907
0.5295404114836
0.544146355005764
0.535011280482958
0.551401737207903
0.529332064530868
0.549726962817133
0.531760044527162
0.548249297382037
0.545244771375882
0.547726785220692
0.540170663379407
0.551918977408777
0.542665596489493
0.540324461200876
0.539585665662934
0.541868154194477
0.529372071609199
0.557478094062652
0.524528111280012
0.548140678305704
0.53751968315201
0.550683842580584
0.543214557952143
0.558673162781536
0.531274629343677
0.539709118141668
0.531228321092748
0.55111799296521
0.526294045523846
0.540007609753985
0.524186842584385
0.537126066510254
0.522914678459134
0.532259836447021
0.528562716700729
0.536672978755394
0.516459084813533
0.529596176448555
0.521740144741954
0.529614777743475
0.510060209916485
0.510432120257151
0.508615547473608
0.514654986492545
0.504133937774855
0.515984246537539
0.486109687002557
0.494494149437555
0.484925952182934
0.492863571330935
0.470268829299043
0.482087866267226
0.474740429936191
0.479394258557304
0.467210159995107
0.461046345635557
0.452381411925029
0.456564273868363
0.454638254658836
0.461055141734683
0.438769671448438
0.442632180275414
0.433573315870211
0.437244058821839
0.432444699594256
0.441046834418479
0.420185731800084
0.421085506556262
0.404149478960231
0.409922872239957
0.401176510533024
0.413453344771608
0.407337705853389
0.398884866788816
0.391277187036894
0.404156826797494
0.391660011585235
0.396970056495958
0.373633039526692
0.381560741917366
0.37398953940946
0.390434127739797
0.36977389589895
0.373757278312949
0.361221262518512
0.371984029133633
0.366516103075252
0.362728100606398
0.353709938241417
0.365924667613985
0.3501612220339
0.357408516673492
0.353353285989149
0.353757613113249
0.34461393781378
0.348205207646135
0.345027813360684
0.352009778689483
0.333469266991166
0.334849813356754
0.335926723454432
0.335856048251627
0.332291553848735
0.339909154322071
0.330558125933841
0.340730944158425
0.319596246469843
0.326372484313918
0.32189530246744
0.323517120479523
0.316585233208998
0.326187388545029
0.314420187736001
0.327413406660116
0.309005687334942
0.323881172547318
0.318140656786248
0.31882637723761
0.318382920193126
0.313016483121044
0.304701635721752
0.310244897830312
0.303916438460741
0.311659565082553
0.299282274734683
0.301318556568056
0.297178569680074
0.300067392863367
0.295129954352937
0.302181803039476
0.291639852699412
0.314369292615203
0.289747640727891
0.299047506985251
0.28480402989918
0.296883896445921
0.28620362217536
0.289082410633106
0.287626893390562
0.290805294426465
0.283649920255867
0.287456420814079
0.279468170947263
0.284942861239931
0.274608223569036
0.286457220262148
0.27225768392701
0.28191753040763
0.274640518427792
0.274110960207935
0.265568459605839
0.276692785441988
0.273701096159015
0.280493320764724
0.269356664368004
0.270188740896978
0.268306046038357
0.275412275479425
0.264691371345621
0.272176111702589
0.271179659084972
0.276278260510824
0.262975986287032
0.275488419737827
0.261406934548654
0.264562710425853
0.261163884294403
0.27242729805451
0.265521115642044
0.266554173298996
0.263001605620068
0.263408205763181
0.256948445074038
0.266200191725522
0.256375284058275
0.261756225186865
0.258131653100776
0.2626940416918
0.257666387381743
0.258264470038487
0.251993222628358
0.259731260425351
0.256322105120566
0.267469521552054
0.251398036127551
0.259317463018324
0.250402554957395
0.255111228473272
0.254981698305054
0.255965425078562
0.250406526210483
0.248148814218247
0.249362205677524
0.255033877156011
0.248941129789907
0.253278022416968
0.24966783399058
0.251393610412055
0.24217406811924
0.249498452836213
0.244617014504115
0.252035213271271
0.245449300702657
0.250271084813377
0.243887493939423
0.243911225031319
0.242059852952857
0.246019989026654
0.23552047471079
0.245663816606446
0.239884546696696
0.242742565331138
0.242536499333078
0.243998625217973
0.233646462087251
0.242841341713366
0.227943232154688
0.240701412923932
0.233884147775819
0.238193105504145
0.225050185011477
0.241235329330936
0.230231254149989
0.239258475757961
0.233094279946703
0.234897273118707
0.230798916525299
0.235334414771594
0.229771275024666
0.230524925940002
0.225170738575105
0.23384666158558
0.226485788745278
0.226990545798212
0.226569925844077
0.231567083028109
0.22661806852515
0.226630323588732
0.219829394914624
0.228026878937033
0.221999210854613
0.222506592831974
0.216746441688427
0.223863270905822
0.218877459351793
0.219680196209704
0.215967616148986
0.221582885132627
0.216517046842507
0.217076925944056
0.213804468457297
0.215457912447763
0.211088058261285
0.214976770199087
0.212664856263783
0.213901105198997
0.212751968886484
0.207334710349053
0.204917622413554
0.21340406334565
0.199505928194818
0.207877220694512
0.205857005522402
0.208715255009805
0.200778598634884
0.206994442224539
0.202890114206519
0.204365626628714
0.200350176198069
0.201308977324854
0.194671417630776
0.196954116574208
0.199634090270553
0.198268945381823
0.195239590973873
0.194171641899775
0.195711435255854
0.195873561604718
0.186996725073075
0.189480477200424
0.182053972182195
0.19038304454017
0.186855980320571
0.189420995220105
0.186128118361545
0.188931195919238
0.181107336251617
0.186288390952172
0.181167542475229
0.179791922686827
0.177739904327528
0.181994895589444
0.175789929069927
0.179670914949298
0.17773841182678
0.181958746460062
0.171756521286843
0.176626068015583
0.171743133527505
0.175888391115331
0.171092177228194
0.172239389209961
0.172841829044012
0.169357621445331
0.16804196523572
0.169563433968707
0.164354563994084
0.172849195827757
0.164484574698558
0.164822808262173
0.1634466773445
0.1650180394362
0.160054510426877
0.161491988324121
0.158882586069846
0.163396664488074
0.159258046177852
0.165372949653856
0.159977937195568
0.162683278757389
0.153893329016588
0.159713579988538
0.155382206082288
0.154311289472563
0.153979970095754
0.156099192285054
0.152367783684254
0.158703038246621
0.154342185478844
0.155740415546997
0.149200737518159
0.150148036056164
0.148988720230638
0.155306721481825
0.149253474738239
0.15215783297367
0.144335191651869
0.148303081703226
0.149477064621736
0.152134258155179
0.143401548511624
0.147583131389639
0.143589650375187
0.142932108363762
0.141390916204907
0.146041291646733
0.138958529704209
0.147644604683345
0.141162132740256
0.138720142912384
0.139804927883468
0.146033859345102
0.143170042664519
0.142119160151579
0.13840018277804
0.141810138256241
0.137291034597851
0.138316435654765
0.13454156685942
0.13939181605293
0.137126521764214
0.139480595536274
0.13633252105815
0.13628388765642
0.134512509957945
0.13683673653785
0.129763967292951
0.136762972861853
0.131553814906471
0.136961669095663
0.132356870105703
0.136544477136485
0.133362939854666
0.135436313498126
0.130420494901551
0.134748546858264
0.132550388934052
0.133535985353595
0.131303707383136
0.132316100172255
0.127924280488358
0.130834632576918
0.128881755099553
0.130169176172283
0.126856501471747
0.128975588288122
0.126941448399565
0.129209530028469
0.129579974978856
0.131745435637628
0.125048291271644
0.129881832580971
0.121871977864815
0.127692077664367
0.121906019785157
0.125208912168792
0.12801688725949
0.128539127353891
0.124143851328694
0.126266916633619
0.123325291026564
0.125249186947768
0.124040517560713
0.12716202528607
0.118214860716198
0.124065231002445
0.119658058584445
0.121426992102709
0.121411771083259
0.12397884749455
0.122666685404539
0.122927803142852
0.120989240210175
0.119768330779264
0.120784406563256
0.123077510252087
0.118326036902855
0.122576073978865
0.120646488445691
0.123317547755899
0.119633912000712
0.120978456800929
0.116107500349304
0.117708091697419
0.114959006603477
0.118098975852337
0.117602113827532
0.119909041269994
0.115142691305359
0.116116167054549
0.114350186017902
0.115890140219599
0.1127800727576
0.11571358161864
0.112550868091983
0.117160732634002
0.111992895756953
0.11272659628887
0.115209091902157
0.116037648791646
0.112385902625679
0.112937667764086
0.111461965542316
0.115596615816494
0.107132224464155
0.110365322327323
0.110761731462229
0.108793622627977
0.104294457406555
0.111740484931252
0.107604098827557
0.110556457276988
0.108006478716363
0.107782796946643
0.104462685429722
0.108571033068163
0.108638683928346
0.109971350428471
0.105100005232895
0.108366630260696
0.103798673365743
0.103983601309997
0.104766337245639
0.102800958529089
0.0994719445886218
0.104156914157674
0.100398947320384
0.104355710890149
0.100304924479791
0.10169512277034
0.0977711566793413
0.0972979594670992
0.0978217332604739
0.0983420842655902
0.0946160554408344
0.102584539051334
0.0987051416350471
0.0956918095389656
0.0946566768074983
0.0995768921624466
0.0959912511903178
0.0941025684191831
0.0935978867495161
0.098647284588778
0.0918086346057887
0.0952198637480873
0.095638802192737
0.0934318331657309
0.0907211012735143
0.0946935888379219
0.0909807363729143
0.0949526460604561
0.0932533181245372
0.0933472780553943
0.0902889557120482
0.0939113389783294
0.0906084855506477
0.0893070432797416
0.0885503784893191
0.0893403963550064
0.0867407253244723
0.0904316134075431
0.0886356262968004
0.0904247162505079
0.0867329290491043
0.0879966066235722
0.0849772528798704
0.086038574867388
0.0832600586996735
0.0847219267710382
0.0846338950173936
0.0821426311559013
0.0831613260448942
0.0836461610661272
0.0821916374617626
0.0847951683068757
0.0800200347338471
0.0821762159771203
0.0798191724282312
0.0808783332779045
0.0815093584310567
0.084154952967908
0.0769923198341473
0.0831373343636814
0.082097842431615
0.0803417333684274
0.076202639174568
0.0785498553779941
0.0781497020449719
0.0806453648043221
0.0778356623333061
0.0778446083682573
0.0787630060851292
0.0783993223645138
0.0741997698466324
0.0779355745319839
0.0783408881328099
0.0759251278012484
0.0733175805497102
0.0756632522018763
0.0712275135816211
0.0734992473192603
0.073696838711522
0.075410418041607
0.0740941905334883
0.0739154824762019
0.0734486327926729
0.0738969562297207
0.0703407533724868
0.0771791940771761
0.072434557293241
0.0750012545733084
0.0721149515789704
0.0708631662102756
0.0708726091499038
0.0732609307205398
0.0684029171381082
0.0716470768069225
0.0693815144591312
0.0731233565001469
0.0704844099131267
0.0721714909336168
0.0693318848790897
0.0698870048544888
0.0685971541694481
0.0690614715559346
0.0685116273445218
0.0706649938170171
0.0694050022394986
0.0707507299262153
0.0694400149972223
0.0677874688471916
0.0661991602301173
0.0666776911229377
0.0642753396880504
0.065733814540749
0.0590780356638484
0.0617404204774872
0.0583352316602449
0.0641324759776241
0.0655550281898108
0.0722400087376383
0.0660657021130644
0.0618091781168679
0.0607765815501112
0.0618200882337931
0.0608292049832964
0.0611412106176797
0.064066883264438
0.0668129654882883
0.0646525624935864
0.0652225556888344
0.0531155097272635
0.061096757379266
0.0585179799372676
0.0641168506115869
0.0632733030325102
0.0586244194337765
0.06365433568795
0.0648532527400219
0.0630836191787139
0.067193043582169
0.0649291161334005
0.059105480640438
0.0644484432559523
0.0654844104331247
0.0626277225491616
0.063185913376207
0.066662401347899
0.0606317166096187
0.0648884934294213
0.0568827073211654
0.060951988233376
0.0519199211790561
0.0643007804286326
0.0518398863519521
0.0690003764655015
0.0541685224929698
0.0715940625706573
0.0528201726146919
0.0720772557915995
0.0429751477105681
0.0695487792000958
0.0452253595889079
0.0822671991538198
0.0444715804947969
0.0761771846683255
0.0356362400897168
0.0814545852928103
0.0393649207406776
0.0796785932334811
0.0286994850697422
0.0816571241687327
0.0445706708417937
0.0749881956597181
0.0434238838514919
0.0680430047765084
0.052539943368958
0.0577398976559194
0.0622333253105799
0.0540748891530358
0.0663737451029373
0.0518222010291864
0.067500087761888
0.0506543200336823
0.0655750917136792
0.0535798429516386
0.0615417227965372
0.0566041830868765
0.061267290730591
0.0587323840462391
0.0620123636431454
0.0600058127610062
0.0551956024264623
0.0588044995741745
0.0580711342658453
0.0581867902269932
0.0611947326090712
0.0600744700002569
0.0647060368917865
0.0575546638644916
0.0617497076433467
0.0581138004047154
0.0592947988969712
0.0609793257131469
0.060138284728266
0.0614368731998227
0.0607839396872096
0.0552819636404897
0.0610142742093199
0.057463021641055
0.0587584580600464
0.0559028661397118
0.0611586209872817
0.0599028492154837
0.0575286680237658
0.060410943156523
0.0599198000220099
0.0580080845499297
0.0561810954065594
0.0558826334019354
0.0594553834230312
0.0580125128700563
0.0581663448010089
0.0584459561478799
0.0599041346662454
0.0584293675109858
0.0606991559584588
0.0590318476064743
0.0614762390449368
0.0601837460337124
0.0601112097136399
0.0565312143465449
0.0586905872195612
0.0566214929211829
0.059956240547712
0.0581337230969701
0.0587001782602788
0.0577993053978185
0.0602634650634198
0.0574397932465634
0.0599633221503855
0.0553476621899825
0.0600566876578086
0.0594557035275748
0.0590139286758966
0.057226265911416
0.0616015033366534
0.0559828265117503
0.0615465235758765
0.0606412054992599
0.0599161447261763
0.0559235027423561
0.0601726275661712
0.0587971953126682
0.0586113936990999
0.0571626338721095
0.0623105619110716
0.0620921001007837
0.0593296818612353
0.0604359400430646
0.0608002167758741
0.0580156302523549
0.0598431071116653
0.0595356288087045
0.0616769853805441
0.0582829539653738
0.05931327530917
0.0603004267073002
0.06392361489508
0.0601344968493422
0.062715220754304
0.0610338552349408
0.0608834657769374
0.0575013329400226
0.0630035565913227
0.0606076630638012
0.0596505224823675
0.0615662082884669
0.0634306942336568
0.0623678278528321
0.0598110549472915
0.0591144883757762
0.0590360804549748
0.0599229785833348
0.0623142361994041
0.0607858222564401
0.0632241882581796
0.0613246176889067
0.0614227972326345
0.0599042232172738
0.0630223541061964
0.0595192262660873
0.0624897454662285
0.0606595674515184
0.0651313309546456
0.060051329738205
0.0593835840270734
0.0596065988711235
0.0646446601271931
0.0612372641587262
0.0629570466374412
0.0632988785156796
0.0651494494560308
0.0647871978764126
0.0648588217328514
0.0628265390426847
0.0635239648687768
0.0645980561607636
0.0643321761043768
0.0650552706245538
0.0647387821207543
0.0644116964892975
0.0641582316814014
0.0628727675400751
0.0655839165009532
0.0639625177505434
0.0657493418939665
0.0643135145996896
0.0635677912004419
0.0631263777087481
0.0666310573363675
0.0641849835411592
0.0640473228284128
0.0613007454443894
0.0633412605088318
0.0652163118284739
0.0663689988281907
0.0629110537570845
0.0647427172113853
0.0656930825572837
0.0671137358528749
0.0661766816804607
0.0647711714409312
0.0627253193114476
0.0667344108900059
0.0645898461955915
0.0688416705086282
0.0667161751744223
0.0657042139822679
0.0633938757517866
0.0665533318419591
0.0673288610651182
0.0686260671309484
0.0685204442890428
0.0680401509615152
0.0666239689798773
0.0691117976056862
0.0654799049180012
0.0668248892565097
0.0676160892050629
0.0678493743056972
0.0659526050761005
0.0675543444086311
0.0694268776464427
0.0690014307453532
0.0637704035914045
0.0685478284089331
0.0700102425535131
0.0706651773772244
0.0698934776657033
0.0673592893297878
0.0655163269614736
0.0676809715164791
0.0675259224366634
0.0651072195360273
0.0663010778383478
0.0634883732818541
0.0645280296798708
0.0671639110779652
0.0640980405054976
0.065848762301303
0.066559405547573
0.0648172778908315
0.0678110290169146
0.0643147368619556
0.0646321638082064
0.0644527751619145
0.0627348223484167
0.0662005192008114
0.0653898652404853
0.0659281218365394
0.0653090561623796
0.0638008761233771
0.0647599329292559
0.0626487814626036
0.0628980975032151
0.0670006487424075
0.0620353007660137
0.0644270859965346
0.0646019669406832
0.0658549236705319
0.0657549713071489
0.0641080039586542
0.0648095073277596
0.0640525527510123
0.065225736639844
0.0637395491947274
0.0660473321031019
0.0634227494026665
0.0625496750260766
0.0642394302402082
0.0620234568051169
0.0637035049115301
0.0618362938259124
0.0637009663058547
0.0611166423235132
0.0621206318949846
0.0615569962912116
0.0629206274088988
0.0613592057887113
0.0642667513440296
0.0664406047370738
0.0632109209819387
0.0630226312240933
0.0611646201697544
0.0620854141849195
0.061325955750169
0.0640186981019206
0.0631498552465995
0.0630611222712282
0.0606141927698317
0.0615386351525498
0.0617199524024361
0.0604397030441271
0.0628698811469464
0.0601564571632199
0.064737512837707
0.0593585213898473
0.0620956499912435
0.0614996303337121
0.0604783043355873
0.060701981305613
0.0620331979119763
0.0603554597908037
0.0616218563855832
0.0604692810592472
0.063278155834455
0.0602452292415262
0.0628249814378252
0.0613896033740193
0.060230305665982
0.0621762748132782
0.0616530804133447
0.0589191287760195
0.0622303514424735
0.0611999034330815
0.0620432824167988
0.0603981766724255
0.061099686974306
0.0620142683520662
0.0591471344999274
0.0591816809652074
0.0623308676482721
0.062229207929639
0.0591556796111694
0.0608829205264091
0.0611986681497242
0.0603384748583544
0.059725281026827
0.0621061780224743
0.0619849237502543
0.0601309584353054
0.0626152643499867
0.0584199412357761
0.0598862254048138
0.0604631796768809
0.0586268595416646
0.058026631658138
0.0613799626110128
0.0594181968303465
0.0651997365530421
0.058062846632546
0.0590261635553239
0.058581289363122
0.057216563698932
0.0597058710593637
0.0589938241013907
0.0591181930284582
0.0567286419321789
0.0579057492423144
0.0582588371797554
0.0557410357171876
0.0558947488876765
0.0576205474383828
0.0571697142657539
0.0566776811796608
0.0570055024003938
0.052765130608349
0.0565866051746253
0.0549854018071331
0.0559222272922707
0.0548892781705085
0.0542634972989292
0.0538876385055645
0.0585655353557111
0.053799205238963
0.0571354513865515
0.0581831823229851
0.0541923923515924
0.0535134200144272
0.0525405747875436
0.0553888851705793
0.0529679212644549
0.0557968367310303
0.0516341029964019
0.0544088267769035
0.0547009764408224
0.0520490038370636
0.053884457316134
0.0549490401236241
0.0505676328911799
0.0520092128614587
0.053366176656379
0.0499261408362761
0.0524885804011828
0.0516298187012882
0.051244361146373
0.0535738373963199
0.0530420140217867
0.050157140774773
0.0510719756740836
0.0501851681151814
0.0505992901973403
0.0540039005549024
0.0457003331203755
0.0519830422966513
0.0501770575004589
0.0503265556677756
0.0494977752364315
0.0499394141220053
0.0504839250513157
0.0498926650657527
0.0502698074701413
0.0493460618269945
0.0515482744065924
0.0495295958351536
0.0480539182252624
0.0492476314846378
0.0467806890317307
0.048242129436834
0.0496166454100598
0.0486635627941962
0.0489284383945084
0.0505972790143508
0.048030598574941
0.0502107973536401
0.0474819348733566
0.0484475921200359
0.0489531280115022
0.049999218041352
0.0470366345487628
0.0499917424836653
0.0497039542145511
0.0501042408576931
0.0500660681184728
0.0471478964942718
0.048569975642816
0.0490528483773861
0.0480647788998462
0.0476393379003972
0.0492155543187733
0.0477889509330257
0.048723698167851
0.0477385986090466
0.0483384148968853
0.0458698790643101
0.047153179978269
0.0468722383115633
0.0479624867742721
0.046380787591205
0.0455782470707192
0.0459384870456857
0.0467309382243848
0.047048656874633
0.0486437408761703
0.044675095400881
0.0516427613003903
0.0472520844834199
0.0490077081565215
0.0490174999370782
0.0450098754122326
0.04255218021301
0.0449623219502717
0.046638537670103
0.0478195163486443
0.0444282520753587
0.0453877231711631
0.0459089381421819
0.044521080053714
0.0453106252820948
0.0456206130448432
0.0441031759357147
0.0444370313463134
0.0446517838262112
0.046666847066453
0.0501580445538963
0.0424603059392161
0.0503138473684566
0.0476059650114826
0.0446764838427428
0.0509121303138918
0.0441536742019826
0.0480550240889231
0.0498684959174041
0.0376977888669148
0.0519996644631204
0.0424717696844772
0.0502257444244941
0.0449312875785717
0.0494239835388656
0.040855632104966
0.0505236692388378
0.0431193192440625
0.0459382592171133
0.0474905253877765
0.0477349975943256
0.0473181896357596
0.0465469669289802
0.0478160197607342
0.0476840166901426
0.0449292711965187
0.046381052897163
0.0455511192408526
0.0443570815250737
0.0473432973522597
0.0454846204236488
0.0422435033852912
0.0482026785809092
0.0401955429274236
0.0475554362244272
0.047146022714827
0.0479784211264074
0.0410675661207271
0.0524829799067498
0.0468584716337912
0.0488099751497537
0.0464585083838216
0.0444717133076676
0.0463573274127168
0.04536782939314
0.0448366239048189
0.0440576124183586
0.0460509740392958
0.0454600642670427
0.0459933872464024
0.0426685404688917
0.0448504227055505
0.0439398405684746
0.0466334740833163
0.0439008690119622
0.0461105582665101
0.0435101091003184
0.0454723677507611
0.0452999827504958
0.0425821853318262
0.0532610386826601
0.0442200049154777
0.0475057192953994
0.0445000190363036
0.0470606645530504
0.043392172271387
0.0490018132110282
0.0441967738874224
0.0471433641298369
0.0427829351906662
0.0456819480000817
0.0470833515202905
0.0463766370428584
0.0471087154007272
0.0463616248446294
0.0464232414594851
0.0468472671999425
0.0460981030843214
0.0482866665658857
0.0444190228942582
0.0457321511134721
0.0450098411187084
0.0477428565363964
0.0514403149334668
0.0472313452173039
0.0523362448634216
0.0455845065158677
0.0697770947425651
0.0382977623514066
0.0484081892794544
0.0444026331856019
0.0476328841049518
0.0472706225168035
0.0486246927884027
0.0496682574523489
0.0472714068949739
0.0469312414908895
0.0510062691138192
0.0476638867863842
0.0493708910610413
0.0488547888675325
0.0452691811444265
0.0511995829382371
0.0493151192617228
0.0449877841858398
0.0538880545067413
0.0455215142279538
0.0561947399059241
0.0476103473827446
0.0484176621642931
0.0567912037140603
0.0460910867176616
0.0491199811891173
0.0469513714706665
0.0507645535024149
0.046537876373658
0.0519146966047426
0.0461739618145661
0.0516919708327252
0.0484987220287725
0.0509667630455696
0.0531739391069277
0.0490515995018972
0.0545925039838228
0.0515125867848654
0.0485933564133364
0.0555400394067545
0.0452926626759616
0.0492926453388666
0.0525288046423794
0.0527864271226258
0.0501055997426426
0.0585120151758649
0.0559414720636289
0.0569854395901452
0.0557899031780155
0.0533160857514449
0.0527073392664507
0.0592091620520077
0.049094984450812
0.0604003072680907
0.0482739920600577
0.0707837603041411
0.0537629035163769
0.0574734965631667
0.0592131835182804
0.0526695228536501
0.0602161199702317
0.0531876375655176
0.059247082103609
0.0530825767027441
0.0648486033648279
0.0468500270631426
0.065137399560706
0.0503786696417377
0.0721818222491091
0.0565434283911722
0.0636196567706354
0.0562338838473023
0.0587339167482188
0.0558582762998294
0.0660128595838749
0.0563970188469997
0.0621302209158752
0.0756077605540635
0.0586682431753506
0.0658899456352964
0.057945543904608
0.065629640661244
0.077145109961044
0.0547425712065234
0.0682530753107797
0.0578032891910587
0.0691574420891862
0.0582988747708757
0.0700941562160603
0.0719456838294659
0.0649931056196634
0.0665797862823328
0.0677730520666724
0.0625046535169804
0.0792533568215124
0.0637410721513767
0.0721277873499791
0.0662351786132524
0.0765809776147651
0.0653187196512035
0.0937850816710131
0.0618824398234657
0.0824506393480925
0.0733747501147934
0.0832838357873596
0.0802416419509132
0.0799514507947048
0.0821227022789816
0.0846086430729251
0.0824488117511159
0.0830919017345853
0.0792721584397708
0.0959152974323951
0.0933827094972129
0.0829346456494931
0.0923517564475859
0.0833600533985465
0.0958002533366084
0.0944017468837299
0.0977135684323093
0.0919917011171953
0.095363673780722
0.0956892704028059
0.104461931737302
0.0895110318782545
0.103350171909947
0.0978777205155292
0.10401025310453
0.102363069650608
0.104406657378673
0.110295820554625
0.104642184830062
0.1075250458678
0.108809282243805
0.112411345905668
0.118522133794705
0.121263829404493
0.120589471501445
0.113356229469288
0.143750535905709
0.109775706997097
0.128534419603041
0.121515004947475
0.124301102729019
0.127072197874122
0.122070533544695
0.12796305426656
0.128250973508827
0.147051953657405
0.132422200529906
0.133593088870052
0.142765563306211
0.134586364667142
0.155956381742425
0.140299098072045
0.208939608237651
0.132733236004232
0.17312151196416
0.158137311768804
0.190273139197224
0.177161586328517
0.172470164311202
0.184685100238454
0.189995068610899
0.194971750671186
0.205745481322033
0.202570462292594
0.212488385130595
0.219064073464371
0.226477302278989
0.226443340909647
0.258917935850817
0.239751051227562
0.255514406910076
0.257935820176165
0.265399077294548
0.278572046854497
0.28486594635724
0.280918284530438
0.302956360327181
0.300893772095581
0.306036372237553
0.328892640019979
0.323286148078976
0.335163046800702
0.336139570836229
0.365844208033716
0.342706877286351
0.386981534426261
0.374327315011956
0.380152582909405
0.388564476742418
0.394532743583085
0.40740226906477
0.401459615798926
0.437996081970203
0.413523983306868
0.441046186026887
0.439075569554046
0.439123962259665
0.444693905805349
0.453654239183861
0.460201723823665
0.455006200854735
0.498131253313784
0.46749475755127
0.469375955244071
0.46419815975477
0.472595293008467
0.483302406825763
0.474454370878005
0.502873919439605
0.472738505159974
0.494249290840431
0.480205584379766
0.487210963411685
0.492533073177216
0.483424412785339
0.485722264489744
0.48009261122777
0.495271222563375
0.482213162700768
0.501064946819729
0.478182077115744
0.48046420673478
0.515182428663024
0.482865573740299
0.493632819207717
0.479929891237434
0.494470154676242
0.491353831489804
0.492392971717909
0.479239543914379
0.502477210621886
0.470520070071996
0.485109869024761
0.470099354913541
0.476477580287457
0.457916808256858
0.463975087408689
0.452200739570992
0.458434881160527
0.458655226661266
0.447163635533546
0.449618304592443
0.466654494500445
0.427493248478859
0.444148869393588
0.436279095677389
0.440162324020902
0.430806195384644
0.428493713684272
0.417443336597618
0.428777056697851
0.425022326905176
0.423656096675641
0.413937566471627
0.419407713226282
0.410505190544523
0.414719342994852
0.403737727107296
0.421899036808079
0.415079809341728
0.411771602218489
0.409934801047651
0.405458275919349
0.4085758370234
0.408859440482311
0.404546221233442
0.40431235588646
0.39846034048947
0.410575463543957
0.399465967162877
0.40075127096684
0.404739304661498
0.401469178454652
0.399547776343918
0.40672127970206
0.401149965297426
0.40124849268628
0.400080860745021
0.394003398530494
0.401760041895792
0.398518038399205
0.3945134119045
0.390712028182478
0.398821445190831
0.389121494298713
0.40222065419226
0.386652220290053
0.37548039581104
0.393441786630305
0.372749772330534
0.383776471544151
0.366093380638857
0.382539941221477
0.370239781597779
0.36820988330882
0.367713923146488
0.362080257133979
0.351689454438608
0.35923059235184
0.343080960322448
0.363512379426372
0.338241178286289
0.369119245611769
0.358962387547006
0.330237166203863
0.365896562775876
0.340135740105898
0.34176558432393
0.32912022457815
0.35451908276255
0.317089425710422
0.33377819272717
0.325962796410783
0.33380510590459
0.330348843558607
0.317338122397669
0.324197823655366
0.318352683597542
0.318800687427706
0.32775006299053
0.320239566451651
0.312918662821704
0.327005098136006
0.308380353891165
0.318864365558782
0.306018214186442
0.307628494941962
0.299146837498477
0.298707359124095
0.295880255004643
0.289273169678035
0.305710609547931
0.287233394030684
0.289611366038462
0.285606616246424
0.27594866970096
0.282068911166676
0.275747812952928
0.283317663937304
0.25948503215408
0.294660899111488
0.268602711075628
0.27831514213125
0.272764000802534
0.272855873420779
0.271643761698284
0.262780944684176
0.266005969123439
0.26043196697697
0.271150542555801
0.250736112849574
0.254726170602168
0.252874168826833
0.248104846725049
0.253062919704783
0.242967749428228
0.245291547346507
0.245493486938059
0.246871002708933
0.25660941887066
0.246494045848796
0.247191866162378
0.236537398477897
0.231777325946673
0.240623078632723
0.232520696259779
0.236280360807112
0.234676716689594
0.230606107786148
0.245404430240774
0.233229888245669
0.254683836736645
0.236286264648707
0.239674284259558
0.241415750362085
0.241710051605166
0.246970974176508
0.259173791047861
0.253912214501095
0.262861295275766
0.249480062609735
0.263363821192561
0.258074303284574
0.271295233375773
0.266451795085882
0.278022058351483
0.27810069482803
0.286863518092146
0.286984261080315
0.293458817173374
0.294788279344058
0.310468652585105
0.301605037668249
0.338876538006003
0.31648038322762
0.336636051912193
0.346884118949733
0.349921329961048
0.353654397960486
0.355185787521003
0.366622438766397
0.370740903667396
0.381703682174429
0.389677723211681
0.378468879980094
0.405857350596896
0.396150596150739
0.402664989429801
0.403903749718164
0.415935432550004
0.414054402680903
0.425469054687612
0.433751513535801
0.412816154382569
0.445379678845705
0.433142571174724
0.444406869632705
0.435698126651827
0.448161198684985
0.450622743377736
0.453101875047437
0.459008491641983
0.44996770536727
0.454196325960252
0.456107981343607
0.464091007017678
0.470692356545819
0.46982448431463
0.473592155907528
0.469843737888778
0.47774970798025
0.480952556311621
0.47794734609228
0.493915773102337
0.485043291414829
0.509836160586193
0.510757664258095
0.50139800064544
0.508769018586602
0.50156857036088
0.515098903184305
0.512905197326264
0.523298823023939
0.535921378760901
0.530160475168882
0.532909118778323
0.537660517760599
0.539727059005359
0.53556764544619
0.561316985604305
0.550648215906195
0.552793144392598
0.561644198365403
0.535201622297043
0.594824470706239
0.564589294600818
0.591310172739711
0.577461056756133
0.579475693976654
0.575259754430023
0.588175368190921
0.575271257385652
0.582102859602443
0.581477991503388
0.580260221315842
0.580305075128038
0.585404213647463
0.588927717085661
0.579412525066931
0.587558670565785
0.580464183942676
0.577911263970426
0.585881863535364
0.581753517791446
0.580301205928032
0.581331282608106
0.587396171685211
0.578336483181032
0.579281153198433
0.575587141582763
0.592485031938284
0.579739039494078
0.579598171789246
0.577964382364195
0.587874886925597
0.582479102430601
0.590144418335894
0.572721741575388
0.591134525341387
0.592040786449106
0.592255026289958
0.589474977940105
0.594245851099394
0.59311247742614
0.60776979453297
0.602278539843221
0.600564537064113
0.60827336619586
0.61203289618268
0.609328207423256
0.602732401988
0.605972933224907
0.599084666718546
0.603955616355768
0.597461074555512
0.593761899667774
0.598125127819705
0.586765757156366
0.596081679941469
0.587615731883698
0.586781641156951
0.580141738013228
0.576975451531495
0.568583843374992
0.578066318833833
0.557644699217136
0.547455131979215
0.559029082477164
0.542749807498736
0.538328275539635
0.539822921815216
0.539313292913053
0.534603602355448
0.533164215862204
0.51904927455437
0.526067599251865
0.521588275038495
0.518896256527928
0.523153520576285
0.520995091133628
0.513866315933164
0.515064175786
0.512828400209632
0.513797897226137
0.518746991570717
0.512705479854109
0.507749574962187
0.507222386775718
0.507300719858566
0.519325634264692
0.507676446071219
0.518044617354131
0.514600782132883
0.517990769943488
0.504610467606573
0.514808348025574
0.516938437274097
0.507548635591998
0.504535072937543
0.505907674476815
0.509650584001856
0.507932086156468
0.506390940096627
0.502279902842835
0.499996859375341
0.500504655524361
0.504091739288173
0.502928644442684
0.499841312788915
0.501536704360878
0.505348017647257
0.500094094833553
0.503010606854423
0.507803775416412
0.503993274514424
0.502784297717632
0.502092031269694
0.501022165367811
0.503494650467015
0.504225444268723
0.500139330259496
0.504093778877903
0.500515087320307
0.503132963354212
0.507053661210487
0.501223317974972
0.503780100434745
0.500312353443026
0.494148008789127
0.491793581624854
0.489703191601139
0.484408509705481
0.483397780546543
0.478651201824635
0.476807933796694
0.476348692159649
0.469800572280097
0.460538144390795
0.459107936715739
0.455332910453344
0.452515641191668
0.457009168632495
0.440917863321995
0.441385258390003
0.442343051132708
0.439322496592948
0.441448122703287
0.433347530293995
0.438381108583523
0.435033227125857
0.432026647264413
0.434670644513591
0.436600907002012
0.433335298896254
0.435842527353864
0.436966583782213
0.436917423750953
0.43707965850719
0.438431970348446
0.435274179894091
0.441756473338068
0.445614777894113
0.446308809927431
0.441734444762244
0.446410270850514
0.45199050828075
0.450927907485537
0.452698254399691
0.458585074939256
0.457508685276306
0.460817355427271
0.458673915704317
0.460212370407015
0.461295912019487
0.46294170298418
0.465227256673959
0.462069088532752
0.462409071161068
0.46323425184297
0.468005325757335
0.466832442121007
0.461915398385978
0.462295647033717
0.462212601590635
0.466013704406951
0.461172432820802
0.458000097228334
0.458624829642822
0.456507537894201
0.454792686680138
0.455007825015772
0.452206764018803
0.448159360936647
0.446265696985437
0.444224830246532
0.445067330774261
0.446675531536815
0.441135856628472
0.44043621104749
0.442855277379655
0.438305803555326
0.432148854247993
0.438539008626827
0.43761554565012
0.431223227663152
0.431238935008742
0.431208598184776
0.43124773084516
0.427161851033763
0.425631210125406
0.423027455530925
0.423548103791641
0.4234724541433
0.422446300580838
0.422360052394268
0.424448345419227
0.420194640216776
0.415389624111367
0.412289102993716
0.414435127568916
0.410675732998097
0.410964652135224
0.405025093253323
0.40152894703914
0.398591720362435
0.401340033199013
0.394469721678686
0.388878218672254
0.388085684997368
0.385340967677637
0.385433103813274
0.380550744805019
0.380133951067994
0.38228814164908
0.375379299423336
0.376922520411575
0.376736614417216
0.374397441998535
0.376097846305729
0.373698981085137
0.370489218308993
0.370479734032904
0.366635059139178
0.365399167406561
0.362531606684929
0.359096675000918
0.357048018710735
0.353036629269243
0.348707535628541
0.34212017254955
0.339339191682887
0.336285442391148
0.335958302305357
0.331903886225696
0.333008722867555
0.336123846387758
0.335457295904998
0.342820470158036
0.347840983441066
0.353667770658028
0.363362067488321
0.374504840977469
0.386524933352056
0.401307770194388
0.408685187705394
0.428983306868894
0.445313947028412
0.460505860607682
0.482336366409303
0.498765864236529
0.516857830383971
0.533971922564742
0.549749970718046
0.562418774742659
0.576875406956246
0.594053622726608
0.611645129185113
0.623626376351218
0.640591147250284
0.653438214496413
0.670986707031024
0.677529518087588
0.690166204772282
0.703890352652252
0.706996224259317
0.726480557217253
0.722584093906788
0.73307028609545
0.750166864745262
0.747583478127563
0.748385976437175
0.759479139479644
0.768573696065343
0.764805229132849
0.763118046776655
0.776208269815702
0.772556216116375
0.775370715209253
0.775699461882125
0.770865941314589
0.783053616985755
0.780478159459771
0.792107180441116
0.779820495636222
0.78453008263362
0.790410670453694
0.799060746644305
0.799283974429522
0.805369232073243
0.812793133392206
0.81585482095039
0.823687448028108
0.834470583994057
0.825771481098105
0.841712460376479
0.85901514247677
0.87225247871998
0.865758572556593
0.880066179673082
0.889324152289263
0.898043209624054
0.919943139043827
0.936985613318258
0.949740438141326
0.957254983808226
0.980861704837296
0.9766373243681
0.988027092419563
1.00329914173895
0.988140340513505
1.00497000598335
1.01859626828426
0.997864852004327
1.00342397661919
0.997959892193652
0.995819271147786
0.974904387550123
0.978189129421184
0.968299710679544
0.966552439931334
0.975465311187965
0.983283335125132
0.989470259756064
0.991196989349038
1.00641614830454
1.01806451824842
1.053266411539
1.06693846139644
1.06529716627379
1.10704921979592
1.13189232177474
1.14055293631107
1.14994806392689
1.16757329513533
1.19233036278036
1.19099838205355
1.22011650932662
1.22737112870498
1.24307065282267
1.28055394721328
1.3125840317581
1.310048977303
1.30952276412526
1.32560255354886
1.35266894561641
1.40862447962282
1.40382530734368
1.43154648724323
1.40810147661421
1.44028246842277
1.48424524174071
1.48666450714648
1.55373486616136
1.53428005040155
1.54947122302643
1.58001604005494
1.62795959480656
1.64123597397312
1.73268325929884
1.57675336945609
1.6616206050728
1.57909256283284
1.59227628028796
1.63473789364862
1.6544661184105
1.56883379934496
1.72216922415338
1.71774787148202
1.62998633582465
1.60831487408436
1.676430998636
1.59571213475245
1.663371987198
1.59517327979169
1.6566251617121
1.61406059966363
1.7115953270693
1.66654901158738
1.69982011218024
1.61299094880586
1.7654055061503
1.669883831127
1.74548072573175
1.67307639423487
1.71980563276367
1.67611952715148
1.79208849097744
1.75300586308996
1.81043605241406
1.80428002198404
1.76858040319613
1.84532149107434
1.77495360457378
1.76689735716742
1.79696534073202
1.78967175290092
1.92725567551286
1.83867032664364
1.85274079491849
1.98448411376302
1.92023708828147
1.70596489940687
1.68478660423969
1.90396578816919
1.97226158130357
1.85629682817604
1.85807080063006
1.67610463921767
1.9730202324547
1.82487240336628
1.81282129091311
1.77409371632726
1.90651983084569
1.73253853165362
1.81688972261319
1.84177689402901
1.66339764015583
1.71234272820323
1.71489330785707
1.65041533942278
1.63024747463871
1.52894632222303
1.54212278024811
1.40489452182093
1.38959333121373
1.30054190146873
1.27212761380826
1.24246971088342
1.21498128342064
1.14539937685677
1.13556079302914
1.07800629814817
1.09183036060364
1.06003712415705
1.07596103774531
1.05757673316285
1.04595546831886
1.03931363029969
1.01879344683315
1.01053508285246
1.00504132563353
1.02183290603715
0.975706022071698
0.962782207560422
0.969387193351285
0.945735385467722
0.936588995525343
0.907499095113137
0.889483996810217
0.867210988382363
0.858042715281423
0.827169420597954
0.821872020229585
0.775073614046474
0.76332219254146
0.725511608775897
0.709231943213081
0.668089705126595
0.640375110115783
0.608912519846627
0.588524879742169
0.566185423713179
0.537951546770016
0.504675769383642
0.493024312124444
0.470419961343006
0.443104402005341
0.433646157974002
0.413850574865541
0.402372991174047
0.387445391946387
0.382148942545769
0.368690748788561
0.359737467813986
0.350340956777768
0.339931768552333
0.341038677352522
0.335652343040131
0.331090181138381
0.333486446987624
0.333526880064382
0.326622845289393
0.327993273784744
0.327005860345396
0.331730190249659
0.322713442680636
0.332901810099649
0.333244418975852
0.337005152520273
0.335636288551353
0.334638618847128
0.340906455030864
0.340515025613075
0.334330026580634
0.336353177529883
0.328460584119132
0.329718146975481
0.334386116322022
0.325158651607732
0.321201929059742
0.318466986435813
0.315945022019355
0.313205945619549
0.300437079716065
0.3071626944048
0.307622881291683
0.308196693359174
0.312792694231574
0.309166673605972
0.31521610911155
0.319211032665773
0.318344965870012
0.322874960257853
0.326322810320272
0.327797683982159
0.328208435760782
0.340660484144959
0.335190354037972
0.336820868696397
0.347521247665225
0.342175781602306
0.347929436692046
0.364620079025904
0.356885193274242
0.361102177660593
0.367781930087614
0.366672032887137
0.353862769779068
0.3641646947651
0.359502321970381
0.373081002573368
0.370177925295792
0.37604895918868
0.374104413065795
0.380850049129116
0.388663410369799
0.39498545891602
0.399394405083697
0.419378957246038
0.4195818235185
0.431572718582614
0.439798819364782
0.454095416366652
0.456401162450973
0.489755677087635
0.492651764746022
0.495885028542323
0.499102887221495
0.512902057423926
0.50571048068316
0.507116082428797
0.494157720539611
0.489376122996226
0.487724331639362
0.478933119496653
0.479375033525725
0.467303364602472
0.451334304397445
0.454571167511097
0.452202607798092
0.447879117895602
0.435080393375788
0.449605663102056
0.440958765285012
0.456369745492046
0.444041816555251
0.44595456454526
0.447556087824627
0.444487907766994
0.441631235515718
0.431512142147264
0.432169630257338
0.428258421505559
0.424263042143266
0.425283374239383
0.410312714071243
0.409862372310712
0.390886748261413
0.400660816130317
0.397313715482535
0.380780874055347
0.396247543820074
0.379250335690501
0.38393349213058
0.377132419373591
0.368459008309133
0.383377571702295
0.377572629430369
0.374307510194841
0.361693416746547
0.368164687442176
0.366550220642104
0.359486030106443
0.353626711878093
0.355345589942146
0.355905806750295
0.362420321327353
0.346153200090406
0.362296849075496
0.348204771989613
0.345806606629085
0.341922762276999
0.330469934005293
0.346866036942058
0.343955940083171
0.334408940745371
0.341011302473673
0.330585300866623
0.339527258975127
0.326347570683796
0.331702280161356
0.331834452818835
0.322362248935262
0.316603837431116
0.323353771196387
0.325706467965784
0.332406070643929
0.327421977826996
0.320523794611457
0.317437162722715
0.333192771958795
0.326327834290266
0.32488575783591
0.322904800149523
0.323913357172222
0.341576046547164
0.329004510189945
0.33920906807825
0.339058917730471
0.336672001287329
0.330798698375545
0.329011575939018
0.343444933382535
0.336704012820081
0.353056825889506
0.34245605124934
0.363928646685666
0.358437944331771
0.366118709607932
0.376704733657433
0.364927793485633
0.373010581455588
0.400406234312034
0.373636962720822
0.387065748197703
0.377502524317543
0.399047974344576
0.38954654574092
0.406052619391813
0.40079116261723
0.437125377322414
0.45190291529982
0.445201908370411
0.462933696711639
0.492269873000531
0.501160656680853
0.495408466371189
0.526544400605937
0.536592380633659
0.563456773081002
0.584083032336281
0.557299400906096
0.57161420146764
0.58478239671754
0.618831813031752
0.56857827434158
0.634781755889585
0.625474167964284
0.630795055091988
0.599912514225151
0.627337485106987
0.59437254655174
0.619574279165198
0.604460132243189
0.609115433614408
0.557907484678078
0.602371402961577
0.615363283327045
0.606564904177484
0.598400334500432
0.586131166274314
0.587901280823571
0.605120587182879
0.58164995732455
0.614596351061446
0.52321988804966
0.548063573339143
0.565837070232836
0.556807409090852
0.51557042517733
0.517962837714165
0.513877633052769
0.51653822427978
0.493698185568136
0.528168199220024
0.509317555523805
0.527448502899192
0.51122678488134
0.553852518826738
0.491158044746382
0.516487559133628
0.478036248067739
0.505107161318242
0.475955226772389
0.532645453545217
0.479425421692014
0.513429764643875
0.513732434083912
0.538825227053966
0.484682327904136
0.519051550614233
0.499623601561941
0.47669004227911
0.485584628732624
0.540537863952698
0.495318018198782
0.549187981416141
0.515830635539695
0.565057841998077
0.610326940507812
0.540888679156382
0.485978400099753
0.542737689821506
0.555833649122799
0.568071546939132
0.522487373697361
0.638382516277707
0.557844249735435
0.597909125008709
0.630616917641288
0.572458174577746
0.572123332989526
0.685460115918388
0.568710952435865
0.577421635901854
0.58618167097708
0.632338990450199
0.589015625474183
0.674807062770852
0.538292473163314
0.696599030957318
0.633529273512203
0.654559480934765
0.651340867470805
0.692452155865158
0.665066879493785
0.73284929667855
0.703393923743669
0.848042062510143
0.689668009802345
0.735737527083692
0.720884493568047
0.794595602518962
0.660604760913381
0.786259863881859
0.717970217181857
0.676387838447684
0.782656624742396
0.882805184292952
0.726963260304429
0.71403314019614
0.743216501236764
0.653088625487638
0.691330828416544
0.736518666650228
0.535604097394659
0.667107601686722
0.665135329363429
0.708350448903527
0.499146800548629
0.725405524880466
0.705890675123592
0.649328087286458
0.473509145899671
0.568248923145621
0.771429139819514
1.10302705619742
0.680831735900675
0.677414769914307
0.709374256126767
1.1736395861628
0.593805245703946
0.667495493844769
0.826465714070633
0.681115129406416
0.663863924024707
0.776601265798518
0.563508509472866
1.34787219570388
0.568163410496103
0.543365768584937
0.476018042996455
0.660249789143935
0.567290500596701
1.21615399082475
0.592934080330228
0.891653190342422
0.856829228565937
0.513444194929464
0.40992112274008
0.82099481398146
0.536978911039771
0.606024655587283
0.735013707116796
1.37118832323256
1.4730886533283
0.663535891309439
0.353806439035104
5
0.74134795306144
