3596
4000.36533379555
650.420452594757
1
2
2
0.0197988942607503
0.0214429952903516
0.0252993863878692
0.0202355513278329
0.0104030867451047
0.0217136945945807
0.0243453972257077
0.0130402263261451
0.0164271417403578
0.0237109325226889
0.0241889386803666
0.0206754643361429
0.0130032580161873
0.0104735514152557
0.0212608387952552
0.015222659968043
0.0241056184627868
0.0189818105610535
0.0213146022048553
0.0195960592371605
0.0193775953947689
0.0157009741353518
0.0127720331093167
0.0265259362901757
0.0214613413231099
0.0131849033992155
0.0213892574649434
0.0266744401733811
0.0191244154684737
0.0287007829377071
0.0227211531879529
0.0218619757334692
0.0166677555366204
0.0191397200177422
0.0153986616551278
0.021605289906052
0.0243649201465945
0.0187343972233741
0.0114842875284499
0.015334917867995
0.0202978261136653
0.0157972927800492
0.0236571265741861
0.0219781734263029
0.0130858983967216
0.0160656138743586
0.0177002678247001
0.0248051815623467
0.0142765558241985
0.0155723597229963
0.019738707709251
0.0239877892073988
0.0266346502211024
0.0140153849706399
0.023602481060806
0.0133584419972587
0.0120547233121677
0.0201694258297912
0.023844312268364
0.0214962699436041
0.0315031042827238
0.0101023305705335
0.0163188278061837
0.00469879587300086
0.0267165793601038
0.0148224479205048
0.0171075983647454
0.0144347872267059
0.0271138298241081
0.0202472432780503
0.0235359561157048
0.0244693666509081
0.0180814037293511
0.0313884468667329
0.0209703184994217
0.0148857965664039
0.0170410910907394
0.0214709455694493
0.0256494305518445
0.0238799533020914
0.0266699455617754
0.0204849756632743
0.0123717756172122
0.0186994344678832
0.0306836041161073
0.00362793711818209
0.0161932943405353
0.0203387202117806
0.0169360198386822
0.0115439510424129
0.0151458979821559
0.0184488531890985
0.0226265173937428
0.0151598759581294
0.0211985919614163
0.00802361077535252
0.0224410190507257
0.0060664290522591
0.00384416911251317
0.0244157170212122
0.00482097024758904
0.0391341153814567
-0.000191535612186979
0.0379270647323116
0.0231042756585068
0.0174257366527107
0.0527793004992252
0.007069994668205
0.0282373323791125
0.00815879138341149
0.0183231319696828
0.00880951447991597
0.0311501151937471
0.0167473658756986
0.0172239359679684
0.0170961468549264
0.00935673731125423
0.0136107887727663
0.0189759593309431
0.00937312996924358
0.0115958073258835
0.0349176426356838
0.00572011575134163
0.0285040732198056
0.0162967648170416
0.0201834968067124
0.0226615200730309
0.017864511492922
0.0103367031627083
0.0182089751194229
0.0124390757298502
0.0259626533361915
0.00768183076630446
0.035997980617566
0.000370531773175699
0.018778632574003
0.0135938374163908
0.0224713291053038
0.0514266648241552
0.010641990544568
0.0218606797400446
0.00715779883679614
0.0165744707481188
0.0135818807229059
0.00827743293637478
0.0131102058539989
0.025036575581401
0.021311506473308
0.00940365535645141
0.0187858727590247
0.00497811110985845
0.020682533333858
0.0207192842549576
0.0192443785972263
0.0225363723931616
0.0505202038464386
-0.0172323640331793
0.0744702164618404
-0.00422104944986022
0.0195694176409337
0.0119984940358391
0.0101725169537034
0.0169054131313261
0.0180556579944573
0.0246867817539724
0.00940326027452296
0.0317940336645645
0.00341831148515707
0.0145149221457018
0.034123673324588
0.0218160141737641
0.00286470379719142
0.0353830401815385
0.0102819355876703
-0.00237898123308135
0.0325913113754252
0.0186942185474098
0.0160418076788669
0.0113255974930625
0.0241986643695987
0.0124573471294387
0.0169487381078737
0.00722736242363039
0.0152824870396553
0.0201612445943101
0.0163502807884869
0.00850103925185222
0.0210659635670711
0.0162496601686669
0.0264289991633825
0.0325303822442945
0.0259394107432768
0.00225328551359434
0.0216150480237576
0.00567812667108907
0.0197926690945811
0.0342092525454728
-0.00467455929471513
0.0225813672777664
0.0156941143817028
0.017624831900078
0.0166194399437807
0.0176131153919698
0.0160816613487144
0.00747443977984637
0.0258400210680364
0.0192267071177705
-0.00500544536437577
0.0197613567011652
0.0186523903349997
0.0252680548115645
0.0211084250414106
0.0540173839520123
0.000857812538145303
0.0249398430309264
0.00788172191083395
0.0127625509995543
0.00754121869706118
0.0136884928302519
0.00983065595579874
0.0219861195541805
0.0133985678533309
0.0211173713013488
0.00841891532101693
0.0184759774398241
0.0118124884415007
0.0163726240705009
0.0146603490762925
0.0236534433845825
0.0223383665173405
0.0275421216473633
0.00831577557169437
0.0220329883065001
0.0195172623093776
0.0129795644014809
0.0268626180606343
0.00887839890608893
0.0116190756778015
0.016413486166406
0.0128527649809876
0.0128537185144132
0.0112037094916156
0.0147657895576254
0.0150481258889772
0.0123730718197231
0.0283148035269302
0.0208695316417827
0.0150582696145799
0.0223766538478522
0.004280985165837
0.0444091718598841
-0.00645914680694354
0.0312622350216942
0.00695161409145419
0.0258681180744561
0.0056798072031778
0.0434943053263504
0.0180489844571522
0.0191521732942175
0.017065858097963
0.0382741746066119
0.00623313868151931
0.0349537217445809
-0.000928439305298096
0.0274281013749261
0.0108862503206752
0.00340810560803477
0.0322959616826712
0.0328871909582585
-0.00351418224102869
0.0381905496575957
0.00146773781346556
0.0542275638727112
0.031707910449747
0.00904831043235768
0.0111847441480505
0.0279367802746079
0.0221873886970403
0.019755981111273
0.0267721958322264
0.0117306617970039
0.025352477060255
0.00356250287260511
0.0381383215341236
0.0349556103697805
0.0144414126831168
0.0589073980394909
0.00403738282646161
0.0316747485275885
0.00170784435122371
0.03751594826193
0.0110269508975439
0.0431783022204079
0.00775167948498179
0.030645778513363
0.00469710487561082
0.0383344527893187
0.0154135377675896
0.0191032161446802
0.0100732601227046
0.0299676955649513
0.00678599682808019
0.0287084639361151
0.0136658628721888
0.0259010498676118
0.0248197369559679
0.0193098696848253
0.0290930635531412
0.0429720571433698
0.00728805640278504
0.0295276060212841
0.0159126585607971
0.022620319728184
0.0214902455600201
0.0234943565227586
0.0171245364468539
0.0188902992101653
0.00934922359059585
0.0262456919451616
0.0223591864320438
0.026859134988241
0.0188228095282826
0.0194341581200295
0.0194158953485354
0.0219533837275804
0.0183849587048852
0.0232554706393841
0.0217631359870786
0.0188139265092493
0.0136152463053827
0.0494453382941314
0.0220767452747387
0.0256398003859296
0.0669110226064115
0.0239126699471587
0.0152264596363289
0.0255991770051465
0.0219950270376995
0.0306588862084196
0.0189531349116329
0.0366781779929076
0.0288826087907488
0.0369180059778597
0.0347483097148757
0.0381932681138378
0.0223511539630486
0.0468856416941373
0.0552165719683172
0.0446633677761824
0.013739956034652
0.0391082507767612
0.0180119462518204
0.0886090306193547
0.00635630289466643
0.055667505238744
0.0192667490674693
0.037758341232485
0.0291325203681609
0.0363738536845529
0.0366211483179067
0.0373862489957451
0.03331306496617
0.0378585728388843
0.04025035019322
0.0385008068357796
0.0410502387275936
0.0417467837039101
0.0505873036406462
0.0535122725191716
0.0432250811895348
0.0503203514412054
0.0511867283470916
0.0589376753378466
0.0672333461141999
0.0516792451010255
0.0758576853887447
0.0501178214138528
0.0744853878267553
0.0579026048162396
0.0445149747147397
0.065744154254819
0.0488987081504416
0.0672205028727545
0.0570923706282764
0.0704477063478544
0.0632716004194544
0.0733886796947009
0.0610006606715836
0.0760030366116984
0.0647412619345227
0.0804045299432071
0.0572973307220305
0.09664839645291
0.0671657679489614
0.093072294348976
0.0727924481797703
0.116894873013657
0.0792447335831949
0.113891189574596
0.062967301511614
0.105065468666758
0.0772382358845206
0.0971592080597286
0.0815538046036235
0.103656229592071
0.0964346335748814
0.111697792813596
0.10023123189165
0.11164498125545
0.0931958622875358
0.112214366907632
0.0976071533327053
0.123419971514525
0.0941262092906619
0.128953085498104
0.107477402938491
0.132638536919627
0.107344231225536
0.141327486038016
0.11665941952007
0.152275311613105
0.126196700290885
0.122825349364818
0.119323097730382
0.138925466163891
0.136657318986188
0.145528601196184
0.132229889567075
0.141042131185215
0.13563193497987
0.158078585162055
0.143118012701732
0.162168715799895
0.157864008521016
0.175913578548933
0.157059261486009
0.169984486335425
0.145196512977832
0.183990288877965
0.154827854891085
0.206909493809965
0.167987082238035
0.181448347427402
0.158590089536397
0.181729030288595
0.177683482513043
0.202696981953879
0.175427506596243
0.205417987501551
0.198313035215948
0.205007933449755
0.199852249798377
0.223806447436546
0.194671630222622
0.219074601272474
0.203371478382886
0.226700030608599
0.209906722621692
0.226802088031022
0.204125692288994
0.226755375573909
0.218704655963558
0.272520763053465
0.229129635250935
0.285234607962823
0.23656075129717
0.254561596510299
0.240348424195552
0.264448046751365
0.250524930616638
0.269978581904815
0.265538511566726
0.28241120189604
0.26644795660086
0.288735269144871
0.254747165082673
0.291385701595662
0.282936854717714
0.301631313671765
0.276543398712707
0.320611748167123
0.273717429569995
0.300195671608521
0.301685461256064
0.327818202079786
0.307837410089813
0.306900819724334
0.302428531043107
0.31686504116475
0.310963424900259
0.336460636802614
0.322685292289258
0.356379045157969
0.334538260976286
0.362409078157176
0.325929441027885
0.405396001980998
0.338005601741382
0.371455471228244
0.343324128378834
0.361894975756619
0.343986559860372
0.389376866987391
0.36155558467571
0.40750979787791
0.367931476118121
0.432763891215895
0.385187654844433
0.399501261934421
0.385047408766857
0.435912289059448
0.388464516135152
0.405160710773409
0.379950494621975
0.444896365389093
0.421701726899007
0.43494731750119
0.40784443610997
0.459096830089019
0.4360352158042
0.453064358276081
0.415484878089193
0.490437403575649
0.436495881321074
0.472090972806326
0.447558085548755
0.506080254986188
0.449610573528005
0.477605387213776
0.450137967189247
0.502655774666728
0.476292406855214
0.49003174932185
0.495258877352153
0.52830780999573
0.472192709559712
0.525336224281414
0.493569317761984
0.506060663260172
0.480911455964657
0.540675286137921
0.49359897638092
0.571680643972181
0.531722227526463
0.580926464356333
0.52042456261006
0.550463433336565
0.531235134751035
0.565209564759944
0.517766456704191
0.572086621757726
0.54819256336307
0.599969823182519
0.534290495276301
0.603793668875217
0.567306383297187
0.624872404242122
0.554492533702158
0.636786387093423
0.57716963233111
0.59796406746156
0.599838588864431
0.648274583324248
0.607813949065108
0.633127006771809
0.587035527493814
0.651429699137389
0.593467061107129
0.620963493659843
0.627553104493537
0.654637534299331
0.611171790100487
0.680033068401519
0.61436011721006
0.700058572452751
0.640944390593261
0.671593954782189
0.666299842508832
0.71072230618562
0.648437747036929
0.73380854708032
0.641573463957072
0.715183863497561
0.660218955482862
0.742446974492374
0.712756718118633
0.753306123051367
0.708924822135318
0.764978257462387
0.725503415643419
0.777474135847045
0.690173917558698
0.814579864967653
0.729963075229886
0.781915041989048
0.717690949039937
0.74057018819108
0.696851322900747
0.81110875414168
0.709940296485095
0.762411946914118
0.723016506658924
0.78981655016743
0.726806139596608
0.767948169191009
0.766886288868632
0.818397835313643
0.796059826546721
0.836281080639661
0.750448344483009
0.807475606547933
0.747463069659862
0.89050437764192
0.845243464688562
0.872714732674774
0.76873418564921
0.814346833609216
0.794897654258191
0.842774674425535
0.76466092634196
0.882620397672754
0.816706473026799
0.867714058403163
0.827190965187279
0.85045182075338
0.819919183333877
0.869657684360363
0.794401175444501
0.868797647178984
0.806408908150269
0.912094287697977
0.845273462740076
0.887073911404862
0.84874695518086
0.952250829176958
0.90352202427647
0.885397779179872
0.868196004813909
0.929281965941687
0.896256153792971
0.855447256083574
0.845424106078464
0.969418494354654
0.825758284889975
0.989046474245635
0.884539278041358
0.917966788636336
0.800390039624183
0.950168991452824
0.902978801415632
0.897150450372977
0.889736506392611
0.92102879593941
0.829179364635555
0.943940310883026
0.91033431678058
0.959961172275717
0.905399067842417
0.971413726089797
0.899918789636708
0.977579567496755
0.971497317906706
0.926778788907379
0.907878469589437
0.97553683504865
0.894148674785177
1.01719483996226
0.939304587319177
0.999994356650945
0.944287548733063
0.997640109370012
0.931218011806061
0.989555521591359
0.936656868221542
1.00234556213941
0.936865006892453
0.999015140597686
0.945366054767418
1.05322298216035
0.955315931380277
1.00919254955475
0.968849346123191
1.04613322608985
0.94609761021473
0.984157068663303
0.989396692155889
1.01537733032606
0.941011396134458
1.06920849475233
1.05605425267243
0.998244437423747
1.00885477431701
0.992334138300882
0.917089135921451
1.00360863226081
0.959224250903763
1.00171890378476
0.986038420609236
1.04536412479102
0.990077195258918
1.06928716763655
1.00926591575335
0.981110806300789
0.954863375673443
0.982210315310969
0.919525217559203
1.03723993881954
0.921905339671594
0.979271403158398
1.02684234931114
1.04627258006238
1.02081335685063
1.05592560549368
0.969153342652195
1.05877237121576
1.01632942733142
1.05233336054077
1.04428712233144
1.00845323967154
0.919110837556606
1.03434592521087
0.977856655242178
0.95828172484479
0.980930015348993
1.07609959755304
1.0067434996916
1.03603397590545
0.976021354567637
0.993213788587932
0.986160862085148
1.03338753702505
0.99763156614209
0.980367348681043
0.99376978397116
1.08789702867756
0.980573858954948
0.995049866208806
0.948258963763142
0.992696046748176
1.00750266395016
0.98684553217411
0.939733599017302
0.990505954241684
0.980550989857621
1.0132469749532
1.0037959036941
1.02183713932934
1.03143020144506
1.03927891737692
0.958496325288285
0.977012585741913
0.999724577266282
1.04048516881681
0.974847909053696
1.01642754145363
0.958615736981311
0.967261622202955
0.945252801653958
0.971384819618074
1.00381623949177
1.03835170823898
0.978957828561025
1.01825667372033
1.01893797562571
1.03942983551913
0.998082086165652
0.981378513470085
0.953647273163375
0.997132596055404
0.999161726931561
1.00151819881985
0.945378153047582
1.00382896068759
1.00285158353372
0.98581334999714
0.963052957879426
0.971601715307215
0.975221435406997
1.01193650645015
0.953910017222109
0.963681706107634
1.0056523405869
0.961940936814834
0.921692217470296
0.966507401277061
0.935494966892123
1.01793237620147
0.985711080333521
0.924271475224629
0.974618662446341
0.984488160991584
0.932180567676339
0.949287027412725
0.904778758558707
0.955800893902896
0.957611123301824
0.981474905181403
0.952212907604612
0.927088584450208
0.932262687900158
0.968831560323241
0.924880703339088
0.909489635356195
0.925919437584152
0.95255260656612
0.933791091998591
0.929810485458564
0.929627415906702
0.948825837446544
0.900727506714139
0.930343359723222
0.90198287203409
0.928597395527408
0.91790053404863
0.893076202756661
0.923754237553519
0.936006942656603
0.909992645728694
0.882571420575759
0.880480165868774
0.911332213691776
0.903473537680674
0.900714528954042
0.865263568499751
0.880911191198592
0.896579147511776
0.914585780953902
0.863918956908571
0.840685451291971
0.847259460229059
0.901276452940626
0.861100157627643
0.850491355223915
0.882324004713173
0.904270479446475
0.873853377949691
0.845920529862087
0.838756709860726
0.856863262590958
0.851461207910584
0.831006821966122
0.826417893806869
0.817784903974325
0.813138264744474
0.848220503599356
0.823262851362497
0.801833328425197
0.818719671583512
0.812866638988811
0.820260873199681
0.815980167440145
0.824514866900873
0.845001511536293
0.829661081101438
0.83350742667432
0.818103830842665
0.798436418684719
0.770739296294715
0.777201205744977
0.766980110736178
0.784450096640082
0.810355544874391
0.793015827795461
0.775962802926485
0.770412757509603
0.776962946097909
0.75757973445426
0.748231310293543
0.758206167743124
0.743908940894893
0.734204859429597
0.739124562089522
0.72865035634785
0.722550397195432
0.720076390813537
0.707495259370108
0.716307852419288
0.716414333847205
0.709036268550134
0.733784895762587
0.724412942616434
0.725493834351958
0.730526181002383
0.711640533307091
0.685097217741195
0.671294381694642
0.690505092395681
0.697548936170949
0.683390647153211
0.69403542016543
0.665499192683698
0.662580215578431
0.675671345239896
0.677027627320844
0.648950716712753
0.667894693146873
0.667749655247785
0.661926890111408
0.654326963670373
0.644226602190682
0.629412490347512
0.646835567024056
0.639514576629891
0.620564527948552
0.626656726415601
0.625665489856757
0.620889201398904
0.598147473252613
0.61498433818248
0.605337836950693
0.608494583745597
0.611363001227774
0.611845025011503
0.599354205809865
0.577728734489149
0.597683430918163
0.593866894668938
0.588237164281728
0.584647450526862
0.588574034458219
0.58030586042534
0.580846290081396
0.577009401255324
0.570053106128397
0.565069637252348
0.542900626752993
0.546279873522158
0.554244459760804
0.528509992278122
0.545926339072768
0.540746346866739
0.537275165986682
0.547571252182826
0.533116840807348
0.527228815504557
0.528545126502525
0.515392354455428
0.520190318655001
0.521162504941388
0.532224008434664
0.510242206954207
0.496109796660639
0.499673378656529
0.500913915884555
0.498847873109421
0.490141231266035
0.483499649840594
0.482857501042131
0.484152041532099
0.47671383668349
0.491495191722742
0.490410306759884
0.47057602714558
0.475614768422135
0.477298280349751
0.463158528614779
0.466578661716192
0.467145758630696
0.464599450757482
0.45736198947702
0.455329500053221
0.445217427905583
0.458320476169995
0.455073830134091
0.438492775523929
0.446814715395094
0.435419095805863
0.432169355987572
0.43366788695269
0.428999789786848
0.420956428157435
0.434299482538683
0.4310723498293
0.418319387551884
0.41790962872465
0.416137075149199
0.407223837027446
0.413838081556644
0.404647599385363
0.407820377037554
0.405819164798881
0.407311958167306
0.401727680837698
0.392353977299008
0.397482011767629
0.394010913882485
0.391396572341373
0.387113732854696
0.387915515203369
0.388155628424959
0.382306771626288
0.385402871329246
0.378388062030825
0.370116787784439
0.361060514973925
0.369639397181657
0.368778111527609
0.363181772700374
0.355659174695762
0.355289274733198
0.355789035915628
0.359245711443837
0.356623695806763
0.358531570435877
0.347459201857342
0.354267622954689
0.343983258551386
0.351668045880507
0.341018434714201
0.336346024813555
0.334206908123386
0.34190295735865
0.329926988128786
0.33047406086199
0.333984071140161
0.334350916416577
0.313271554681949
0.328217490530935
0.323912978650568
0.317596216314476
0.31234526141127
0.317844840512778
0.311877940061297
0.310488455431423
0.306688586072125
0.308908081857662
0.311666815383133
0.29839755776077
0.294944703586944
0.299224609251839
0.300393503060788
0.294596926466949
0.284378728074793
0.298849029342352
0.297761048501133
0.296472021107675
0.292913332348622
0.288559726291108
0.283613521695687
0.292194772602704
0.276499607578411
0.277502279986458
0.275535923714325
0.280102350221604
0.282057545348859
0.270381958501559
0.269749782866782
0.273737142917393
0.274361758629053
0.260628366862204
0.259435664426648
0.260321529695892
0.258253984405964
0.26086843957414
0.262432251506903
0.253642727133007
0.253125509001228
0.256616070561671
0.257802468494237
0.253885014309931
0.2533035820785
0.251715197263846
0.250208991251242
0.251568054113715
0.249635272487886
0.243057615754758
0.243676382877668
0.251083571595502
0.239670904393882
0.247840991078498
0.24241724234574
0.248322436369191
0.239891425091047
0.246098483598796
0.24378081448398
0.244006222324245
0.239068436673694
0.244983595422461
0.237058019400815
0.245269572234148
0.235578861153354
0.245309753316238
0.237307630568571
0.239693118243806
0.240038113885453
0.246444407357018
0.238453960235413
0.241289389522393
0.240504288275292
0.242814985985529
0.248600449404509
0.244019331966038
0.246078553147153
0.252398719758524
0.246213873302681
0.248804474516032
0.25414193951653
0.249072020376113
0.256724514708973
0.252373314551379
0.262709186904858
0.265586715890128
0.264124271411849
0.264672656537562
0.260851845803194
0.264374252173068
0.262818442734146
0.266341954466923
0.263553095889011
0.271622743592949
0.272402045016065
0.28113320426987
0.275563059387281
0.278993421896428
0.279662350682172
0.290315094807587
0.288114360012868
0.282593167885826
0.288527597201387
0.298457715675756
0.287716179657207
0.302695444958938
0.300913358610813
0.298808558621585
0.305318857141959
0.309029454074004
0.304769499461104
0.308356026592778
0.313807230891664
0.319407396654637
0.318012025942036
0.323543598356416
0.319849767478828
0.335361485246981
0.328992493636165
0.333917230080963
0.322248831108152
0.342659309662574
0.336540381281484
0.345755803412154
0.342334871055066
0.354855449601935
0.349753158743694
0.353731326813907
0.349861038914492
0.360940309546799
0.364417600418654
0.357643630768099
0.36280066403476
0.358291833135456
0.356373229791945
0.372509109616132
0.351313237769821
0.367207637602766
0.367507516867779
0.367558927299075
0.358747740619145
0.360614642626966
0.365649809208824
0.370266699485724
0.353193311799162
0.372085894487916
0.364630625703962
0.36728925341261
0.355090688356002
0.355577376836953
0.346894322466547
0.362632126510269
0.355825211654427
0.365345795854687
0.352800656492274
0.368009453855689
0.349419408630412
0.363404158704731
0.35565228534541
0.36184001602653
0.351365428671974
0.353455082645851
0.366607016149946
0.362213853287338
0.351584636912422
0.368702525822703
0.355989277228828
0.361131882218483
0.351118660723977
0.367402304430472
0.360063742077673
0.364165930698845
0.353711879881217
0.365132371262713
0.359457951692959
0.367574177335438
0.353771288237978
0.361463651708986
0.355514929332274
0.364212424483902
0.359283245258994
0.376992788649906
0.357741616205468
0.362618734654512
0.348288985819027
0.34942033969871
0.353861207865182
0.35103614301902
0.344594363566824
0.351408476593207
0.346094029467895
0.352059416484672
0.347633161627882
0.352212065657941
0.333022360890932
0.347414488595598
0.343384102705857
0.337458565555805
0.326671387488079
0.334686134174009
0.321571030654998
0.322623274649931
0.317280295250909
0.324181371262694
0.309661388647868
0.321387854818828
0.316534661607572
0.304344619777815
0.297353782049842
0.30816861371857
0.30387358830851
0.303746962372747
0.297530265367002
0.290335014468185
0.28776628077416
0.292139655865169
0.280214062091128
0.283010849437863
0.26960916488667
0.2809507338777
0.262634829549475
0.273369850420014
0.260022476199594
0.264895672648719
0.254242150730269
0.259387458088201
0.248138107338274
0.257876254128658
0.248168870954596
0.25293773407256
0.239651260269779
0.248091833741573
0.236075750169946
0.246995186862619
0.236224490405664
0.240478075191998
0.233724897417955
0.234252059795504
0.226569944137056
0.228392822378687
0.228056300269435
0.225046185661718
0.220081189923812
0.230035558825646
0.221116834526564
0.227425630978238
0.213721742212371
0.220748134609591
0.216202782688938
0.221059620368356
0.206435708654713
0.21278905845665
0.207950154876365
0.215434899290293
0.204043008696637
0.210056436188187
0.20555596289351
0.212168878425253
0.200830811284532
0.207127921659157
0.195099129506418
0.202872553860629
0.198616425826859
0.196237019933361
0.195852145589025
0.202083217862178
0.189954022832585
0.196369352898771
0.190398959344004
0.195382328892273
0.197046715634378
0.200606503962984
0.184685992443327
0.190188286705385
0.183179953358299
0.191095292827072
0.183841316036636
0.188847835608852
0.181330093341156
0.180441395403498
0.181979156490446
0.185192917599332
0.178431036827624
0.187930508860034
0.175802307858653
0.18520182929485
0.18026926800054
0.181350702615549
0.171866652008407
0.176966792729389
0.173881667068234
0.178487579085911
0.170131599707445
0.172452053910395
0.169042034039042
0.171741116803966
0.171992722289778
0.174910604003167
0.167843718806442
0.171670403407254
0.166999654780443
0.171852142644158
0.161397030800264
0.171961140120502
0.164785004370062
0.17243657738177
0.162430472424206
0.1671752918792
0.16344157767969
0.16847381104063
0.161313135946078
0.167821223393587
0.159887628770277
0.165915809656325
0.160238012349268
0.16238951934468
0.159765710030434
0.167107739091499
0.159751959278955
0.168283985261783
0.158726496920662
0.157251319680015
0.152739310076376
0.16071566318429
0.152584597567232
0.157247278434846
0.150239332227627
0.16070037599677
0.153736769914883
0.15730900337394
0.153514506900428
0.165330576998984
0.154468959931555
0.158890333139255
0.157308948024612
0.161720522527085
0.148105085557505
0.162081919407046
0.150473289910469
0.148136102588033
0.14907262220945
0.152207281081562
0.147511952659835
0.147900415446902
0.151240735442021
0.150020582328355
0.150204614710222
0.15304053923194
0.146428208023461
0.154167340064475
0.146669160961691
0.152266014145498
0.143748557691174
0.15449390954138
0.145298758158699
0.15199179107252
0.145482537888601
0.148066180659892
0.144127762011366
0.148203452267317
0.141768489831864
0.145025590422447
0.142464951063915
0.147337512742932
0.141569357582747
0.142810455458475
0.142339024853947
0.148020979908821
0.136952911127151
0.143079909536013
0.136997653399316
0.142317782166645
0.138193039390608
0.143605493476325
0.131564455008813
0.137920522188027
0.133835138800314
0.14158948012357
0.137609343515454
0.14043145821256
0.135646100111478
0.138679815652348
0.134458506572557
0.143227059215096
0.130927125656637
0.136736874531623
0.13261293877145
0.138153234108177
0.131765717726339
0.13695020751324
0.129631016348573
0.133018924581482
0.127722574794873
0.134709895673777
0.133841915520435
0.13046721243197
0.130361374073122
0.133497930225524
0.124257711121754
0.130048776227742
0.126207359365582
0.132654172361683
0.125026673060891
0.130559331262989
0.122738616098264
0.125134404462103
0.120323885172475
0.126067869955988
0.122679165609813
0.128031335312852
0.124492270694565
0.123115179268368
0.118488022879255
0.122657808037277
0.11872449358246
0.122053968278329
0.118144377948937
0.121921910315222
0.116751937400282
0.124678867284534
0.11433370040459
0.120429423880327
0.114830585411977
0.120645112584563
0.115006454201996
0.115288672975703
0.112723915129415
0.117728452658224
0.110924355127258
0.114167564093806
0.111032051681705
0.115941633366755
0.105165302015185
0.114323889941392
0.106177490292931
0.110976490247036
0.107486783052668
0.106507928897819
0.103985459319699
0.10986189098912
0.102315917138349
0.110495120268701
0.101879492826978
0.103300989779718
0.101866896396544
0.105630556412464
0.103021472575511
0.103813931364095
0.104702669292825
0.103529865580807
0.101233286550886
0.102465787841104
0.0973175192619459
0.100583529783078
0.0976206340760013
0.102400707683281
0.0970625336067525
0.100965060964471
0.0941139616976751
0.0963679452711174
0.0925322509014971
0.103564444633582
0.095196278087698
0.0963403710766283
0.0941204573226346
0.0959359666196595
0.0900506452316064
0.0894983927796076
0.0864333636541515
0.0923973847841186
0.0899627884308196
0.0916656233739131
0.0858109878899875
0.0963906145279337
0.0894015809170449
0.0912709616753383
0.0846813418738507
0.088262101636414
0.0843421936061537
0.0918360483513327
0.0872088631134052
0.0901260627456224
0.0843688004615469
0.0906018935605116
0.0831542542425874
0.0875838108761103
0.0827612767477573
0.0869509006579243
0.0823001731600974
0.0853405310628375
0.0829286531472367
0.0859546549221045
0.0843638345721337
0.0848680396408862
0.0810695457885422
0.0858129592990974
0.0794335934801991
0.084386007453762
0.080742723449181
0.083472079637895
0.0774829143525988
0.0820691432649042
0.080433354603324
0.0817136070221307
0.0774701390842065
0.0825733753110485
0.0748723218562318
0.0812099634389827
0.073501120085956
0.0796092737953188
0.0761934812444084
0.0782931559756687
0.0733504266835591
0.0784760170080962
0.0748257688369939
0.082151169763068
0.0759459969869969
0.0815786399130731
0.0725348054822818
0.0761558542194166
0.07406966497116
0.0800643696972928
0.0711810388594285
0.0800412491896079
0.0748028909476083
0.0768104588132848
0.0746281989629689
0.0774143220435873
0.0717404615225314
0.0767698302909542
0.0697600805884013
0.0743058303826663
0.0719906114444842
0.0728617161261735
0.0721086359828707
0.0768282837329668
0.0694374209106718
0.0710004167271516
0.0666384429739719
0.072304595234652
0.069252748679068
0.0742356993523837
0.0722655705358242
0.075576001053583
0.0683255544235671
0.0743904707678687
0.0670943221951877
0.0754149363049577
0.0676495914470873
0.07346403776965
0.0714287770136692
0.0731884574821276
0.0646162613257957
0.0709455609816377
0.0687149547199563
0.0689436212640419
0.0669481245944921
0.0723998412567065
0.0658133043103848
0.0694794501019203
0.0683613598551035
0.0694324865536981
0.0642074543645371
0.0699542613458012
0.0661959341152127
0.0703755953161782
0.0646714318587966
0.066344006271047
0.0640519862100026
0.0715062890448052
0.065209678831407
0.0674572051670267
0.0664382289048244
0.0702525489990848
0.063572361090545
0.0681733750273768
0.0626278301027836
0.0679561432471182
0.063276777919299
0.0679923733478076
0.0664341062838704
0.0687601229674397
0.0643845075221564
0.0694260206341206
0.0653148534544331
0.0630924884406873
0.0587316277423391
0.0653408548091635
0.0603133909630809
0.0663883021954174
0.0627608579357707
0.0633941751651784
0.0587427715527356
0.0636586461746802
0.0606401737237169
0.0633466380048107
0.0599925680771219
0.0661819617647762
0.0610188349328344
0.0624218365199311
0.0609437171528409
0.0619702516430486
0.0559541139519739
0.0648460477380706
0.0605965691180733
0.0611009928472452
0.0586354713829927
0.0624908396814544
0.0571224885686665
0.0612513882326366
0.0582374233732161
0.0610782391696601
0.0568089203651919
0.062021060326036
0.0531997481826928
0.0571276645178075
0.0595940116521902
0.0576395740384566
0.0548209949072003
0.058603979055385
0.0536039945440538
0.0563900915179077
0.051560006602101
0.0567406612380198
0.05288309381823
0.0562627150959556
0.052659479794988
0.055767921283452
0.0507927245114719
0.0575487061405835
0.053231660373763
0.0520243177491442
0.049939133983666
0.0546036421708347
0.0539929016985423
0.0537968787047612
0.0507463661541245
0.0571377958461235
0.0532893816512611
0.0521871990127414
0.050141450931017
0.0513721608342826
0.0492440316118576
0.0534011300552128
0.0476348466047521
0.0507801739655846
0.0494033139071903
0.0535912573540312
0.0473956149690657
0.0525821111100782
0.0485534525615882
0.0504536363694208
0.0476656128543725
0.0498172222466671
0.046923485471624
0.0493134524513354
0.0465119998755434
0.0490720477987086
0.0456898074267232
0.0487198328154126
0.0449252677091176
0.0464550882128488
0.0472717285777567
0.0502820734816927
0.0456829151204851
0.0471965182916853
0.0444603964907149
0.0490418631076809
0.0444929716327577
0.0485982957777419
0.0404986030166724
0.045684377675798
0.0416084435968674
0.0415702378534005
0.0430153483783934
0.0460761151625793
0.0405722580791805
0.048731230581037
0.0433547942486482
0.0439348245329975
0.0408313268550775
0.0451914088823963
0.0424138982632336
0.0457966709786389
0.0428350168822909
0.044597401980174
0.0407616916707292
0.0406451687367644
0.0376407027464608
0.0420884637024159
0.0398625268514026
0.0433017745688253
0.0407133250848928
0.0424755883567627
0.0396600097410382
0.0420627834564628
0.0386213717545626
0.0415848527738503
0.0414091250508768
0.041841302964004
0.0383262823121254
0.0414196846154182
0.0368286234940633
0.0451061383651319
0.0374317760150369
0.0399529445910568
0.0369562186335155
0.0390613052783929
0.0367041536567567
0.0383465023507866
0.0338806494957279
0.0390554333811979
0.0355111758120739
0.039461001622639
0.0348482316496313
0.0405718671366333
0.0373477406597987
0.0405069557824741
0.0343576136598152
0.0389672193190187
0.0399030439728715
0.0412933468000024
0.0369505835722668
0.0401898019480421
0.0346900993599993
0.0379249719507415
0.033905334500959
0.0379404256682
0.0365425473873432
0.0391694408094763
0.0324412959831525
0.0357407761730735
0.0279407046400079
0.0346808422677555
0.0328362436449626
0.0468649094960004
0.0362698282459652
0.0345498213388167
0.029678926067273
0.0349020266807563
0.029955302717129
0.0342359964389189
0.0349751518711621
0.0414276174820723
0.0334280441825069
0.0412504857908185
0.0235208560089002
0.037404314709348
0.0308251902732499
0.0374124077405863
0.0347006616264759
0.0313797564407034
0.0323237565340871
0.0385386280481952
0.0310007828410828
0.0387171804237298
0.0332883435150635
0.0341900999481963
0.0355056120342642
0.0425798010426527
0.0291102682488135
0.0379970294071864
0.0373815300200177
0.0350899804832496
0.0362547949021268
0.0312932094203872
0.0294459390743046
0.0299504400109814
0.0313265982218126
0.0257087890070277
0.0360978416757862
0.0288259647047948
0.0426052672240854
0.0307709567284814
0.0426528827929481
0.0190966408459533
0.0402781895595762
0.0160203410012225
0.0506012333923222
0.0187396152450248
0.0506075341986748
0.00213355407831788
0.0575073556589175
0.00934032009083226
0.0559562383000942
-0.00192996265268707
0.0620379816716656
0.00841608347128931
0.0568848890326348
0.00746099875757825
0.0504055360440719
0.0154213762220188
0.0394356129883987
0.029123643621514
0.0331886931233813
0.0336330260840959
0.0274983464168342
0.0408300444048334
0.0241709805041639
0.0392468037037797
0.0266377996103642
0.035732654915018
0.0290325229174057
0.0327207981236454
0.0300078856969125
0.031947177554742
0.0355291156620039
0.0291124791075483
0.0312058052208889
0.0308919170158729
0.0324787370558171
0.0328155007234432
0.0327213961171445
0.0343698672004625
0.0280854727330592
0.0319312225636495
0.0328727067446847
0.0313249697784074
0.031503411132911
0.0289797158173768
0.0315902433171713
0.0326963610286245
0.0289380420601665
0.0344060924669934
0.0300427492337854
0.030581007137061
0.0284693843008407
0.0332682144761917
0.0351096654756164
0.0294708210744456
0.0308394241398063
0.031278275750956
0.0320812183869413
0.0288036167737627
0.0296010768090849
0.0310370642133666
0.0304404561884524
0.0314107081796312
0.0309896648535253
0.0338431545700075
0.0327298078903632
0.0300354743129688
0.0318140594951712
0.0325735851901195
0.0307408115451409
0.0339608696176234
0.0289690931372023
0.0286435147791223
0.0302647791923776
0.0324959476822111
0.0305018541450795
0.0293931355013716
0.0310004058662095
0.0335979403671522
0.029785599717609
0.0312494401929039
0.0308756127956346
0.0339245821889741
0.0309563511986462
0.0327719818825296
0.0290133484013869
0.0330220482447285
0.0273530971138991
0.032185359626219
0.0303717407396934
0.0318737433177588
0.0289148989712244
0.03225396931212
0.0302477103294153
0.0308950340550152
0.0288007796198404
0.0306203061734615
0.0294501417954866
0.0324822349218324
0.0304795584211922
0.0298054622345824
0.0302168699983096
0.0357470562699573
0.0310073647513517
0.0327105787111757
0.0298250435282473
0.031397315728201
0.0310819400879701
0.0332249286530743
0.0314138518113543
0.0297348159651871
0.0295318572822338
0.0321661658324288
0.0302240930510218
0.0341125443352019
0.0302564300284931
0.0324586891509879
0.0324135452513839
0.0319525429450997
0.0328477247679991
0.033357356582457
0.0299076826902735
0.030026936677628
0.0300251014318201
0.0320920089450762
0.0295463652211172
0.0333220932913504
0.0307603811768285
0.030943516580075
0.0321193256516007
0.0352946233088376
0.0318100299597826
0.0333265700646708
0.0328674277797439
0.0342399449134333
0.0324589487912826
0.0319741502320021
0.0307112920345298
0.0329827835982881
0.0287105208357393
0.0334574545443935
0.0324539920472062
0.0333026576618918
0.0323057325857415
0.0334915829960027
0.033398465775275
0.0359674091840706
0.0349799776097194
0.0357552752170636
0.0332544048139894
0.0326821023809663
0.0342459281385138
0.0330254865198702
0.0345950068083043
0.0361602215101755
0.0322462345041155
0.0332666081279034
0.0331387046960914
0.0317991816445311
0.0326103392514637
0.0358308458026343
0.0311705323732262
0.0330708930235513
0.0314257216713562
0.0334892269102779
0.0347918913700614
0.0345536252797973
0.0304663408414059
0.0347969371792758
0.0339877018201931
0.0351044226905365
0.0371231809624284
0.0350829440557801
0.0310236312125365
0.0339512600237362
0.0315823625411846
0.0350002848125941
0.0329745706778488
0.0345568737680632
0.0335892107183358
0.0365724236558963
0.0351668148675343
0.0364041862421434
0.0361058008758398
0.036526361654033
0.0350720589845991
0.0364123518518144
0.0319111045178377
0.0354886083680807
0.0357004132863932
0.0360164581650697
0.0334393239998855
0.0370799681048812
0.0372829321857837
0.0357044600771423
0.0328622738553996
0.0366673783339451
0.0370048723446994
0.0363552183530898
0.0368121552377995
0.0366262542766435
0.0334332507614049
0.0355999789806518
0.0359373032423328
0.035684660357389
0.0335592978973147
0.0337249808543164
0.0333231953849388
0.0330575826440813
0.0301683222217185
0.0328014282259448
0.0326816590149009
0.0324404031235805
0.0347219576376057
0.0340449636403056
0.0335924129067975
0.0331906501129022
0.0324814599333351
0.035891809610873
0.0337475968110006
0.0350930142196241
0.0346016259344768
0.0342639137002831
0.033985455983183
0.0327808196607845
0.0298291542050379
0.0330641131159249
0.0326941808474997
0.0318102468544415
0.0338109899752323
0.0331931009694472
0.0339135652357871
0.0332911945537356
0.0341151789399562
0.0328790938457441
0.0342405202030232
0.0352316145958731
0.0357508211869385
0.0313704432824902
0.0322925928161447
0.0318984960143657
0.0307911673459044
0.031493619135169
0.0313159662686667
0.0340326648426473
0.0334506146405493
0.0312692265852519
0.0299264874930523
0.0327084741891532
0.0304325875798253
0.0347033303728562
0.0327954401204126
0.0326216717284151
0.033222587290797
0.0314988516205766
0.0308772874132322
0.032317593912029
0.0339368453139288
0.033130199356092
0.0352378712333913
0.0324377129698341
0.030768873662986
0.0326309556579694
0.0308165498201702
0.0320089537312444
0.0315787930066703
0.0316661535293179
0.0297491379101276
0.0339284994672938
0.029696452431457
0.0310599836064789
0.0336611853677929
0.0315424545360356
0.0318357883483336
0.03333328987262
0.0327946266741262
0.0321568644413057
0.0305565643928457
0.0319723570445767
0.0290820779591385
0.0308376001636057
0.0303559085095545
0.0317242218830722
0.0312465811997546
0.0309994164930416
0.0317449809698028
0.0327610253755549
0.0325169523747064
0.0320070199713108
0.0327713612732416
0.0314127962408223
0.0313675757973022
0.0311975555806049
0.0324079185367645
0.0320568611765578
0.0305335322893418
0.0329950828862652
0.0309947761412329
0.0318973095634303
0.0305529282685021
0.0290973192512953
0.03116787640268
0.0308564702001533
0.028695387231894
0.0322939871092699
0.0308383150754431
0.0288328712542128
0.0277818636571175
0.0305087276628723
0.0301333620293113
0.033830319724914
0.0295743455167907
0.0311195452168391
0.0312578850063999
0.0296421084272689
0.030206794632806
0.0329530667422028
0.0325609595744766
0.0324293543260144
0.0299263485438719
0.0308650412061638
0.0278564439010104
0.0270695746191452
0.027746091711485
0.0280649442128482
0.0287172865293257
0.0267443183681564
0.0264812680125209
0.029725256692734
0.0258051369769773
0.0290933012692772
0.026029522114231
0.0285118491843378
0.0266324123422918
0.0317014937673861
0.0273593182742317
0.0319171850835264
0.0314655470959797
0.0283081125545807
0.0265075092956926
0.0286319512242665
0.0303380536473259
0.0296917325882661
0.0258357956517594
0.0270087011458271
0.0280283028100074
0.0276870280027377
0.0256693068070424
0.0277536476875251
0.0281627996217707
0.0250480986373418
0.0260721336106103
0.0262214158452888
0.0262530072754084
0.0264171351557675
0.0248718196192937
0.0269075668895806
0.0260879868458131
0.0267966433050501
0.0262757208213359
0.0239519957460618
0.02316442902786
0.024770759951547
0.0312767150219437
0.0202424542454283
0.0276528019959328
0.0248256933566476
0.0280380354562743
0.0230983749788108
0.0245376921417872
0.0264059109105924
0.026090031606418
0.0259065934713904
0.0259988862356225
0.0277518708766709
0.022622208546167
0.0240093286208627
0.0274810704791166
0.0245140345375633
0.0235661556117644
0.0269512983975123
0.0226083626390062
0.024842288821841
0.0264347076470481
0.0249772649242381
0.0254162501287934
0.0223174240729478
0.0244725386820409
0.0233216898413197
0.0265221613461564
0.0260256622114792
0.0261090695843868
0.0259879676004361
0.0241006925076711
0.025911695587606
0.0229985800168342
0.023560461508645
0.0235621997578598
0.0237808424774789
0.0243617502235695
0.0236192849874312
0.0236149085203491
0.0243792006118642
0.0265303665245481
0.0246728060314769
0.0244877509284952
0.02441503660052
0.023531553191492
0.024730906246794
0.0240538713798022
0.0226216524089481
0.0221557620625802
0.0233629533736398
0.0248924069288702
0.0237964630616345
0.0207349734941152
0.0294125594269956
0.0245560528321942
0.0254591254800397
0.0237890683049408
0.0232096291253731
0.0233912280037106
0.0235780432301315
0.024247120376844
0.0254828707285569
0.0224663661436039
0.0244690919367043
0.0241745748348889
0.0236510184901057
0.0230491578167842
0.0224334230340349
0.0200218395139981
0.0221104597237524
0.0229922939444308
0.0240765275004869
0.0240858407676936
0.0198441968600426
0.0244176232459798
0.0232784651299599
0.020522534950494
0.0294267126813797
0.0171061589575789
0.025316846877954
0.027718659879113
0.0173040321388816
0.0270978230852808
0.020075236532096
0.0258594821867586
0.0214876566073151
0.0273304591409978
0.0164101222200631
0.0277583205899258
0.0194252763179776
0.0276709053765534
0.0226060851293061
0.0267058971487973
0.0225996180450484
0.0250797925238903
0.0237660739582104
0.0218919822545549
0.0199998569435211
0.0240274834755713
0.0219365585394031
0.0242183363637575
0.0212831243822819
0.0225426006576212
0.0195716648032849
0.0263386149388156
0.0179826662693057
0.0261501531200728
0.022770907667553
0.0276365776386342
0.0180416397040014
0.0341644169336563
0.0229999727892976
0.0268735506321559
0.0246156542827227
0.020078887792165
0.0217363753032424
0.0233208885506441
0.0221038226266154
0.0237625085006471
0.0223089358790481
0.0220468494342304
0.0239653058165986
0.021117355949356
0.0213723612862563
0.0202045426527995
0.0256229855663858
0.0188825723295706
0.0216990089868607
0.0202799294623092
0.0236217258715312
0.0235072636675981
0.0192966630812372
0.0339823611367518
0.0230732425975254
0.0281585960209434
0.0229155221823189
0.027768965435446
0.0202958516711714
0.027764657015016
0.0206723347835402
0.0253526604661828
0.021743044334748
0.0266970221634006
0.0230202519473868
0.0250125368172786
0.0224501876659968
0.0247476689484609
0.0229893599290578
0.0258659210014151
0.0211347961928106
0.0247023785043642
0.0185186656674842
0.0222344751311662
0.0221625047350096
0.0232207440463175
0.0297476253001904
0.0226034573897499
0.0274666056346558
0.017842768218849
0.0513186304292645
0.0149575643416273
0.0273517117363962
0.0213294128990996
0.0243326468597019
0.023895604070782
0.0230279261794896
0.0252002101781889
0.0247243254607876
0.0232475765142841
0.0288253279946282
0.0229866943494246
0.0257858928988799
0.0236101637304609
0.0214834695951298
0.0295086893592827
0.0284703860725552
0.0218904186528014
0.0301795207416576
0.0187257597572093
0.0335647639086228
0.0233164318872771
0.0268383618998127
0.0333261517733312
0.0225839475788124
0.0265147959322455
0.0236279874411253
0.0275330793116825
0.0213035147632767
0.0284800538952903
0.0248851299512438
0.0265106471728784
0.0213736890094832
0.0247949207260422
0.0283018786472188
0.0242592258203017
0.0283921616100094
0.0267220934463372
0.0229352638784742
0.0305433181402909
0.0202634123447865
0.0272000097393847
0.0273893872323401
0.0278006614983156
0.0253088698939471
0.032417601506298
0.0303662479484154
0.0308616195960335
0.0319019422810575
0.0272954929165976
0.0264903938048368
0.0318128229066306
0.025617390756234
0.0388481805765003
0.0181176035804297
0.0509131072134332
0.0235319283139654
0.0343128698544241
0.0302209784258986
0.0258911235914228
0.0315050546421708
0.0261758642272382
0.0334647304880406
0.0230891480219186
0.0377416428612562
0.0172758030072492
0.0412509051210326
0.0190733170768745
0.0436921155568446
0.0271630993229941
0.0347315584313319
0.0271667086304211
0.0302966005085108
0.0280578717871513
0.0420216339599
0.026773574018005
0.0366459234011765
0.0457488997703377
0.025283145035941
0.0422632077684622
0.0254893758072516
0.0330422053962308
0.0513425855700143
0.0236842265458807
0.0409579782112983
0.0254011026086521
0.0424291634690411
0.0277464204422548
0.0419021921093087
0.0400177725628433
0.0307399506896675
0.0379791391761156
0.0334868156339675
0.0277368982121767
0.0498650955833709
0.0327681671095729
0.0403118065897664
0.0302835730979694
0.0427124366911107
0.0288739647357712
0.0735583006168975
0.0233175667877177
0.0586672695863379
0.0361300524221722
0.050271438091211
0.0432044298609294
0.0420211209175476
0.0410529222435194
0.0501007229269779
0.0446460976728406
0.0435064488794695
0.0390330872747792
0.0618984641399817
0.0479791609392755
0.040497189880142
0.0521470956968498
0.0433904547386747
0.0531469653984467
0.0644305785628987
0.0580517034731835
0.0533692928013808
0.0505913892815652
0.0518687621217594
0.061746997340886
0.0450457408657033
0.0546651112437963
0.0497511590291366
0.056641822939175
0.0530355437738313
0.0565591038174405
0.0631102071138803
0.0517741166864134
0.061282013523571
0.0562500836214717
0.0630152245902078
0.062443096788475
0.0777171648658888
0.0701507764537068
0.0580212154710911
0.0995101413979423
0.0601387322316437
0.0736894753435459
0.0613763784185993
0.068643208956192
0.0712163076120606
0.0676968898566291
0.069577509022705
0.06480569010291
0.0911369018000804
0.0699905006852771
0.0806559156588774
0.084060449993141
0.0744634688971777
0.0937642814758044
0.0710217992037535
0.176547620733688
0.0581845171719617
0.108648631533082
0.0783168203344224
0.117964285901532
0.108068864741721
0.0928664028807386
0.100078161054347
0.103062821238579
0.103805889587111
0.1176882100459
0.112846693074905
0.120370593868048
0.121152796282718
0.12419036191732
0.121951587498289
0.167477331301202
0.140177210621629
0.150580142167252
0.143051854159443
0.146200816111324
0.157703868189219
0.165733630400163
0.154629353769064
0.17561427246727
0.161940835228267
0.189869608635147
0.19486431862841
0.172199855845424
0.19569332886411
0.18500137490332
0.218613478116254
0.184532105450504
0.257086639897894
0.198290636929049
0.22735679036711
0.215995024214049
0.225375835527393
0.229407482105626
0.227181385461913
0.26414555480228
0.236559818840175
0.249197693597519
0.245313622156101
0.247888129237951
0.250981866604066
0.259920039929448
0.264322348784188
0.259941804147291
0.292635682209486
0.265819333152491
0.334970296606208
0.261618631137939
0.273386417094431
0.271369483712055
0.268197435459333
0.302222718448659
0.267155509430884
0.308084034297588
0.280249537604814
0.267271695777452
0.275522741753574
0.271957291871306
0.281961708002691
0.273929213157314
0.281592022060507
0.26419505550291
0.30364266456794
0.26832006357434
0.313602427307474
0.296768652252931
0.266117749977491
0.282037522633237
0.272978384822694
0.281816324084272
0.276793029556093
0.276052879214264
0.276684304384203
0.286645201294714
0.262832496801708
0.291062259727716
0.265145577894802
0.29485187253939
0.265729335390617
0.264939071413417
0.265015525240035
0.260063164014172
0.268846005927427
0.263449433500272
0.27389372935852
0.288871473121632
0.243290974397319
0.264003920258713
0.250970321397142
0.256883004621116
0.252476754254185
0.251405211329715
0.24781286174981
0.254637731191703
0.243252276602482
0.260490991262112
0.241024075610335
0.252903393702788
0.23997219572627
0.251103202442871
0.241008552696389
0.247490696710409
0.239698306941662
0.242379541161525
0.243724518854075
0.245068687480775
0.242380491066317
0.243383455897801
0.242416490946719
0.246053036149605
0.235789730243654
0.245356171902667
0.238334221248756
0.240603342673413
0.238447354343558
0.241878787648469
0.235940127253976
0.236298036409133
0.235093250806639
0.234863131014892
0.235632342391948
0.233957694825255
0.234190656901619
0.230363375935307
0.23547906409984
0.226592618684164
0.231134533686125
0.223000192875914
0.257697992179218
0.223865219406652
0.219108800766473
0.230484219066947
0.215543742495122
0.230022054121798
0.204659373795702
0.23227435410452
0.208805974576275
0.209250625813695
0.205070092031474
0.204103640163827
0.198769325140866
0.207604695062388
0.188552757470537
0.208147776462844
0.183065674263647
0.230887104940169
0.211740054726812
0.202081829150259
0.217557423420572
0.185228132721037
0.187173594479055
0.178222740280751
0.204237092039901
0.166015137633663
0.186002551526498
0.172333413249844
0.187290762118516
0.175161449246952
0.169812091135801
0.178451814117505
0.169798249027892
0.176661599102991
0.179459651812635
0.170206551028256
0.173806535202463
0.187417673671513
0.160818326790725
0.187717971899096
0.170313672740528
0.161543372774568
0.153536394126897
0.161341347649166
0.155973952538554
0.159291368278178
0.179486561989887
0.146105489693383
0.153691412976012
0.14829780535841
0.142635321025123
0.15182020507941
0.148573099106913
0.156564873910206
0.130787966101733
0.17105156154405
0.133089102683973
0.154722089038297
0.146451262869467
0.154046450093946
0.146222917930367
0.137459124782844
0.137945161642378
0.142640708950627
0.153868915006917
0.131569112271648
0.141119920982287
0.13311087871012
0.127927830402213
0.144444675594264
0.129221136573334
0.140279261572562
0.135985549822421
0.138734832946888
0.162083920368672
0.14516367092887
0.140873879372781
0.129308124896395
0.124857541473775
0.135799695010114
0.123756104925746
0.131946380240314
0.126782780499386
0.129551794951095
0.14412097912415
0.128698904231443
0.154780768244944
0.131719899890758
0.135792067570735
0.13465135103265
0.137458084470008
0.148190636769878
0.157305249353583
0.15405105814283
0.156500997279558
0.141578740129117
0.163356288411224
0.144995373742264
0.160376425188179
0.150746266022112
0.16340817036362
0.160709251308828
0.173290983094681
0.169863839256595
0.177120657816934
0.176649046394589
0.190951778309769
0.176554584790243
0.215164629765802
0.184466515118973
0.219022957915793
0.209603636312773
0.222977825751404
0.218948067511621
0.216392165374734
0.221977978949112
0.221120666943184
0.230468294381944
0.239355535909463
0.233529913105253
0.257847213690192
0.235263963727252
0.254494503835433
0.247647938304985
0.256825863565561
0.254640150882476
0.271357827822625
0.270409828433182
0.275338031002271
0.291049890948496
0.259157815338161
0.275704122142345
0.266050468412395
0.281154918752898
0.277534995539575
0.272378647913235
0.285629377288468
0.277613887052531
0.286370304872976
0.283048096524125
0.280528770942892
0.28655074707358
0.289339895215194
0.294842107606175
0.292732795889934
0.300051446435912
0.302685850130951
0.299363862099217
0.315175387286463
0.300576534651046
0.334754633602773
0.315000515492314
0.310982149107117
0.322667466025567
0.308757774826456
0.329607109648377
0.327653417326002
0.329748753804094
0.331602262706429
0.335737442190183
0.342169792626544
0.339183721422429
0.346233087558786
0.342411710748971
0.3627344783444
0.346640744707001
0.348736584529966
0.366024437473777
0.345301732404366
0.385604640282402
0.349891207722631
0.373329333051452
0.357401506527069
0.367826192528195
0.360378340226866
0.369350179462047
0.365413439224717
0.372205928828821
0.368933848063246
0.368082187047831
0.368323976906839
0.37061237667232
0.374298697285323
0.371650912453579
0.374255723536127
0.365479052133972
0.358986771796387
0.366569079614817
0.360914018961442
0.363792735810841
0.368041760232428
0.376796086792059
0.359874735289921
0.371860022988873
0.361806415414867
0.373415607162875
0.367028394293335
0.362399074791864
0.361368143759756
0.368051514002911
0.360553825415748
0.376685999517006
0.357480868826383
0.379439863036533
0.370098894366058
0.375048999560332
0.372137596953155
0.375876451752523
0.372141743664083
0.380481575337338
0.379390868927949
0.382924851869559
0.381102489606478
0.385707801589952
0.384531074596787
0.38365992951946
0.388250363014204
0.388175715202977
0.386404237106341
0.381785000619865
0.374759889268023
0.378625256683429
0.368381939141073
0.3751205208894
0.362464761310494
0.36458264832467
0.358485462827336
0.361399420915135
0.353546196661925
0.362796444738565
0.349938727185052
0.34509080574777
0.349446626708371
0.333231543587374
0.338048065144494
0.331984598076159
0.331079238390864
0.327833527992664
0.328711834878652
0.322926912270642
0.319700566304004
0.318747054567907
0.320782967642409
0.319621870755716
0.318905779102526
0.31664336456162
0.314254284945935
0.318499409599164
0.316737749713208
0.318304419286397
0.316082516506098
0.3109802108142
0.313722532633235
0.314657226441407
0.316250459316572
0.310392237642713
0.32406732034234
0.314919690937512
0.316053595360703
0.310693511375507
0.318779463466601
0.31329930768508
0.309901334592372
0.309667523892851
0.309329028842743
0.311407919393476
0.309295153190757
0.310304959003117
0.310150453891514
0.308144421382199
0.305996807640131
0.30909219967983
0.311062409425684
0.305098602160184
0.303910504607024
0.310779245773953
0.305648896365997
0.31058903448104
0.308750537328895
0.310930096286753
0.307304954890747
0.308558526132392
0.306383374262363
0.310303773283164
0.309858749734658
0.306455913636783
0.310459462744526
0.308269519033312
0.309805652078017
0.307798658318934
0.305732043247664
0.305719275864046
0.301845906088481
0.306545905694692
0.298821044348043
0.29994453724431
0.296543342175699
0.294756500039435
0.290951539546445
0.290053962595661
0.285823232290527
0.284637289501479
0.2808340772123
0.277565898206111
0.276100810480599
0.273022169623357
0.272292511068011
0.270960396407341
0.266148746235411
0.267650093326075
0.264477260113025
0.267492789298007
0.263259849008926
0.263614526424755
0.261493770161854
0.262453237562527
0.258566642552393
0.261876578510629
0.260630615551359
0.261107069015477
0.265279122075717
0.266641352016147
0.26106950584415
0.264638433050524
0.265663580737376
0.267293306606756
0.265945944045862
0.270306079148659
0.268378653424298
0.268519044963375
0.27516221683138
0.272689677611789
0.273442206530177
0.277423947999537
0.279429219215501
0.280177128794205
0.280563904599067
0.282179566710842
0.281688674271875
0.280914738538868
0.279364003184406
0.28189683956431
0.282757739919596
0.279732020327267
0.28492347959846
0.279830252374371
0.282908190755853
0.281699894090452
0.276498744307801
0.279138293941421
0.27703775526607
0.275442831640799
0.277733460068627
0.276961557279859
0.274229643710114
0.276099268350295
0.27099144691813
0.271973747567453
0.270294186967016
0.266944066035044
0.267218164927145
0.26959146011554
0.266371174617334
0.263800936827064
0.26751299614432
0.264970797376697
0.25851459849801
0.262013575519852
0.260987587087572
0.260089482807377
0.26090530956685
0.262657103500859
0.259170316151233
0.256361805657912
0.256629570809573
0.256523731564836
0.258040160259261
0.257535625889214
0.255032196588151
0.253367340966498
0.254017488104961
0.252720038810573
0.250496319930323
0.249040266206227
0.248461563683175
0.247012814729108
0.247439882157684
0.245396654375322
0.2435227848435
0.24195458688065
0.237925648898899
0.237030872160088
0.233859527202441
0.232871285814773
0.230598419183489
0.23006567044086
0.227894267879406
0.228510048569512
0.230345035431011
0.226700570522809
0.227909801766502
0.229947266028626
0.224847907396422
0.224383198474699
0.225710469236456
0.2241923898537
0.222363412203171
0.222642614010212
0.218886353182273
0.219703710929621
0.216994229245702
0.215780057378726
0.214253897308706
0.211011999534413
0.205611406778087
0.205818956845192
0.203840676167983
0.203317277120867
0.200519193687705
0.201826587674115
0.204072535414586
0.204583633596282
0.208481455039459
0.213428601620599
0.217629139186806
0.225575352937251
0.233644470165268
0.240876730496515
0.24921405737815
0.260606716284072
0.272425238408338
0.283740334417309
0.295442813377519
0.309694480701545
0.322250575218143
0.33394483116672
0.343701714983053
0.356854507132568
0.366521379944408
0.380387780089312
0.387265836927908
0.399169789228211
0.411005306153132
0.418360060314387
0.42435990509719
0.435422625182725
0.443968629845803
0.452615939135088
0.458353697063587
0.468525737613892
0.473337383854397
0.479089480665413
0.483682421568839
0.488207098976427
0.494427420133348
0.492559748689913
0.497220433262076
0.50340807957776
0.50462091237339
0.50516770894829
0.506024608924067
0.51014070489238
0.508889816119959
0.505054994131172
0.506019180358039
0.510663585798742
0.51223179823461
0.512481316658275
0.514662021173058
0.518159893390938
0.522385903040676
0.525324762513514
0.530638851715233
0.533596956884892
0.536989044968564
0.540681456992466
0.54822260700646
0.554288626408879
0.559469036078566
0.566057308382695
0.56848495696549
0.577536695585554
0.583911098287058
0.591014828464762
0.602624024635514
0.607720723794908
0.62370250068749
0.626335078778313
0.632418952780193
0.65294948003385
0.655244175883287
0.657438890884322
0.667545236644575
0.669167281598594
0.667003724402439
0.67988892205819
0.676906247348721
0.671597223309233
0.674951791314763
0.664554355312789
0.66304266164311
0.66563464591299
0.654460927332096
0.658583442668125
0.661551439677895
0.66821315984665
0.668588967311237
0.673006996767842
0.6825100983788
0.692779538954844
0.703350398476039
0.71360822823328
0.72561335522744
0.744157975578601
0.754580634357233
0.770981648555778
0.787951870450489
0.800228003789869
0.809403226479193
0.812791740294692
0.828202363779248
0.844931637749674
0.871217505659792
0.875975732341614
0.879923215656215
0.891409740527086
0.90353376805537
0.928255941775296
0.94160513863165
0.979059236973508
0.977289294649174
0.986735817231006
1.02419060521288
1.03712411863202
1.04658094038443
1.07879321833851
1.069929897669
1.10142647080439
1.11367783085058
1.1116579020582
1.11392409698501
1.15354828492664
1.16891149856749
1.19144474748612
1.17349553889823
1.1836082138853
1.18194349848648
1.1705631540012
1.18542509209847
1.18450202432081
1.18207753388244
1.18378871554305
1.17252553807494
1.18735817253432
1.18090101141506
1.15608718311692
1.13293861420989
1.178313113321
1.14421977022123
1.14874111239175
1.15940100622517
1.14465188137191
1.14913951157244
1.17902736687414
1.19338171252741
1.22729742547256
1.21026483683179
1.22086627477263
1.21237050741304
1.22076343045347
1.28970973923661
1.28099479800417
1.28569239038192
1.28998682658246
1.29642666266033
1.28298179986524
1.33360688422628
1.27220058680145
1.35397973759065
1.33125976826191
1.34203630685798
1.32608885428721
1.3317360151762
1.38747783865229
1.32721915313073
1.32155266713732
1.33978729425123
1.33978033676095
1.33179412969374
1.29587192274848
1.34450322155895
1.3068075055414
1.31077708462651
1.28998859847775
1.29069930635127
1.27814429137867
1.29981403471177
1.25981729825448
1.22281729742285
1.18448015910035
1.19101906920142
1.18742970536108
1.14054378489048
1.10364165311749
1.05854008016262
1.05083080016446
0.995555767502297
0.936453229823428
0.906561355242668
0.867226153291296
0.821894324398918
0.776959523767727
0.74265463723397
0.729473239689606
0.698590335178272
0.666645457925206
0.656706994902126
0.640617375975638
0.633766824997037
0.614046653565181
0.607905336620841
0.610439420135818
0.59183386093634
0.593979851681542
0.587166856261021
0.579940887017047
0.57312131618867
0.573101054370247
0.558881445384535
0.544269776986206
0.537933601843052
0.522107325373179
0.512010631938998
0.502887078339079
0.482035155342301
0.471809038787479
0.45571178996218
0.440068969307003
0.416565022889216
0.399631976367309
0.381553972592546
0.369255577701757
0.354417805415051
0.33462317794572
0.314328349102033
0.292046065278733
0.281391400494791
0.26811043825304
0.25065300521498
0.245470023140765
0.231023530667653
0.212284016410796
0.207565127687597
0.197797233211707
0.191910391431567
0.18573270028497
0.178669011602626
0.173964092785011
0.174591663306595
0.16178130173817
0.164849996364542
0.159471388205525
0.15848931179199
0.155797103436373
0.156605389652504
0.160488584312123
0.156622971648521
0.159044582929203
0.155573523808592
0.161389063155728
0.159620066176116
0.159705204276547
0.159549278414017
0.166412445724677
0.164543249868421
0.167178013948488
0.165426612039836
0.16880080461045
0.165612999179928
0.167243100674329
0.16365248596885
0.16583865074779
0.159083146706995
0.159286840594648
0.152138134573733
0.152395091094831
0.155440677567481
0.151914581188475
0.146521924235371
0.149756786894872
0.151354492147839
0.154718056107367
0.152350982356178
0.153351394314881
0.151266980798158
0.160626401746831
0.153059969258438
0.163970103623319
0.161089818664109
0.158933478578325
0.169178682187215
0.168397742785247
0.17003667572584
0.168796836586505
0.177086679574078
0.175198754222704
0.18168471604028
0.189126699862807
0.184572512375898
0.183080331241502
0.186310853782543
0.189121777015922
0.187127834174959
0.188291442916607
0.186539983481039
0.192503465526579
0.190920256802942
0.197363733392626
0.194301704746
0.200609573870512
0.20228490723596
0.210776085820576
0.216990965802062
0.21601164684063
0.219901892999036
0.240764046953548
0.242830411759722
0.25229542953273
0.249948159446919
0.264290538600028
0.266655998359014
0.275533343516902
0.274002698879855
0.277632557991371
0.281103042884839
0.277115713329005
0.274117071066982
0.27154956828822
0.265362169150704
0.259701150124666
0.253600107896571
0.255637741353944
0.244175995190761
0.247167323692747
0.235217920890139
0.245416726971728
0.232737280199779
0.237025672111619
0.237145401502206
0.245467402888974
0.233719192784401
0.243470011067837
0.243389275097367
0.239847476102594
0.236103477642225
0.231637341907757
0.223187372610758
0.225836954443799
0.223480936370454
0.221325467549286
0.213450361394186
0.210005848644861
0.207978400816468
0.209965835012204
0.208501365482073
0.203034115792967
0.195427308388558
0.201112503008587
0.195225662608315
0.19915934947326
0.195165820304486
0.19232975941016
0.184752056652541
0.187939216711621
0.188656161491567
0.176219325561072
0.181924069754402
0.181409849721038
0.179842795415537
0.179168560378506
0.169583767394199
0.18080136062407
0.176586456957966
0.191135218784042
0.176949372499373
0.174518958308359
0.178435167305693
0.163175945119262
0.175707149519159
0.17564376146519
0.162476778541268
0.159173188813108
0.168660380204694
0.164174861422919
0.162512380859473
0.164175233872707
0.149661827017061
0.163608707616388
0.165200420414031
0.163058946853494
0.165258662397596
0.161911213870332
0.162197527507301
0.151072315654351
0.16548293007101
0.156913243136973
0.167454203269914
0.166667137045894
0.165682300488292
0.168822745101931
0.168325008463631
0.163765902764658
0.166851545722625
0.157869107399673
0.163755820990481
0.164211252004003
0.167702068525338
0.182343362920003
0.176191505881954
0.175459754798383
0.17647080751289
0.183022183850787
0.179106552046988
0.181089746980358
0.191281407359347
0.192950027802363
0.1972790844712
0.197272128465349
0.188520726570784
0.203693662095477
0.204204293209894
0.215022871495728
0.204582941564204
0.221144572839472
0.210698423073352
0.238790196960014
0.220298230649428
0.233559153532228
0.263763735946022
0.271326692360359
0.271443174658114
0.287500014754627
0.295864029949533
0.295170992730265
0.307267037650149
0.335753978489157
0.322868436406255
0.333098908552965
0.349568133140763
0.342963315327872
0.345998616787281
0.362184894954374
0.342946196895773
0.333363369212737
0.334305314713354
0.355720790931036
0.335769870977547
0.340901173540792
0.319937771004088
0.330009526310258
0.330482023877794
0.3202739625473
0.30627020525933
0.314898108493872
0.321942974311658
0.321937078484953
0.297185628634483
0.309487767646203
0.318791618934313
0.309161570113613
0.29855702256421
0.312395418289035
0.282916663773405
0.282333616491498
0.287439777316577
0.276408142716265
0.274656571858362
0.281328639148514
0.279687445007088
0.266973933683273
0.265307054235323
0.27179853116577
0.253171205331197
0.286178700684514
0.258299372719558
0.255994755194051
0.261748573831102
0.281338388770555
0.274728949561432
0.278829041566673
0.267318895656709
0.279626712170266
0.26925711507615
0.276203371750016
0.272566443418343
0.294441868447423
0.287697717713416
0.27513492992204
0.278945473027264
0.270460503023095
0.262632320943501
0.271494893360176
0.282132516441966
0.291621361264432
0.305856314183822
0.28517643358781
0.281811019682982
0.2934583014023
0.284263688153143
0.28426221422942
0.293836971248903
0.333957215862622
0.263770051885796
0.295722381834935
0.347084555269283
0.314697970918898
0.310497890487304
0.349260351832936
0.297651606136004
0.309379755897607
0.342347404263926
0.365696528692231
0.329724876981697
0.339865735385669
0.339183655675915
0.316247110747078
0.358911353489892
0.424558232152736
0.400984383121038
0.37807933751858
0.358450464062155
0.436964177097776
0.400826384340519
0.385883301649242
0.356621468678214
0.401562090451317
0.454956637990894
0.419978592778859
0.420304316374569
0.431406992853992
0.408375261998936
0.486017022781508
0.330105499087411
0.368815302459429
0.359871990927238
0.363370088137667
0.374408534018585
0.318735119021439
0.35020654913911
0.405225928661846
0.300184565612493
0.393995472881617
0.395939686117758
0.357129050851638
0.32088620671113
0.371004985509917
0.400206662992734
0.486115217572534
0.344129110351721
0.438628064513986
0.240367508033752
0.408473084487303
0.324522879989941
0.413623585295872
0.301806201994612
0.308864129576687
0.436359388597719
0.382024588109152
0.365968425043876
0.457742032694564
0.321842922653347
0.424804448313083
0.443085567964818
0.332131034368545
0.305006388741415
0.507276396559817
0.407998763765852
0.522760076135389
0.64486682242344
0.454778322342579
0.334704753173107
0.639729941257431
0.295854012840152
0.346972768022888
0.27401595616086
0.593749977976441
0.451686324111222
0.295136766834602
0.444552508436959
0.398246113201308
0.358556060765282
0.342575781452485
0.219888264238788
0.868293515280971
0.280473039054107
